type,name,time_units,begin_time,frequency,count,units
signal,"Noraxon Ultium-RT BRACHIORAD.","s",0.00000,2000,53200,"uV"

time,value
0.00000,-0.2679792975
0.00050,0.03721511018
0.00100,-0.8783681129
0.00150,-1.793951336
0.00200,-0.2679792975
0.00250,2.783964779
0.00300,3.699548003
0.00350,1.257992741
0.00400,-1.488756928
0.00450,-2.404340151
0.00500,-1.488756928
0.00550,-0.2679792975
0.00600,1.257992741
0.00650,3.699548003
0.00700,4.920325633
0.00750,3.699548003
0.00800,1.868381556
0.00850,0.9527983333
0.00900,-0.2679792975
0.00950,-3.319923375
0.01000,-3.319923375
0.01050,1.868381556
0.01100,8.887852934
0.01150,8.582658526
0.01200,1.563187149
0.01250,-5.151089821
0.01300,-10.03420034
0.01350,-16.44328291
0.01400,-24.37833751
0.01450,-24.98872632
0.01500,-14.30692205
0.01550,0.03721511018
0.01600,8.582658526
0.01650,11.02421379
0.01700,12.55018583
0.01750,14.68654668
0.01800,14.38135227
0.01850,11.3294082
0.01900,7.97226971
0.01950,6.141103264
0.02000,5.530714449
0.02050,7.361880895
0.02100,12.85538023
0.02150,19.2644628
0.02200,22.62160128
0.02250,22.01121246
0.02300,19.5696572
0.02350,17.43329635
0.02400,15.90732431
0.02450,14.68654668
0.02500,14.07615786
0.02550,16.82290753
0.02600,25.36835095
0.02650,37.57612726
0.02700,43.98520982
0.02750,38.18651607
0.02800,23.2319901
0.02850,8.887852934
0.02900,0.3424095179
0.02950,-3.319923375
0.03000,-5.456284228
0.03050,-6.677061859
0.03100,-7.287450675
0.03150,-7.592645082
0.03200,-5.151089821
0.03250,-0.2679792975
0.03300,4.920325633
0.03350,4.920325633
0.03400,0.03721511018
0.03450,-4.845895413
0.03500,-6.677061859
0.03550,-3.93031219
0.03600,3.394353595
0.03650,12.24499142
0.03700,16.82290753
0.03750,14.68654668
0.03800,12.85538023
0.03850,16.51771313
0.03900,20.18004602
0.03950,15.6021299
0.04000,4.920325633
0.04050,-1.793951336
0.04100,-1.793951336
0.04150,-1.183562521
0.04200,-2.099145744
0.04250,-1.183562521
0.04300,3.394353595
0.04350,7.056686487
0.04400,7.97226971
0.04450,8.582658526
0.04500,9.193047341
0.04550,8.887852934
0.04600,10.71901938
0.04650,18.34887957
0.04700,27.80990621
0.04750,30.55665588
0.04800,30.25146147
0.04850,38.18651607
0.04900,53.75143087
0.04950,61.07609665
0.05000,54.05662527
0.05050,47.3423483
0.05100,56.49818053
0.05150,72.36828974
0.05200,74.50465059
0.05250,57.41376376
0.05300,35.134572
0.05350,18.65407398
0.05400,7.056686487
0.05450,-4.235506598
0.05500,-16.1380885
0.05550,-26.51469836
0.05600,-38.11208585
0.05650,-51.54063979
0.05700,-63.13802728
0.05750,-68.63152662
0.05800,-68.02113781
0.05850,-64.35880491
0.05900,-60.08608321
0.05950,-55.20297268
0.06000,-47.8783069
0.06050,-37.19650263
0.06100,-24.98872632
0.06150,-14.61211646
0.06200,-9.729005936
0.06250,-10.03420034
0.06300,-10.64458916
0.06350,-6.677061859
0.06400,3.699548003
0.06450,16.51771313
0.06500,26.28393417
0.06550,29.03068384
0.06600,27.80990621
0.06650,25.67354536
0.06700,24.14757332
0.06750,20.48524043
0.06800,14.38135227
0.06850,9.498241749
0.06900,8.582658526
0.06950,8.582658526
0.07000,4.615131226
0.07050,-2.709534559
0.07100,-8.203033898
0.07150,-9.423811529
0.07200,-8.813422713
0.07250,-10.33939475
0.07300,-12.78095001
0.07350,-14.00172764
0.07400,-13.39133883
0.07450,-13.39133883
0.07500,-12.47575561
0.07550,-6.371867452
0.07600,1.868381556
0.07650,7.056686487
0.07700,5.225520041
0.07750,0.03721511018
0.07800,-3.625117782
0.07850,-5.456284228
0.07900,-6.371867452
0.07950,-4.540701005
0.08000,0.3424095179
0.08050,3.699548003
0.08100,3.089159187
0.08150,2.783964779
0.08200,7.361880895
0.08250,12.24499142
0.08300,8.887852934
0.08350,-0.2679792975
0.08400,-4.540701005
0.08450,0.6476039256
0.08500,8.277464118
0.08550,10.10863056
0.08600,7.361880895
0.08650,6.75149208
0.08700,9.193047341
0.08750,11.02421379
0.08800,10.71901938
0.08850,9.193047341
0.08900,6.446297672
0.08950,3.394353595
0.09000,0.9527983333
0.09050,0.3424095179
0.09100,0.03721511018
0.09150,-2.404340151
0.09200,-7.287450675
0.09250,-10.94978357
0.09300,-9.729005936
0.09350,-3.625117782
0.09400,2.783964779
0.09450,7.361880895
0.09500,8.277464118
0.09550,7.361880895
0.09600,6.141103264
0.09650,4.920325633
0.09700,3.699548003
0.09750,3.699548003
0.09800,4.309936818
0.09850,4.615131226
0.09900,3.699548003
0.09950,4.615131226
0.10000,8.582658526
0.10050,13.16057464
0.10100,15.90732431
0.10150,19.5696572
0.10200,29.94626706
0.10250,45.20598745
0.10300,55.2774029
0.10350,51.61507001
0.10400,37.57612726
0.10450,22.62160128
0.10500,14.07615786
0.10550,12.55018583
0.10600,15.6021299
0.10650,19.5696572
0.10700,21.40082365
0.10750,20.79043483
0.10800,21.70601806
0.10850,25.36835095
0.10900,27.5047118
0.10950,25.36835095
0.11000,19.87485161
0.11050,14.68654668
0.11100,10.71901938
0.11150,8.582658526
0.11200,10.10863056
0.11250,13.16057464
0.11300,10.71901938
0.11350,1.257992741
0.11400,-7.287450675
0.11450,-7.287450675
0.11500,-3.319923375
0.11550,-7.287450675
0.11600,-18.88483817
0.11650,-25.90430954
0.11700,-20.1056158
0.11750,-8.508228305
0.11800,-0.5731737052
0.11850,2.173575964
0.11900,5.835908857
0.11950,10.71901938
0.12000,13.46576905
0.12050,13.16057464
0.12100,10.10863056
0.12150,4.309936818
0.12200,-4.235506598
0.12250,-11.86536679
0.12300,-12.78095001
0.12350,-9.729005936
0.12400,-9.118617121
0.12450,-13.39133883
0.12500,-17.66406054
0.12550,-17.66406054
0.12600,-14.30692205
0.12650,-10.64458916
0.12700,-7.287450675
0.12750,-2.099145744
0.12800,2.783964779
0.12850,6.446297672
0.12900,10.10863056
0.12950,16.82290753
0.13000,24.45276773
0.13050,29.64107266
0.13100,30.55665588
0.13150,31.1670447
0.13200,33.60859996
0.13250,36.05015522
0.13300,38.18651607
0.13350,41.54365456
0.13400,47.64754271
0.13450,51.61507001
0.13500,49.78390357
0.13550,43.374821
0.13600,35.134572
0.13650,25.67354536
0.13700,13.16057464
0.13750,0.03721511018
0.13800,-10.03420034
0.13850,-18.27444935
0.13900,-25.59911514
0.13950,-30.17703125
0.14000,-28.95625362
0.14050,-25.90430954
0.14100,-27.43028158
0.14150,-34.75494737
0.14200,-41.16402993
0.14250,-44.21597401
0.14300,-48.48869571
0.14350,-56.11855591
0.14400,-59.17049998
0.14450,-50.31986216
0.14500,-32.92378092
0.14550,-16.44328291
0.14600,-5.151089821
0.14650,3.699548003
0.14700,11.3294082
0.14750,15.2969355
0.14800,14.99174109
0.14850,13.77096346
0.14900,14.07615786
0.14950,15.2969355
0.15000,13.46576905
0.15050,8.277464118
0.15100,4.00474241
0.15150,4.615131226
0.15200,9.498241749
0.15250,13.16057464
0.15300,12.55018583
0.15350,10.10863056
0.15400,9.193047341
0.15450,8.277464118
0.15500,4.309936818
0.15550,-0.5731737052
0.15600,-3.625117782
0.15650,-5.456284228
0.15700,-9.729005936
0.15750,-13.39133883
0.15800,-11.25497797
0.15850,-4.845895413
0.15900,-2.404340151
0.15950,-5.456284228
0.16000,-9.118617121
0.16050,-12.47575561
0.16100,-18.88483817
0.16150,-25.90430954
0.16200,-23.15755988
0.16250,-7.592645082
0.16300,8.582658526
0.16350,15.90732431
0.16400,16.21251872
0.16450,16.51771313
0.16500,15.6021299
0.16550,11.93979701
0.16600,8.582658526
0.16650,10.10863056
0.16700,11.3294082
0.16750,6.75149208
0.16800,-0.2679792975
0.16850,-3.319923375
0.16900,-2.709534559
0.16950,-2.099145744
0.17000,-1.793951336
0.17050,2.173575964
0.17100,10.41382497
0.17150,17.43329635
0.17200,20.48524043
0.17250,19.87485161
0.17300,16.82290753
0.17350,12.24499142
0.17400,8.277464118
0.17450,5.835908857
0.17500,3.089159187
0.17550,-0.8783681129
0.17600,-4.235506598
0.17650,-5.151089821
0.17700,-7.287450675
0.17750,-12.47575561
0.17800,-18.27444935
0.17850,-21.93678224
0.17900,-23.46275428
0.17950,-20.1056158
0.18000,-7.287450675
0.18050,12.55018583
0.18100,28.42029503
0.18150,30.55665588
0.18200,22.92679569
0.18250,14.99174109
0.18300,9.803436157
0.18350,4.615131226
0.18400,-0.2679792975
0.18450,-0.2679792975
0.18500,3.394353595
0.18550,7.056686487
0.18600,7.361880895
0.18650,5.835908857
0.18700,4.920325633
0.18750,4.309936818
0.18800,2.783964779
0.18850,0.9527983333
0.18900,0.3424095179
0.18950,0.9527983333
0.19000,1.563187149
0.19050,1.868381556
0.19100,2.173575964
0.19150,1.257992741
0.19200,-0.5731737052
0.19250,-3.014728967
0.19300,-4.235506598
0.19350,-3.014728967
0.19400,-1.183562521
0.19450,-1.793951336
0.19500,-4.845895413
0.19550,-7.287450675
0.19600,-6.371867452
0.19650,-5.151089821
0.19700,-7.287450675
0.19750,-10.33939475
0.19800,-6.371867452
0.19850,7.056686487
0.19900,22.01121246
0.19950,27.5047118
0.20000,22.62160128
0.20050,15.90732431
0.20100,12.55018583
0.20150,11.6346026
0.20200,10.41382497
0.20250,10.71901938
0.20300,13.77096346
0.20350,15.6021299
0.20400,11.3294082
0.20450,2.783964779
0.20500,-4.540701005
0.20550,-9.118617121
0.20600,-14.00172764
0.20650,-21.93678224
0.20700,-31.70300329
0.20750,-40.55364111
0.20800,-45.13155723
0.20850,-42.38480756
0.20900,-32.0081977
0.20950,-18.27444935
0.21000,-5.151089821
0.21050,7.361880895
0.21100,21.40082365
0.21150,32.08262792
0.21200,32.69301673
0.21250,25.36835095
0.21300,19.87485161
0.21350,18.95926839
0.21400,16.51771313
0.21450,7.667075303
0.21500,-2.709534559
0.21550,-9.423811529
0.21600,-12.47575561
0.21650,-14.91731087
0.21700,-13.69653324
0.21750,-3.625117782
0.21800,10.71901938
0.21850,18.65407398
0.21900,13.16057464
0.21950,-0.2679792975
0.22000,-12.47575561
0.22050,-17.66406054
0.22100,-15.83289409
0.22150,-12.1705612
0.22200,-10.33939475
0.22250,-9.729005936
0.22300,-7.592645082
0.22350,-4.235506598
0.22400,-1.793951336
0.22450,1.257992741
0.22500,8.277464118
0.22550,17.12810194
0.22600,21.70601806
0.22650,20.18004602
0.22700,16.21251872
0.22750,15.90732431
0.22800,18.65407398
0.22850,20.18004602
0.22900,18.04368516
0.22950,11.02421379
0.23000,-1.488756928
0.23050,-17.66406054
0.23100,-32.31339211
0.23150,-42.07961315
0.23200,-46.65752927
0.23250,-46.96272368
0.23300,-41.77441874
0.23350,-32.31339211
0.23400,-22.24197665
0.23450,-16.1380885
0.23500,-14.00172764
0.23550,-13.39133883
0.23600,-12.1705612
0.23650,-8.508228305
0.23700,-2.404340151
0.23750,2.173575964
0.23800,3.089159187
0.23850,-0.2679792975
0.23900,-3.319923375
0.23950,-4.845895413
0.24000,-6.982256267
0.24050,-9.118617121
0.24100,-7.89783949
0.24150,-3.93031219
0.24200,-0.2679792975
0.24250,0.9527983333
0.24300,4.00474241
0.24350,10.10863056
0.24400,14.68654668
0.24450,14.07615786
0.24500,10.41382497
0.24550,9.803436157
0.24600,11.02421379
0.24650,10.10863056
0.24700,6.446297672
0.24750,4.920325633
0.24800,6.75149208
0.24850,7.361880895
0.24900,4.00474241
0.24950,-1.183562521
0.25000,-6.066673044
0.25050,-10.94978357
0.25100,-18.57964376
0.25150,-26.20950395
0.25200,-28.95625362
0.25250,-25.59911514
0.25300,-17.35886613
0.25350,-8.203033898
0.25400,-1.793951336
0.25450,0.03721511018
0.25500,-0.5731737052
0.25550,0.9527983333
0.25600,7.97226971
0.25650,16.51771313
0.25700,21.40082365
0.25750,22.62160128
0.25800,22.31640687
0.25850,20.18004602
0.25900,15.6021299
0.25950,10.71901938
0.26000,8.277464118
0.26050,6.141103264
0.26100,0.3424095179
0.26150,-7.89783949
0.26200,-13.39133883
0.26250,-15.52769968
0.26300,-17.66406054
0.26350,-20.1056158
0.26400,-19.80042139
0.26450,-15.22250527
0.26500,-10.33939475
0.26550,-6.066673044
0.26600,2.478770372
0.26650,16.21251872
0.26700,25.97873976
0.26750,22.92679569
0.26800,8.887852934
0.26850,-5.761478636
0.26900,-13.08614442
0.26950,-10.64458916
0.27000,-1.183562521
0.27050,7.97226971
0.27100,11.02421379
0.27150,6.75149208
0.27200,0.3424095179
0.27250,-3.319923375
0.27300,-4.845895413
0.27350,-4.540701005
0.27400,-1.183562521
0.27450,5.530714449
0.27500,14.38135227
0.27550,20.48524043
0.27600,22.62160128
0.27650,20.18004602
0.27700,13.46576905
0.27750,5.225520041
0.27800,-1.488756928
0.27850,-6.677061859
0.27900,-10.64458916
0.27950,-10.03420034
0.28000,-1.793951336
0.28050,10.41382497
0.28100,17.73849076
0.28150,15.2969355
0.28200,8.277464118
0.28250,1.868381556
0.28300,-3.319923375
0.28350,-9.118617121
0.28400,-13.69653324
0.28450,-16.1380885
0.28500,-16.74847731
0.28550,-12.78095001
0.28600,-0.5731737052
0.28650,14.68654668
0.28700,21.70601806
0.28750,15.2969355
0.28800,3.394353595
0.28850,-3.625117782
0.28900,-8.203033898
0.28950,-13.39133883
0.29000,-14.91731087
0.29050,-7.287450675
0.29100,3.089159187
0.29150,6.75149208
0.29200,3.394353595
0.29250,-0.2679792975
0.29300,-3.014728967
0.29350,-11.56017238
0.29400,-23.46275428
0.29450,-28.95625362
0.29500,-23.76794869
0.29550,-14.30692205
0.29600,-7.287450675
0.29650,-1.183562521
0.29700,8.277464118
0.29750,18.95926839
0.29800,25.67354536
0.29850,25.06315654
0.29900,18.95926839
0.29950,11.02421379
0.30000,3.699548003
0.30050,-1.183562521
0.30100,-3.625117782
0.30150,-3.319923375
0.30200,1.257992741
0.30250,9.498241749
0.30300,15.90732431
0.30350,15.2969355
0.30400,10.10863056
0.30450,6.446297672
0.30500,4.615131226
0.30550,1.257992741
0.30600,-3.93031219
0.30650,-6.982256267
0.30700,-7.287450675
0.30750,-9.423811529
0.30800,-15.52769968
0.30850,-20.41081021
0.30900,-20.71600461
0.30950,-17.96925494
0.31000,-15.52769968
0.31050,-13.39133883
0.31100,-10.94978357
0.31150,-10.64458916
0.31200,-13.39133883
0.31250,-15.52769968
0.31300,-13.69653324
0.31350,-10.33939475
0.31400,-10.03420034
0.31450,-10.94978357
0.31500,-8.813422713
0.31550,-4.845895413
0.31600,-2.099145744
0.31650,-1.183562521
0.31700,0.9527983333
0.31750,4.920325633
0.31800,7.97226971
0.31850,9.803436157
0.31900,11.02421379
0.31950,8.582658526
0.32000,1.868381556
0.32050,-1.793951336
0.32100,4.920325633
0.32150,18.95926839
0.32200,27.1995174
0.32250,25.67354536
0.32300,22.31640687
0.32350,22.92679569
0.32400,22.01121246
0.32450,13.77096346
0.32500,2.783964779
0.32550,-3.93031219
0.32600,-6.982256267
0.32650,-9.423811529
0.32700,-9.729005936
0.32750,-6.371867452
0.32800,-3.93031219
0.32850,-5.761478636
0.32900,-8.508228305
0.32950,-8.813422713
0.33000,-13.39133883
0.33050,-29.56664244
0.33100,-50.93025098
0.33150,-61.00166643
0.33200,-53.67700065
0.33250,-37.50169704
0.33300,-22.85236547
0.33350,-11.86536679
0.33400,-2.709534559
0.33450,5.225520041
0.33500,13.46576905
0.33550,21.70601806
0.33600,29.94626706
0.33650,35.74496081
0.33700,40.32287693
0.33750,45.51118186
0.33800,49.17351475
0.33850,47.95273712
0.33900,43.374821
0.33950,39.1020993
0.34000,35.4397664
0.34050,28.72548943
0.34100,21.09562924
0.34150,15.2969355
0.34200,9.803436157
0.34250,-0.2679792975
0.34300,-14.61211646
0.34350,-24.98872632
0.34400,-28.34586481
0.34450,-30.48222566
0.34500,-36.28091941
0.34550,-42.07961315
0.34600,-43.60558519
0.34650,-41.77441874
0.34700,-39.33286348
0.34750,-35.06014178
0.34800,-27.12508718
0.34850,-18.57964376
0.34900,-12.78095001
0.34950,-8.508228305
0.35000,-3.014728967
0.35050,3.394353595
0.35100,7.97226971
0.35150,9.803436157
0.35200,11.3294082
0.35250,13.16057464
0.35300,13.46576905
0.35350,9.498241749
0.35400,1.563187149
0.35450,-6.066673044
0.35500,-11.86536679
0.35550,-13.39133883
0.35600,-11.56017238
0.35650,-7.287450675
0.35700,-3.93031219
0.35750,-5.151089821
0.35800,-11.56017238
0.35850,-18.27444935
0.35900,-17.35886613
0.35950,-9.118617121
0.36000,-2.099145744
0.36050,-3.625117782
0.36100,-11.25497797
0.36150,-18.27444935
0.36200,-22.85236547
0.36250,-27.12508718
0.36300,-28.65105921
0.36350,-22.85236547
0.36400,-13.39133883
0.36450,-12.47575561
0.36500,-24.68353191
0.36550,-38.41728026
0.36600,-39.63805789
0.36650,-27.12508718
0.36700,-12.1705612
0.36750,-3.625117782
0.36800,0.03721511018
0.36850,3.089159187
0.36900,5.225520041
0.36950,5.225520041
0.37000,9.193047341
0.37050,22.92679569
0.37100,42.76443219
0.37150,57.41376376
0.37200,59.85531902
0.37250,54.36181968
0.37300,47.64754271
0.37350,38.18651607
0.37400,21.40082365
0.37450,0.9527983333
0.37500,-11.86536679
0.37550,-12.78095001
0.37600,-8.508228305
0.37650,-7.287450675
0.37700,-10.64458916
0.37750,-15.22250527
0.37800,-20.41081021
0.37850,-27.73547599
0.37900,-36.28091941
0.37950,-44.21597401
0.38000,-49.70947335
0.38050,-52.76141742
0.38100,-51.8458342
0.38150,-48.48869571
0.38200,-47.26791808
0.38250,-49.40427894
0.38300,-50.01466775
0.38350,-43.30039078
0.38400,-29.87183684
0.38450,-15.22250527
0.38500,-2.709534559
0.38550,7.056686487
0.38600,14.38135227
0.38650,16.21251872
0.38700,14.07615786
0.38750,10.71901938
0.38800,7.97226971
0.38850,5.835908857
0.38900,4.920325633
0.38950,6.141103264
0.39000,8.887852934
0.39050,11.02421379
0.39100,11.02421379
0.39150,9.498241749
0.39200,5.835908857
0.39250,1.563187149
0.39300,-0.5731737052
0.39350,0.3424095179
0.39400,3.089159187
0.39450,3.089159187
0.39500,1.563187149
0.39550,2.173575964
0.39600,5.530714449
0.39650,8.887852934
0.39700,8.582658526
0.39750,5.530714449
0.39800,3.089159187
0.39850,1.563187149
0.39900,-0.5731737052
0.39950,-3.319923375
0.40000,-3.93031219
0.40050,-1.488756928
0.40100,2.783964779
0.40150,6.141103264
0.40200,7.056686487
0.40250,6.75149208
0.40300,6.141103264
0.40350,5.530714449
0.40400,4.309936818
0.40450,3.089159187
0.40500,0.9527983333
0.40550,-3.319923375
0.40600,-7.592645082
0.40650,-5.761478636
0.40700,3.699548003
0.40750,16.21251872
0.40800,23.2319901
0.40850,23.2319901
0.40900,20.18004602
0.40950,18.04368516
0.41000,16.21251872
0.41050,13.77096346
0.41100,10.71901938
0.41150,7.361880895
0.41200,3.699548003
0.41250,1.563187149
0.41300,3.394353595
0.41350,9.193047341
0.41400,14.38135227
0.41450,16.51771313
0.41500,17.12810194
0.41550,17.43329635
0.41600,14.07615786
0.41650,4.615131226
0.41700,-5.151089821
0.41750,-6.982256267
0.41800,0.03721511018
0.41850,9.193047341
0.41900,13.46576905
0.41950,14.38135227
0.42000,15.6021299
0.42050,16.51771313
0.42100,13.46576905
0.42150,7.056686487
0.42200,0.6476039256
0.42250,-5.151089821
0.42300,-13.69653324
0.42350,-22.24197665
0.42400,-24.0731431
0.42450,-19.19003258
0.42500,-15.83289409
0.42550,-18.27444935
0.42600,-22.24197665
0.42650,-19.80042139
0.42700,-13.39133883
0.42750,-10.33939475
0.42800,-11.86536679
0.42850,-12.78095001
0.42900,-11.56017238
0.42950,-10.94978357
0.43000,-10.94978357
0.43050,-6.066673044
0.43100,4.615131226
0.43150,15.6021299
0.43200,20.79043483
0.43250,21.70601806
0.43300,22.62160128
0.43350,23.2319901
0.43400,20.79043483
0.43450,16.51771313
0.43500,12.24499142
0.43550,6.75149208
0.43600,-1.488756928
0.43650,-9.729005936
0.43700,-13.69653324
0.43750,-12.1705612
0.43800,-6.677061859
0.43850,0.3424095179
0.43900,7.97226971
0.43950,11.6346026
0.44000,7.361880895
0.44050,-1.183562521
0.44100,-8.203033898
0.44150,-9.729005936
0.44200,-6.677061859
0.44250,-2.099145744
0.44300,0.9527983333
0.44350,0.9527983333
0.44400,-0.5731737052
0.44450,-0.2679792975
0.44500,4.309936818
0.44550,8.887852934
0.44600,8.887852934
0.44650,6.446297672
0.44700,7.667075303
0.44750,11.02421379
0.44800,10.41382497
0.44850,5.835908857
0.44900,4.00474241
0.44950,8.887852934
0.45000,15.6021299
0.45050,18.95926839
0.45100,19.2644628
0.45150,18.34887957
0.45200,14.68654668
0.45250,8.582658526
0.45300,3.699548003
0.45350,1.868381556
0.45400,-0.2679792975
0.45450,-4.845895413
0.45500,-10.33939475
0.45550,-13.39133883
0.45600,-15.52769968
0.45650,-18.57964376
0.45700,-22.54717106
0.45750,-24.68353191
0.45800,-25.90430954
0.45850,-28.0406704
0.45900,-29.26144803
0.45950,-27.12508718
0.46000,-21.02119902
0.46050,-13.69653324
0.46100,-7.287450675
0.46150,-2.709534559
0.46200,-1.183562521
0.46250,-2.404340151
0.46300,-2.709534559
0.46350,-0.8783681129
0.46400,0.9527983333
0.46450,0.6476039256
0.46500,-0.8783681129
0.46550,-2.099145744
0.46600,-2.404340151
0.46650,-3.014728967
0.46700,-3.014728967
0.46750,-2.099145744
0.46800,-1.183562521
0.46850,-3.319923375
0.46900,-6.677061859
0.46950,-6.982256267
0.47000,-3.625117782
0.47050,-0.5731737052
0.47100,-1.183562521
0.47150,-2.709534559
0.47200,-2.404340151
0.47250,-0.8783681129
0.47300,-0.8783681129
0.47350,-3.014728967
0.47400,-3.014728967
0.47450,0.6476039256
0.47500,7.667075303
0.47550,14.38135227
0.47600,18.65407398
0.47650,19.87485161
0.47700,18.95926839
0.47750,17.73849076
0.47800,18.04368516
0.47850,20.18004602
0.47900,22.01121246
0.47950,20.18004602
0.48000,14.07615786
0.48050,6.141103264
0.48100,0.6476039256
0.48150,-0.2679792975
0.48200,0.9527983333
0.48250,-1.183562521
0.48300,-10.64458916
0.48350,-24.68353191
0.48400,-35.06014178
0.48450,-36.28091941
0.48500,-30.17703125
0.48550,-21.32639343
0.48600,-10.94978357
0.48650,2.783964779
0.48700,17.43329635
0.48750,24.14757332
0.48800,18.04368516
0.48850,6.141103264
0.48900,-2.709534559
0.48950,-8.508228305
0.49000,-16.44328291
0.49050,-25.29392073
0.49100,-26.51469836
0.49150,-14.30692205
0.49200,3.699548003
0.49250,14.38135227
0.49300,11.93979701
0.49350,4.00474241
0.49400,0.3424095179
0.49450,4.615131226
0.49500,13.46576905
0.49550,22.01121246
0.49600,24.75796213
0.49650,20.18004602
0.49700,11.3294082
0.49750,4.920325633
0.49800,4.309936818
0.49850,4.615131226
0.49900,1.257992741
0.49950,-1.793951336
0.50000,1.563187149
0.50050,11.02421379
0.50100,14.07615786
0.50150,2.783964779
0.50200,-14.61211646
0.50250,-22.85236547
0.50300,-18.27444935
0.50350,-13.08614442
0.50400,-17.35886613
0.50450,-24.68353191
0.50500,-21.32639343
0.50550,-4.845895413
0.50600,13.46576905
0.50650,22.62160128
0.50700,19.87485161
0.50750,12.85538023
0.50800,9.193047341
0.50850,9.498241749
0.50900,10.10863056
0.50950,9.498241749
0.51000,9.498241749
0.51050,12.24499142
0.51100,16.21251872
0.51150,16.51771313
0.51200,11.93979701
0.51250,5.225520041
0.51300,-0.2679792975
0.51350,-5.456284228
0.51400,-10.64458916
0.51450,-15.52769968
0.51500,-17.35886613
0.51550,-16.1380885
0.51600,-13.39133883
0.51650,-10.64458916
0.51700,-10.94978357
0.51750,-15.22250527
0.51800,-19.19003258
0.51850,-18.27444935
0.51900,-12.1705612
0.51950,-5.761478636
0.52000,-3.319923375
0.52050,-3.625117782
0.52100,-4.845895413
0.52150,-8.203033898
0.52200,-14.30692205
0.52250,-20.71600461
0.52300,-24.37833751
0.52350,-24.37833751
0.52400,-21.63158784
0.52450,-17.35886613
0.52500,-14.00172764
0.52550,-13.69653324
0.52600,-15.22250527
0.52650,-12.1705612
0.52700,-2.404340151
0.52750,9.193047341
0.52800,18.04368516
0.52850,23.5371845
0.52900,26.58912858
0.52950,25.36835095
0.53000,19.5696572
0.53050,15.90732431
0.53100,18.65407398
0.53150,23.2319901
0.53200,22.62160128
0.53250,18.04368516
0.53300,15.90732431
0.53350,15.2969355
0.53400,12.55018583
0.53450,6.446297672
0.53500,0.3424095179
0.53550,-4.845895413
0.53600,-10.03420034
0.53650,-12.78095001
0.53700,-12.78095001
0.53750,-16.1380885
0.53800,-27.43028158
0.53850,-37.80689144
0.53900,-36.58611381
0.53950,-27.43028158
0.54000,-22.85236547
0.54050,-24.68353191
0.54100,-21.32639343
0.54150,-8.203033898
0.54200,2.478770372
0.54250,4.00474241
0.54300,5.530714449
0.54350,18.04368516
0.54400,36.35534963
0.54450,45.20598745
0.54500,40.32287693
0.54550,31.4722391
0.54600,25.97873976
0.54650,22.92679569
0.54700,19.2644628
0.54750,15.6021299
0.54800,14.38135227
0.54850,13.77096346
0.54900,11.93979701
0.54950,8.887852934
0.55000,5.835908857
0.55050,2.783964779
0.55100,-0.2679792975
0.55150,-4.540701005
0.55200,-10.03420034
0.55250,-14.00172764
0.55300,-13.39133883
0.55350,-10.03420034
0.55400,-7.592645082
0.55450,-7.287450675
0.55500,-6.371867452
0.55550,-2.404340151
0.55600,1.257992741
0.55650,1.868381556
0.55700,0.9527983333
0.55750,2.173575964
0.55800,7.056686487
0.55850,12.55018583
0.55900,14.68654668
0.55950,13.77096346
0.56000,11.6346026
0.56050,10.41382497
0.56100,9.193047341
0.56150,6.446297672
0.56200,3.394353595
0.56250,0.9527983333
0.56300,-1.183562521
0.56350,-6.677061859
0.56400,-14.91731087
0.56450,-21.93678224
0.56500,-23.46275428
0.56550,-21.02119902
0.56600,-17.66406054
0.56650,-14.30692205
0.56700,-10.94978357
0.56750,-9.423811529
0.56800,-11.56017238
0.56850,-15.83289409
0.56900,-17.66406054
0.56950,-14.61211646
0.57000,-7.89783949
0.57050,0.3424095179
0.57100,9.498241749
0.57150,16.51771313
0.57200,19.87485161
0.57250,20.79043483
0.57300,22.31640687
0.57350,23.5371845
0.57400,20.79043483
0.57450,13.46576905
0.57500,5.225520041
0.57550,-1.488756928
0.57600,-6.677061859
0.57650,-9.118617121
0.57700,-8.813422713
0.57750,-10.64458916
0.57800,-18.88483817
0.57850,-30.48222566
0.57900,-34.44975296
0.57950,-26.51469836
0.58000,-14.00172764
0.58050,-6.371867452
0.58100,-6.066673044
0.58150,-9.118617121
0.58200,-12.78095001
0.58250,-15.22250527
0.58300,-14.30692205
0.58350,-8.813422713
0.58400,-1.793951336
0.58450,4.00474241
0.58500,9.193047341
0.58550,15.6021299
0.58600,22.01121246
0.58650,23.84237891
0.58700,21.09562924
0.58750,18.34887957
0.58800,18.65407398
0.58850,19.2644628
0.58900,17.12810194
0.58950,12.55018583
0.59000,8.887852934
0.59050,8.277464118
0.59100,9.193047341
0.59150,10.10863056
0.59200,10.10863056
0.59250,8.277464118
0.59300,4.00474241
0.59350,0.9527983333
0.59400,1.563187149
0.59450,4.615131226
0.59500,7.361880895
0.59550,8.277464118
0.59600,8.887852934
0.59650,10.10863056
0.59700,11.6346026
0.59750,12.24499142
0.59800,10.71901938
0.59850,5.225520041
0.59900,-2.709534559
0.59950,-9.729005936
0.60000,-12.78095001
0.60050,-14.30692205
0.60100,-19.19003258
0.60150,-28.0406704
0.60200,-36.89130822
0.60250,-42.69000197
0.60300,-43.60558519
0.60350,-39.02766908
0.60400,-29.56664244
0.60450,-21.02119902
0.60500,-19.19003258
0.60550,-20.41081021
0.60600,-16.1380885
0.60650,-4.845895413
0.60700,3.699548003
0.60750,4.00474241
0.60800,0.6476039256
0.60850,1.563187149
0.60900,5.530714449
0.60950,7.361880895
0.61000,6.75149208
0.61050,8.582658526
0.61100,14.38135227
0.61150,19.2644628
0.61200,20.18004602
0.61250,18.34887957
0.61300,16.21251872
0.61350,14.99174109
0.61400,13.77096346
0.61450,12.55018583
0.61500,9.803436157
0.61550,4.920325633
0.61600,-0.2679792975
0.61650,-2.404340151
0.61700,-1.793951336
0.61750,-0.8783681129
0.61800,-0.8783681129
0.61850,0.6476039256
0.61900,4.615131226
0.61950,7.056686487
0.62000,6.75149208
0.62050,7.361880895
0.62100,11.93979701
0.62150,15.2969355
0.62200,12.55018583
0.62250,6.141103264
0.62300,3.699548003
0.62350,5.835908857
0.62400,4.615131226
0.62450,-1.183562521
0.62500,-5.761478636
0.62550,-5.761478636
0.62600,-7.287450675
0.62650,-14.91731087
0.62700,-19.49522698
0.62750,-13.39133883
0.62800,-4.540701005
0.62850,-6.982256267
0.62900,-17.96925494
0.62950,-22.54717106
0.63000,-15.83289409
0.63050,-10.03420034
0.63100,-12.78095001
0.63150,-15.83289409
0.63200,-8.203033898
0.63250,4.920325633
0.63300,12.55018583
0.63350,12.85538023
0.63400,12.55018583
0.63450,14.99174109
0.63500,14.68654668
0.63550,9.803436157
0.63600,5.225520041
0.63650,4.615131226
0.63700,4.615131226
0.63750,1.563187149
0.63800,-1.793951336
0.63850,-1.488756928
0.63900,2.478770372
0.63950,4.615131226
0.64000,1.563187149
0.64050,-2.404340151
0.64100,-2.099145744
0.64150,3.089159187
0.64200,8.277464118
0.64250,9.193047341
0.64300,5.530714449
0.64350,-0.2679792975
0.64400,-6.371867452
0.64450,-14.61211646
0.64500,-22.85236547
0.64550,-27.12508718
0.64600,-24.37833751
0.64650,-14.00172764
0.64700,-0.5731737052
0.64750,10.10863056
0.64800,16.21251872
0.64850,18.65407398
0.64900,20.18004602
0.64950,20.79043483
0.65000,19.2644628
0.65050,16.82290753
0.65100,15.90732431
0.65150,14.38135227
0.65200,9.498241749
0.65250,2.173575964
0.65300,-0.2679792975
0.65350,4.00474241
0.65400,10.71901938
0.65450,13.46576905
0.65500,11.6346026
0.65550,8.887852934
0.65600,7.361880895
0.65650,6.141103264
0.65700,4.615131226
0.65750,2.478770372
0.65800,0.03721511018
0.65850,-1.793951336
0.65900,-4.540701005
0.65950,-7.287450675
0.66000,-10.64458916
0.66050,-12.47575561
0.66100,-12.1705612
0.66150,-9.729005936
0.66200,-5.761478636
0.66250,-0.5731737052
0.66300,4.00474241
0.66350,5.530714449
0.66400,4.00474241
0.66450,3.699548003
0.66500,8.887852934
0.66550,16.51771313
0.66600,19.87485161
0.66650,17.43329635
0.66700,13.46576905
0.66750,11.3294082
0.66800,10.10863056
0.66850,11.02421379
0.66900,14.99174109
0.66950,20.79043483
0.67000,22.92679569
0.67050,18.34887957
0.67100,10.10863056
0.67150,3.394353595
0.67200,0.03721511018
0.67250,-1.183562521
0.67300,0.3424095179
0.67350,5.530714449
0.67400,10.41382497
0.67450,10.71901938
0.67500,6.141103264
0.67550,1.563187149
0.67600,1.563187149
0.67650,4.920325633
0.67700,7.361880895
0.67750,7.056686487
0.67800,5.530714449
0.67850,6.75149208
0.67900,9.498241749
0.67950,8.887852934
0.68000,0.6476039256
0.68050,-10.94978357
0.68100,-19.49522698
0.68150,-21.63158784
0.68200,-21.02119902
0.68250,-21.93678224
0.68300,-24.0731431
0.68350,-26.20950395
0.68400,-28.65105921
0.68450,-33.22897533
0.68500,-37.80689144
0.68550,-38.41728026
0.68600,-33.53416974
0.68650,-24.98872632
0.68700,-14.30692205
0.68750,-3.319923375
0.68800,5.835908857
0.68850,11.93979701
0.68900,14.38135227
0.68950,13.77096346
0.69000,11.3294082
0.69050,5.835908857
0.69100,-0.8783681129
0.69150,-6.677061859
0.69200,-7.89783949
0.69250,-5.761478636
0.69300,-3.014728967
0.69350,-0.2679792975
0.69400,5.225520041
0.69450,14.38135227
0.69500,22.92679569
0.69550,25.97873976
0.69600,23.5371845
0.69650,21.09562924
0.69700,21.09562924
0.69750,21.40082365
0.69800,17.12810194
0.69850,9.803436157
0.69900,4.00474241
0.69950,3.089159187
0.70000,4.615131226
0.70050,5.530714449
0.70100,4.615131226
0.70150,3.089159187
0.70200,1.868381556
0.70250,0.6476039256
0.70300,-0.8783681129
0.70350,-2.709534559
0.70400,-3.93031219
0.70450,-5.151089821
0.70500,-6.677061859
0.70550,-8.813422713
0.70600,-12.78095001
0.70650,-17.96925494
0.70700,-22.24197665
0.70750,-21.63158784
0.70800,-14.61211646
0.70850,-2.099145744
0.70900,11.02421379
0.70950,21.40082365
0.71000,27.5047118
0.71050,31.1670447
0.71100,33.60859996
0.71150,33.91379437
0.71200,32.08262792
0.71250,28.42029503
0.71300,24.75796213
0.71350,22.62160128
0.71400,24.14757332
0.71450,27.5047118
0.71500,27.5047118
0.71550,21.40082365
0.71600,11.3294082
0.71650,4.920325633
0.71700,3.089159187
0.71750,0.6476039256
0.71800,-6.677061859
0.71850,-16.1380885
0.71900,-19.19003258
0.71950,-13.08614442
0.72000,-3.319923375
0.72050,2.478770372
0.72100,2.478770372
0.72150,-1.183562521
0.72200,-5.761478636
0.72250,-10.03420034
0.72300,-13.08614442
0.72350,-12.47575561
0.72400,-6.982256267
0.72450,-1.183562521
0.72500,-1.488756928
0.72550,-10.03420034
0.72600,-20.1056158
0.72650,-24.68353191
0.72700,-24.98872632
0.72750,-28.0406704
0.72800,-35.06014178
0.72850,-41.46922434
0.72900,-42.07961315
0.72950,-38.41728026
0.73000,-34.75494737
0.73050,-30.78742007
0.73100,-25.90430954
0.73150,-20.71600461
0.73200,-17.96925494
0.73250,-18.27444935
0.73300,-20.1056158
0.73350,-21.02119902
0.73400,-20.1056158
0.73450,-17.05367172
0.73500,-12.78095001
0.73550,-7.592645082
0.73600,-2.404340151
0.73650,-0.8783681129
0.73700,-5.151089821
0.73750,-13.08614442
0.73800,-19.19003258
0.73850,-18.57964376
0.73900,-13.39133883
0.73950,-8.508228305
0.74000,-4.540701005
0.74050,-1.183562521
0.74100,0.03721511018
0.74150,-1.488756928
0.74200,-3.625117782
0.74250,-2.099145744
0.74300,3.394353595
0.74350,7.97226971
0.74400,9.193047341
0.74450,8.887852934
0.74500,9.193047341
0.74550,9.803436157
0.74600,9.498241749
0.74650,7.97226971
0.74700,4.615131226
0.74750,-0.8783681129
0.74800,-6.371867452
0.74850,-6.677061859
0.74900,-2.709534559
0.74950,-0.2679792975
0.75000,-1.183562521
0.75050,-0.8783681129
0.75100,2.783964779
0.75150,6.446297672
0.75200,5.530714449
0.75250,2.478770372
0.75300,3.699548003
0.75350,8.277464118
0.75400,11.93979701
0.75450,13.46576905
0.75500,14.68654668
0.75550,15.2969355
0.75600,12.85538023
0.75650,7.97226971
0.75700,4.309936818
0.75750,2.173575964
0.75800,-1.488756928
0.75850,-7.89783949
0.75900,-12.1705612
0.75950,-10.94978357
0.76000,-6.677061859
0.76050,-2.709534559
0.76100,-0.5731737052
0.76150,-0.2679792975
0.76200,-0.2679792975
0.76250,-1.488756928
0.76300,-3.319923375
0.76350,-5.456284228
0.76400,-8.508228305
0.76450,-11.56017238
0.76500,-11.86536679
0.76550,-8.813422713
0.76600,-4.235506598
0.76650,-0.8783681129
0.76700,-0.2679792975
0.76750,-0.2679792975
0.76800,-0.2679792975
0.76850,0.3424095179
0.76900,4.309936818
0.76950,9.498241749
0.77000,12.24499142
0.77050,9.193047341
0.77100,1.868381556
0.77150,-3.93031219
0.77200,-5.761478636
0.77250,-4.845895413
0.77300,-6.066673044
0.77350,-10.33939475
0.77400,-14.30692205
0.77450,-14.61211646
0.77500,-12.1705612
0.77550,-12.78095001
0.77600,-19.19003258
0.77650,-27.43028158
0.77700,-29.26144803
0.77750,-20.71600461
0.77800,-5.761478636
0.77850,8.277464118
0.77900,17.43329635
0.77950,20.79043483
0.78000,21.40082365
0.78050,21.70601806
0.78100,22.92679569
0.78150,23.2319901
0.78200,21.09562924
0.78250,17.43329635
0.78300,13.16057464
0.78350,8.887852934
0.78400,4.615131226
0.78450,3.394353595
0.78500,9.803436157
0.78550,21.70601806
0.78600,29.03068384
0.78650,24.45276773
0.78700,13.77096346
0.78750,9.193047341
0.78800,14.68654668
0.78850,21.70601806
0.78900,20.79043483
0.78950,13.16057464
0.79000,5.835908857
0.79050,2.173575964
0.79100,-1.488756928
0.79150,-6.371867452
0.79200,-7.89783949
0.79250,-1.488756928
0.79300,10.41382497
0.79350,22.92679569
0.79400,30.25146147
0.79450,29.94626706
0.79500,21.70601806
0.79550,8.887852934
0.79600,-4.540701005
0.79650,-16.74847731
0.79700,-26.20950395
0.79750,-32.31339211
0.79800,-34.44975296
0.79850,-36.28091941
0.79900,-41.46922434
0.79950,-46.35233486
0.80000,-44.52116841
0.80050,-35.975725
0.80100,-28.0406704
0.80150,-24.37833751
0.80200,-18.88483817
0.80250,-6.371867452
0.80300,8.277464118
0.80350,17.12810194
0.80400,18.65407398
0.80450,15.90732431
0.80500,7.97226971
0.80550,-4.845895413
0.80600,-16.74847731
0.80650,-19.19003258
0.80700,-11.86536679
0.80750,-3.625117782
0.80800,0.6476039256
0.80850,1.868381556
0.80900,0.3424095179
0.80950,-4.845895413
0.81000,-12.1705612
0.81050,-16.44328291
0.81100,-17.66406054
0.81150,-20.1056158
0.81200,-23.76794869
0.81250,-24.0731431
0.81300,-18.57964376
0.81350,-12.1705612
0.81400,-8.203033898
0.81450,-6.371867452
0.81500,-4.235506598
0.81550,-2.709534559
0.81600,-3.014728967
0.81650,-2.709534559
0.81700,-2.099145744
0.81750,-2.404340151
0.81800,-3.014728967
0.81850,0.3424095179
0.81900,10.10863056
0.81950,19.2644628
0.82000,22.01121246
0.82050,20.79043483
0.82100,21.40082365
0.82150,22.31640687
0.82200,20.18004602
0.82250,17.12810194
0.82300,18.95926839
0.82350,24.14757332
0.82400,25.06315654
0.82450,20.18004602
0.82500,14.99174109
0.82550,14.38135227
0.82600,14.68654668
0.82650,12.85538023
0.82700,11.02421379
0.82750,12.55018583
0.82800,15.2969355
0.82850,14.38135227
0.82900,8.277464118
0.82950,-0.2679792975
0.83000,-7.89783949
0.83050,-14.00172764
0.83100,-16.44328291
0.83150,-13.69653324
0.83200,-7.592645082
0.83250,-1.488756928
0.83300,1.257992741
0.83350,0.9527983333
0.83400,-0.8783681129
0.83450,-2.099145744
0.83500,-2.404340151
0.83550,-4.540701005
0.83600,-10.94978357
0.83650,-19.49522698
0.83700,-26.81989277
0.83750,-30.78742007
0.83800,-30.48222566
0.83850,-25.59911514
0.83900,-19.19003258
0.83950,-17.66406054
0.84000,-23.15755988
0.84050,-28.0406704
0.84100,-25.59911514
0.84150,-18.57964376
0.84200,-15.22250527
0.84250,-16.1380885
0.84300,-16.1380885
0.84350,-11.86536679
0.84400,-8.203033898
0.84450,-6.982256267
0.84500,-4.845895413
0.84550,-0.5731737052
0.84600,2.478770372
0.84650,0.9527983333
0.84700,-0.8783681129
0.84750,2.173575964
0.84800,9.498241749
0.84850,16.82290753
0.84900,22.31640687
0.84950,26.58912858
0.85000,29.94626706
0.85050,29.64107266
0.85100,25.67354536
0.85150,19.87485161
0.85200,13.16057464
0.85250,7.056686487
0.85300,4.615131226
0.85350,7.97226971
0.85400,11.02421379
0.85450,9.193047341
0.85500,4.309936818
0.85550,3.394353595
0.85600,7.056686487
0.85650,7.667075303
0.85700,1.868381556
0.85750,-4.235506598
0.85800,-6.982256267
0.85850,-8.508228305
0.85900,-12.1705612
0.85950,-15.83289409
0.86000,-15.52769968
0.86050,-12.47575561
0.86100,-9.729005936
0.86150,-8.508228305
0.86200,-7.89783949
0.86250,-8.203033898
0.86300,-8.203033898
0.86350,-4.235506598
0.86400,2.173575964
0.86450,6.446297672
0.86500,5.530714449
0.86550,4.615131226
0.86600,9.803436157
0.86650,18.34887957
0.86700,22.31640687
0.86750,20.79043483
0.86800,17.73849076
0.86850,16.21251872
0.86900,13.46576905
0.86950,9.193047341
0.87000,7.361880895
0.87050,9.803436157
0.87100,12.24499142
0.87150,11.6346026
0.87200,9.193047341
0.87250,8.277464118
0.87300,8.582658526
0.87350,7.056686487
0.87400,3.699548003
0.87450,3.089159187
0.87500,6.446297672
0.87550,9.803436157
0.87600,10.10863056
0.87650,9.803436157
0.87700,11.02421379
0.87750,9.803436157
0.87800,1.563187149
0.87850,-9.118617121
0.87900,-14.61211646
0.87950,-14.61211646
0.88000,-17.66406054
0.88050,-25.29392073
0.88100,-28.95625362
0.88150,-21.32639343
0.88200,-7.592645082
0.88250,2.173575964
0.88300,7.667075303
0.88350,10.71901938
0.88400,8.887852934
0.88450,1.868381556
0.88500,-3.625117782
0.88550,-1.488756928
0.88600,4.920325633
0.88650,8.582658526
0.88700,8.582658526
0.88750,9.803436157
0.88800,11.93979701
0.88850,10.71901938
0.88900,4.309936818
0.88950,-3.319923375
0.89000,-9.423811529
0.89050,-13.69653324
0.89100,-15.22250527
0.89150,-12.1705612
0.89200,-7.287450675
0.89250,-5.456284228
0.89300,-6.677061859
0.89350,-7.592645082
0.89400,-5.151089821
0.89450,-2.709534559
0.89500,-1.183562521
0.89550,-0.2679792975
0.89600,1.868381556
0.89650,3.089159187
0.89700,3.089159187
0.89750,4.920325633
0.89800,9.193047341
0.89850,12.24499142
0.89900,12.24499142
0.89950,11.3294082
0.90000,10.71901938
0.90050,8.582658526
0.90100,3.699548003
0.90150,-0.2679792975
0.90200,-0.5731737052
0.90250,-1.183562521
0.90300,-6.371867452
0.90350,-13.08614442
0.90400,-16.1380885
0.90450,-15.83289409
0.90500,-14.61211646
0.90550,-10.94978357
0.90600,-3.014728967
0.90650,5.225520041
0.90700,7.056686487
0.90750,3.394353595
0.90800,1.868381556
0.90850,2.173575964
0.90900,-2.404340151
0.90950,-11.56017238
0.91000,-14.30692205
0.91050,-5.761478636
0.91100,3.394353595
0.91150,5.530714449
0.91200,5.225520041
0.91250,10.71901938
0.91300,16.51771313
0.91350,12.24499142
0.91400,-3.014728967
0.91450,-20.1056158
0.91500,-33.83936414
0.91550,-44.21597401
0.91600,-50.93025098
0.91650,-51.54063979
0.91700,-47.26791808
0.91750,-41.16402993
0.91800,-32.61858651
0.91850,-19.80042139
0.91900,-5.761478636
0.91950,3.089159187
0.92000,7.361880895
0.92050,11.6346026
0.92100,18.04368516
0.92150,23.84237891
0.92200,26.89432299
0.92250,27.5047118
0.92300,27.5047118
0.92350,27.1995174
0.92400,28.11510062
0.92450,29.94626706
0.92500,29.33587825
0.92550,23.5371845
0.92600,16.82290753
0.92650,13.46576905
0.92700,12.85538023
0.92750,11.02421379
0.92800,8.887852934
0.92850,9.803436157
0.92900,11.93979701
0.92950,10.10863056
0.93000,3.394353595
0.93050,-4.235506598
0.93100,-10.03420034
0.93150,-14.00172764
0.93200,-14.91731087
0.93250,-11.25497797
0.93300,-3.93031219
0.93350,1.257992741
0.93400,0.3424095179
0.93450,-6.982256267
0.93500,-16.1380885
0.93550,-19.19003258
0.93600,-11.25497797
0.93650,2.478770372
0.93700,10.71901938
0.93750,8.887852934
0.93800,3.394353595
0.93850,2.783964779
0.93900,6.75149208
0.93950,8.887852934
0.94000,9.498241749
0.94050,11.3294082
0.94100,14.68654668
0.94150,15.90732431
0.94200,16.21251872
0.94250,20.48524043
0.94300,27.80990621
0.94350,32.69301673
0.94400,32.08262792
0.94450,28.11510062
0.94500,20.79043483
0.94550,7.667075303
0.94600,-7.287450675
0.94650,-15.52769968
0.94700,-14.30692205
0.94750,-9.118617121
0.94800,-5.456284228
0.94850,-1.183562521
0.94900,5.225520041
0.94950,9.193047341
0.95000,5.835908857
0.95050,1.563187149
0.95100,2.783964779
0.95150,6.446297672
0.95200,4.920325633
0.95250,-0.2679792975
0.95300,-0.2679792975
0.95350,4.920325633
0.95400,8.277464118
0.95450,4.309936818
0.95500,-0.8783681129
0.95550,-2.709534559
0.95600,-3.014728967
0.95650,-6.066673044
0.95700,-8.813422713
0.95750,-7.287450675
0.95800,-3.93031219
0.95850,-5.151089821
0.95900,-10.03420034
0.95950,-11.56017238
0.96000,-8.813422713
0.96050,-6.677061859
0.96100,-7.592645082
0.96150,-8.813422713
0.96200,-6.677061859
0.96250,-2.709534559
0.96300,0.9527983333
0.96350,3.394353595
0.96400,3.089159187
0.96450,-1.183562521
0.96500,-7.89783949
0.96550,-11.25497797
0.96600,-6.982256267
0.96650,0.03721511018
0.96700,3.699548003
0.96750,-0.2679792975
0.96800,-10.33939475
0.96850,-18.57964376
0.96900,-20.1056158
0.96950,-17.96925494
0.97000,-20.41081021
0.97050,-29.26144803
0.97100,-37.19650263
0.97150,-37.19650263
0.97200,-31.70300329
0.97250,-26.81989277
0.97300,-23.76794869
0.97350,-20.41081021
0.97400,-17.66406054
0.97450,-17.96925494
0.97500,-17.96925494
0.97550,-13.69653324
0.97600,-6.982256267
0.97650,-5.456284228
0.97700,-9.423811529
0.97750,-11.86536679
0.97800,-8.813422713
0.97850,-5.456284228
0.97900,-4.845895413
0.97950,-3.625117782
0.98000,-0.2679792975
0.98050,1.257992741
0.98100,-3.319923375
0.98150,-10.33939475
0.98200,-11.56017238
0.98250,-6.677061859
0.98300,-0.5731737052
0.98350,4.00474241
0.98400,8.277464118
0.98450,11.6346026
0.98500,12.24499142
0.98550,11.93979701
0.98600,12.85538023
0.98650,14.38135227
0.98700,13.16057464
0.98750,8.277464118
0.98800,2.173575964
0.98850,-0.8783681129
0.98900,-0.8783681129
0.98950,0.3424095179
0.99000,2.478770372
0.99050,5.530714449
0.99100,11.3294082
0.99150,18.95926839
0.99200,23.84237891
0.99250,22.31640687
0.99300,16.21251872
0.99350,10.41382497
0.99400,5.835908857
0.99450,-0.2679792975
0.99500,-8.203033898
0.99550,-14.61211646
0.99600,-16.74847731
0.99650,-16.1380885
0.99700,-13.69653324
0.99750,-9.423811529
0.99800,-6.371867452
0.99850,-8.813422713
0.99900,-15.22250527
0.99950,-16.44328291
1.00000,-8.813422713
1.00050,-1.183562521
1.00100,-2.404340151
1.00150,-6.982256267
1.00200,-5.456284228
1.00250,3.089159187
1.00300,10.71901938
1.00350,14.68654668
1.00400,19.5696572
1.00450,25.97873976
1.00500,29.94626706
1.00550,28.72548943
1.00600,25.36835095
1.00650,22.92679569
1.00700,19.2644628
1.00750,13.77096346
1.00800,8.887852934
1.00850,6.75149208
1.00900,6.141103264
1.00950,5.225520041
1.01000,4.920325633
1.01050,6.75149208
1.01100,11.02421379
1.01150,15.6021299
1.01200,19.2644628
1.01250,20.79043483
1.01300,19.87485161
1.01350,17.73849076
1.01400,15.90732431
1.01450,14.99174109
1.01500,14.38135227
1.01550,12.55018583
1.01600,8.582658526
1.01650,2.478770372
1.01700,-2.404340151
1.01750,-2.404340151
1.01800,1.257992741
1.01850,3.394353595
1.01900,0.6476039256
1.01950,-4.845895413
1.02000,-11.56017238
1.02050,-19.80042139
1.02100,-28.34586481
1.02150,-31.39780888
1.02200,-25.29392073
1.02250,-14.30692205
1.02300,-6.677061859
1.02350,-4.845895413
1.02400,-4.540701005
1.02450,-3.625117782
1.02500,-5.456284228
1.02550,-12.78095001
1.02600,-21.93678224
1.02650,-24.68353191
1.02700,-17.05367172
1.02750,-4.845895413
1.02800,3.089159187
1.02850,3.699548003
1.02900,0.3424095179
1.02950,-3.625117782
1.03000,-8.813422713
1.03050,-15.52769968
1.03100,-20.41081021
1.03150,-20.71600461
1.03200,-18.57964376
1.03250,-16.1380885
1.03300,-11.25497797
1.03350,-1.488756928
1.03400,9.193047341
1.03450,15.2969355
1.03500,15.90732431
1.03550,14.68654668
1.03600,13.77096346
1.03650,11.6346026
1.03700,9.498241749
1.03750,7.361880895
1.03800,2.783964779
1.03850,-4.235506598
1.03900,-7.89783949
1.03950,-2.404340151
1.04000,7.056686487
1.04050,11.3294082
1.04100,8.277464118
1.04150,4.309936818
1.04200,2.783964779
1.04250,-0.2679792975
1.04300,-5.761478636
1.04350,-11.86536679
1.04400,-14.00172764
1.04450,-14.00172764
1.04500,-13.08614442
1.04550,-11.86536679
1.04600,-12.1705612
1.04650,-15.83289409
1.04700,-20.71600461
1.04750,-20.1056158
1.04800,-10.94978357
1.04850,1.563187149
1.04900,9.803436157
1.04950,10.41382497
1.05000,5.835908857
1.05050,0.6476039256
1.05100,-1.793951336
1.05150,-0.8783681129
1.05200,2.173575964
1.05250,6.141103264
1.05300,9.498241749
1.05350,13.77096346
1.05400,18.04368516
1.05450,18.65407398
1.05500,13.77096346
1.05550,8.582658526
1.05600,11.3294082
1.05650,22.62160128
1.05700,33.30340555
1.05750,34.82937759
1.05800,29.03068384
1.05850,25.67354536
1.05900,28.11510062
1.05950,30.55665588
1.06000,27.1995174
1.06050,18.65407398
1.06100,7.667075303
1.06150,-3.93031219
1.06200,-15.52769968
1.06250,-24.0731431
1.06300,-27.12508718
1.06350,-27.43028158
1.06400,-28.34586481
1.06450,-28.65105921
1.06500,-23.15755988
1.06550,-13.39133883
1.06600,-5.761478636
1.06650,-3.625117782
1.06700,-3.014728967
1.06750,-0.8783681129
1.06800,2.173575964
1.06850,3.089159187
1.06900,1.868381556
1.06950,0.9527983333
1.07000,2.173575964
1.07050,5.530714449
1.07100,11.02421379
1.07150,16.51771313
1.07200,19.5696572
1.07250,19.2644628
1.07300,18.65407398
1.07350,18.95926839
1.07400,18.04368516
1.07450,14.99174109
1.07500,11.6346026
1.07550,9.498241749
1.07600,7.361880895
1.07650,3.699548003
1.07700,1.868381556
1.07750,2.783964779
1.07800,2.478770372
1.07850,-3.625117782
1.07900,-14.00172764
1.07950,-22.24197665
1.08000,-24.98872632
1.08050,-25.90430954
1.08100,-27.43028158
1.08150,-28.34586481
1.08200,-28.95625362
1.08250,-29.56664244
1.08300,-30.48222566
1.08350,-28.34586481
1.08400,-22.85236547
1.08450,-17.66406054
1.08500,-15.22250527
1.08550,-15.52769968
1.08600,-15.22250527
1.08650,-11.56017238
1.08700,-3.625117782
1.08750,5.225520041
1.08800,10.10863056
1.08850,8.887852934
1.08900,4.615131226
1.08950,2.783964779
1.09000,4.00474241
1.09050,6.141103264
1.09100,8.887852934
1.09150,11.6346026
1.09200,11.02421379
1.09250,3.699548003
1.09300,-7.592645082
1.09350,-17.35886613
1.09400,-22.24197665
1.09450,-24.0731431
1.09500,-24.0731431
1.09550,-21.32639343
1.09600,-15.83289409
1.09650,-9.118617121
1.09700,-3.625117782
1.09750,0.03721511018
1.09800,3.394353595
1.09850,5.835908857
1.09900,8.582658526
1.09950,10.71901938
1.10000,10.41382497
1.10050,5.225520041
1.10100,-0.2679792975
1.10150,-2.099145744
1.10200,0.3424095179
1.10250,3.089159187
1.10300,3.699548003
1.10350,3.699548003
1.10400,4.615131226
1.10450,4.615131226
1.10500,3.699548003
1.10550,4.920325633
1.10600,9.498241749
1.10650,14.38135227
1.10700,17.12810194
1.10750,19.87485161
1.10800,23.84237891
1.10850,26.58912858
1.10900,26.89432299
1.10950,25.67354536
1.11000,25.36835095
1.11050,23.2319901
1.11100,16.21251872
1.11150,8.277464118
1.11200,7.056686487
1.11250,14.99174109
1.11300,25.97873976
1.11350,32.38782233
1.11400,31.4722391
1.11450,26.58912858
1.11500,20.79043483
1.11550,13.77096346
1.11600,4.615131226
1.11650,-4.540701005
1.11700,-13.08614442
1.11750,-20.1056158
1.11800,-27.12508718
1.11850,-34.14455855
1.11900,-38.41728026
1.11950,-39.63805789
1.12000,-40.85883552
1.12050,-42.69000197
1.12100,-41.77441874
1.12150,-35.67053059
1.12200,-26.51469836
1.12250,-18.27444935
1.12300,-9.423811529
1.12350,2.783964779
1.12400,16.21251872
1.12450,22.62160128
1.12500,20.18004602
1.12550,16.82290753
1.12600,18.34887957
1.12650,21.70601806
1.12700,22.01121246
1.12750,19.5696572
1.12800,18.04368516
1.12850,16.51771313
1.12900,12.55018583
1.12950,7.361880895
1.13000,6.75149208
1.13050,11.02421379
1.13100,13.16057464
1.13150,7.97226971
1.13200,-1.793951336
1.13250,-10.33939475
1.13300,-14.91731087
1.13350,-16.1380885
1.13400,-16.44328291
1.13450,-17.05367172
1.13500,-18.57964376
1.13550,-21.63158784
1.13600,-24.0731431
1.13650,-22.85236547
1.13700,-18.27444935
1.13750,-13.39133883
1.13800,-10.33939475
1.13850,-9.118617121
1.13900,-8.508228305
1.13950,-9.423811529
1.14000,-12.78095001
1.14050,-17.35886613
1.14100,-19.49522698
1.14150,-17.96925494
1.14200,-16.44328291
1.14250,-16.44328291
1.14300,-16.74847731
1.14350,-16.74847731
1.14400,-17.35886613
1.14450,-17.35886613
1.14500,-11.56017238
1.14550,2.173575964
1.14600,19.2644628
1.14650,30.25146147
1.14700,33.91379437
1.14750,34.21898877
1.14800,33.60859996
1.14850,29.03068384
1.14900,21.70601806
1.14950,18.04368516
1.15000,22.31640687
1.15050,31.4722391
1.15100,37.88132167
1.15150,37.27093285
1.15200,30.86185029
1.15250,22.62160128
1.15300,15.2969355
1.15350,9.193047341
1.15400,4.00474241
1.15450,0.03721511018
1.15500,-1.488756928
1.15550,-0.5731737052
1.15600,1.257992741
1.15650,0.9527983333
1.15700,-3.014728967
1.15750,-10.03420034
1.15800,-16.1380885
1.15850,-19.80042139
1.15900,-21.02119902
1.15950,-22.24197665
1.16000,-24.37833751
1.16050,-27.43028158
1.16100,-29.56664244
1.16150,-29.56664244
1.16200,-27.12508718
1.16250,-21.63158784
1.16300,-13.69653324
1.16350,-6.371867452
1.16400,-4.845895413
1.16450,-8.508228305
1.16500,-12.1705612
1.16550,-11.86536679
1.16600,-9.423811529
1.16650,-6.982256267
1.16700,-4.540701005
1.16750,-1.488756928
1.16800,-0.5731737052
1.16850,-4.235506598
1.16900,-9.423811529
1.16950,-10.94978357
1.17000,-8.508228305
1.17050,-6.371867452
1.17100,-6.677061859
1.17150,-6.066673044
1.17200,-3.014728967
1.17250,1.257992741
1.17300,4.920325633
1.17350,6.446297672
1.17400,6.446297672
1.17450,4.920325633
1.17500,2.783964779
1.17550,2.173575964
1.17600,3.699548003
1.17650,7.056686487
1.17700,9.498241749
1.17750,8.277464118
1.17800,4.00474241
1.17850,0.9527983333
1.17900,3.699548003
1.17950,11.6346026
1.18000,18.95926839
1.18050,19.87485161
1.18100,14.07615786
1.18150,7.056686487
1.18200,3.394353595
1.18250,2.783964779
1.18300,1.868381556
1.18350,-0.5731737052
1.18400,-2.709534559
1.18450,0.3424095179
1.18500,10.71901938
1.18550,20.79043483
1.18600,21.40082365
1.18650,14.99174109
1.18700,11.93979701
1.18750,18.04368516
1.18800,26.28393417
1.18850,29.03068384
1.18900,29.03068384
1.18950,33.30340555
1.19000,40.01768252
1.19050,40.93326574
1.19100,34.21898877
1.19150,26.28393417
1.19200,21.40082365
1.19250,17.43329635
1.19300,12.85538023
1.19350,10.41382497
1.19400,10.41382497
1.19450,8.277464118
1.19500,3.089159187
1.19550,-1.793951336
1.19600,-4.845895413
1.19650,-7.592645082
1.19700,-11.86536679
1.19750,-16.44328291
1.19800,-19.19003258
1.19850,-21.32639343
1.19900,-24.98872632
1.19950,-29.56664244
1.20000,-32.31339211
1.20050,-31.39780888
1.20100,-27.12508718
1.20150,-21.32639343
1.20200,-15.83289409
1.20250,-12.47575561
1.20300,-10.33939475
1.20350,-9.118617121
1.20400,-8.813422713
1.20450,-10.03420034
1.20500,-10.94978357
1.20550,-10.64458916
1.20600,-8.813422713
1.20650,-6.677061859
1.20700,-3.93031219
1.20750,-0.2679792975
1.20800,1.868381556
1.20850,2.173575964
1.20900,2.783964779
1.20950,5.835908857
1.21000,8.277464118
1.21050,6.446297672
1.21100,1.563187149
1.21150,-1.793951336
1.21200,-3.93031219
1.21250,-6.982256267
1.21300,-10.64458916
1.21350,-11.56017238
1.21400,-7.287450675
1.21450,-0.5731737052
1.21500,6.141103264
1.21550,11.93979701
1.21600,16.51771313
1.21650,17.43329635
1.21700,14.38135227
1.21750,9.193047341
1.21800,4.00474241
1.21850,-0.2679792975
1.21900,-3.625117782
1.21950,-3.625117782
1.22000,1.563187149
1.22050,9.803436157
1.22100,16.21251872
1.22150,18.65407398
1.22200,17.43329635
1.22250,14.99174109
1.22300,11.6346026
1.22350,5.835908857
1.22400,-2.709534559
1.22450,-12.1705612
1.22500,-18.27444935
1.22550,-20.71600461
1.22600,-21.93678224
1.22650,-24.68353191
1.22700,-28.34586481
1.22750,-30.78742007
1.22800,-31.70300329
1.22850,-31.70300329
1.22900,-29.26144803
1.22950,-24.37833751
1.23000,-19.80042139
1.23050,-19.19003258
1.23100,-22.54717106
1.23150,-25.59911514
1.23200,-23.46275428
1.23250,-16.74847731
1.23300,-11.56017238
1.23350,-12.47575561
1.23400,-18.88483817
1.23450,-24.0731431
1.23500,-21.93678224
1.23550,-12.78095001
1.23600,-2.099145744
1.23650,5.225520041
1.23700,10.41382497
1.23750,15.2969355
1.23800,20.18004602
1.23850,24.75796213
1.23900,28.11510062
1.23950,30.25146147
1.24000,33.30340555
1.24050,39.1020993
1.24100,45.81637627
1.24150,48.56312593
1.24200,46.42676508
1.24250,43.98520982
1.24300,43.98520982
1.24350,43.98520982
1.24400,40.32287693
1.24450,32.99821114
1.24500,25.36835095
1.24550,17.73849076
1.24600,9.803436157
1.24650,4.00474241
1.24700,1.257992741
1.24750,-3.319923375
1.24800,-16.1380885
1.24850,-33.22897533
1.24900,-44.21597401
1.24950,-45.74194605
1.25000,-43.9107796
1.25050,-42.99519638
1.25100,-41.16402993
1.25150,-36.89130822
1.25200,-32.92378092
1.25250,-29.26144803
1.25300,-22.24197665
1.25350,-11.25497797
1.25400,-2.404340151
1.25450,-1.793951336
1.25500,-6.371867452
1.25550,-8.813422713
1.25600,-6.066673044
1.25650,-0.8783681129
1.25700,2.173575964
1.25750,2.478770372
1.25800,-1.183562521
1.25850,-7.89783949
1.25900,-13.39133883
1.25950,-14.30692205
1.26000,-10.64458916
1.26050,-4.845895413
1.26100,0.6476039256
1.26150,3.699548003
1.26200,2.478770372
1.26250,-0.5731737052
1.26300,-2.404340151
1.26350,-1.793951336
1.26400,-2.709534559
1.26450,-9.423811529
1.26500,-18.27444935
1.26550,-20.71600461
1.26600,-10.64458916
1.26650,6.75149208
1.26700,22.31640687
1.26750,29.94626706
1.26800,31.4722391
1.26850,30.86185029
1.26900,29.03068384
1.26950,25.36835095
1.27000,20.79043483
1.27050,17.12810194
1.27100,15.6021299
1.27150,14.38135227
1.27200,13.16057464
1.27250,11.93979701
1.27300,10.71901938
1.27350,9.193047341
1.27400,8.582658526
1.27450,9.803436157
1.27500,9.803436157
1.27550,6.141103264
1.27600,0.03721511018
1.27650,-5.456284228
1.27700,-11.56017238
1.27750,-21.02119902
1.27800,-33.83936414
1.27850,-44.52116841
1.27900,-49.70947335
1.27950,-49.70947335
1.28000,-47.57311249
1.28050,-43.60558519
1.28100,-38.11208585
1.28150,-32.31339211
1.28200,-27.12508718
1.28250,-21.02119902
1.28300,-13.69653324
1.28350,-6.677061859
1.28400,-1.488756928
1.28450,1.563187149
1.28500,5.225520041
1.28550,9.803436157
1.28600,15.6021299
1.28650,21.70601806
1.28700,25.67354536
1.28750,24.75796213
1.28800,19.2644628
1.28850,14.38135227
1.28900,13.77096346
1.28950,17.73849076
1.29000,23.84237891
1.29050,29.33587825
1.29100,32.99821114
1.29150,32.38782233
1.29200,26.28393417
1.29250,16.51771313
1.29300,6.141103264
1.29350,-1.793951336
1.29400,-7.592645082
1.29450,-10.94978357
1.29500,-12.78095001
1.29550,-14.30692205
1.29600,-16.74847731
1.29650,-21.32639343
1.29700,-26.81989277
1.29750,-29.87183684
1.29800,-28.0406704
1.29850,-22.54717106
1.29900,-14.91731087
1.29950,-3.625117782
1.30000,9.193047341
1.30050,18.04368516
1.30100,18.95926839
1.30150,16.51771313
1.30200,19.5696572
1.30250,29.03068384
1.30300,36.35534963
1.30350,34.21898877
1.30400,26.58912858
1.30450,20.48524043
1.30500,15.90732431
1.30550,8.887852934
1.30600,-1.488756928
1.30650,-10.64458916
1.30700,-13.39133883
1.30750,-10.33939475
1.30800,-5.761478636
1.30850,-5.151089821
1.30900,-7.89783949
1.30950,-5.456284228
1.31000,5.225520041
1.31050,17.12810194
1.31100,18.95926839
1.31150,12.55018583
1.31200,11.3294082
1.31250,20.18004602
1.31300,28.72548943
1.31350,27.1995174
1.31400,20.18004602
1.31450,16.51771313
1.31500,15.2969355
1.31550,11.3294082
1.31600,4.920325633
1.31650,-0.2679792975
1.31700,-6.066673044
1.31750,-15.52769968
1.31800,-24.37833751
1.31850,-25.59911514
1.31900,-20.71600461
1.31950,-18.27444935
1.32000,-18.88483817
1.32050,-17.66406054
1.32100,-13.39133883
1.32150,-11.86536679
1.32200,-14.30692205
1.32250,-15.83289409
1.32300,-14.91731087
1.32350,-16.1380885
1.32400,-20.41081021
1.32450,-22.54717106
1.32500,-19.19003258
1.32550,-14.61211646
1.32600,-14.30692205
1.32650,-16.74847731
1.32700,-17.96925494
1.32750,-17.96925494
1.32800,-19.19003258
1.32850,-21.93678224
1.32900,-23.46275428
1.32950,-24.0731431
1.33000,-24.98872632
1.33050,-25.29392073
1.33100,-22.85236547
1.33150,-18.57964376
1.33200,-14.91731087
1.33250,-12.78095001
1.33300,-9.729005936
1.33350,-4.540701005
1.33400,0.9527983333
1.33450,3.699548003
1.33500,4.920325633
1.33550,7.667075303
1.33600,12.85538023
1.33650,18.95926839
1.33700,23.2319901
1.33750,24.75796213
1.33800,23.2319901
1.33850,18.65407398
1.33900,13.77096346
1.33950,13.46576905
1.34000,18.95926839
1.34050,24.45276773
1.34100,22.31640687
1.34150,11.6346026
1.34200,-1.793951336
1.34250,-11.86536679
1.34300,-16.1380885
1.34350,-15.22250527
1.34400,-11.86536679
1.34450,-8.813422713
1.34500,-8.813422713
1.34550,-10.94978357
1.34600,-10.64458916
1.34650,-6.371867452
1.34700,-0.2679792975
1.34750,5.530714449
1.34800,10.71901938
1.34850,16.51771313
1.34900,19.87485161
1.34950,17.43329635
1.35000,10.10863056
1.35050,3.089159187
1.35100,0.03721511018
1.35150,-1.183562521
1.35200,-2.404340151
1.35250,-1.793951336
1.35300,1.563187149
1.35350,5.225520041
1.35400,4.00474241
1.35450,-1.183562521
1.35500,-6.371867452
1.35550,-11.86536679
1.35600,-20.71600461
1.35650,-32.0081977
1.35700,-37.80689144
1.35750,-32.61858651
1.35800,-22.54717106
1.35850,-15.52769968
1.35900,-12.47575561
1.35950,-7.592645082
1.36000,-0.2679792975
1.36050,4.615131226
1.36100,5.530714449
1.36150,5.530714449
1.36200,6.141103264
1.36250,4.920325633
1.36300,3.394353595
1.36350,4.920325633
1.36400,8.582658526
1.36450,9.193047341
1.36500,4.920325633
1.36550,0.03721511018
1.36600,-2.404340151
1.36650,-6.982256267
1.36700,-13.69653324
1.36750,-15.22250527
1.36800,-6.982256267
1.36850,4.615131226
1.36900,10.71901938
1.36950,11.6346026
1.37000,13.77096346
1.37050,18.04368516
1.37100,18.34887957
1.37150,14.07615786
1.37200,13.16057464
1.37250,21.40082365
1.37300,33.60859996
1.37350,40.93326574
1.37400,41.23846015
1.37450,37.88132167
1.37500,35.4397664
1.37550,35.74496081
1.37600,37.27093285
1.37650,38.79690489
1.37700,40.32287693
1.37750,41.84884897
1.37800,41.54365456
1.37850,36.35534963
1.37900,26.89432299
1.37950,17.12810194
1.38000,8.887852934
1.38050,1.257992741
1.38100,-6.066673044
1.38150,-11.25497797
1.38200,-13.69653324
1.38250,-15.83289409
1.38300,-18.88483817
1.38350,-17.05367172
1.38400,-7.287450675
1.38450,4.309936818
1.38500,9.193047341
1.38550,4.920325633
1.38600,-1.183562521
1.38650,-5.456284228
1.38700,-8.203033898
1.38750,-11.86536679
1.38800,-16.44328291
1.38850,-20.41081021
1.38900,-24.37833751
1.38950,-28.65105921
1.39000,-32.31339211
1.39050,-33.22897533
1.39100,-30.48222566
1.39150,-24.68353191
1.39200,-19.49522698
1.39250,-18.57964376
1.39300,-22.24197665
1.39350,-26.81989277
1.39400,-27.12508718
1.39450,-22.24197665
1.39500,-14.00172764
1.39550,-3.93031219
1.39600,5.835908857
1.39650,12.85538023
1.39700,15.90732431
1.39750,15.6021299
1.39800,12.24499142
1.39850,5.530714449
1.39900,-1.183562521
1.39950,-2.404340151
1.40000,3.394353595
1.40050,10.10863056
1.40100,9.803436157
1.40150,2.173575964
1.40200,-6.982256267
1.40250,-15.52769968
1.40300,-21.63158784
1.40350,-23.76794869
1.40400,-20.71600461
1.40450,-17.96925494
1.40500,-19.80042139
1.40550,-24.98872632
1.40600,-29.26144803
1.40650,-34.44975296
1.40700,-43.9107796
1.40750,-53.98219505
1.40800,-54.59258387
1.40850,-41.46922434
1.40900,-21.93678224
1.40950,-7.287450675
1.41000,0.3424095179
1.41050,7.97226971
1.41100,19.2644628
1.41150,30.55665588
1.41200,35.4397664
1.41250,31.77743351
1.41300,25.06315654
1.41350,21.40082365
1.41400,20.79043483
1.41450,17.73849076
1.41500,10.41382497
1.41550,1.563187149
1.41600,-5.456284228
1.41650,-12.47575561
1.41700,-18.88483817
1.41750,-20.71600461
1.41800,-14.61211646
1.41850,-3.93031219
1.41900,2.783964779
1.41950,1.868381556
1.42000,-2.404340151
1.42050,-3.625117782
1.42100,2.173575964
1.42150,14.07615786
1.42200,24.45276773
1.42250,27.5047118
1.42300,23.5371845
1.42350,18.65407398
1.42400,17.73849076
1.42450,18.34887957
1.42500,16.82290753
1.42550,13.77096346
1.42600,14.99174109
1.42650,22.31640687
1.42700,30.55665588
1.42750,32.99821114
1.42800,27.5047118
1.42850,18.95926839
1.42900,12.85538023
1.42950,11.02421379
1.43000,9.193047341
1.43050,4.615131226
1.43100,-0.5731737052
1.43150,-3.625117782
1.43200,-3.625117782
1.43250,-4.540701005
1.43300,-7.89783949
1.43350,-11.86536679
1.43400,-13.69653324
1.43450,-14.00172764
1.43500,-13.39133883
1.43550,-10.33939475
1.43600,-3.014728967
1.43650,5.530714449
1.43700,11.02421379
1.43750,11.02421379
1.43800,7.361880895
1.43850,4.309936818
1.43900,3.699548003
1.43950,6.141103264
1.44000,10.71901938
1.44050,15.2969355
1.44100,16.82290753
1.44150,14.38135227
1.44200,8.887852934
1.44250,3.699548003
1.44300,-0.2679792975
1.44350,-3.93031219
1.44400,-6.982256267
1.44450,-8.813422713
1.44500,-8.813422713
1.44550,-7.89783949
1.44600,-8.508228305
1.44650,-10.94978357
1.44700,-14.00172764
1.44750,-14.61211646
1.44800,-13.08614442
1.44850,-10.64458916
1.44900,-8.203033898
1.44950,-5.761478636
1.45000,-2.709534559
1.45050,0.9527983333
1.45100,4.309936818
1.45150,5.835908857
1.45200,5.530714449
1.45250,5.225520041
1.45300,7.056686487
1.45350,9.498241749
1.45400,11.3294082
1.45450,11.93979701
1.45500,12.85538023
1.45550,12.24499142
1.45600,7.361880895
1.45650,0.6476039256
1.45700,-1.488756928
1.45750,1.563187149
1.45800,3.089159187
1.45850,-3.93031219
1.45900,-15.52769968
1.45950,-20.71600461
1.46000,-16.1380885
1.46050,-9.118617121
1.46100,-3.625117782
1.46150,0.9527983333
1.46200,5.225520041
1.46250,4.920325633
1.46300,1.257992741
1.46350,4.615131226
1.46400,18.95926839
1.46450,33.60859996
1.46500,36.35534963
1.46550,29.33587825
1.46600,23.5371845
1.46650,21.09562924
1.46700,13.77096346
1.46750,0.9527983333
1.46800,-6.066673044
1.46850,-2.404340151
1.46900,0.6476039256
1.46950,-7.89783949
1.47000,-25.90430954
1.47050,-39.33286348
1.47100,-41.77441874
1.47150,-37.80689144
1.47200,-32.31339211
1.47250,-25.90430954
1.47300,-18.88483817
1.47350,-14.00172764
1.47400,-13.08614442
1.47450,-13.08614442
1.47500,-11.56017238
1.47550,-9.729005936
1.47600,-10.33939475
1.47650,-11.86536679
1.47700,-8.508228305
1.47750,1.868381556
1.47800,15.90732431
1.47850,25.36835095
1.47900,25.67354536
1.47950,20.48524043
1.48000,16.82290753
1.48050,16.82290753
1.48100,15.2969355
1.48150,7.361880895
1.48200,-6.677061859
1.48250,-20.71600461
1.48300,-27.12508718
1.48350,-24.37833751
1.48400,-17.35886613
1.48450,-12.47575561
1.48500,-10.03420034
1.48550,-3.93031219
1.48600,10.41382497
1.48650,26.89432299
1.48700,35.4397664
1.48750,32.99821114
1.48800,25.97873976
1.48850,19.2644628
1.48900,14.38135227
1.48950,11.3294082
1.49000,12.85538023
1.49050,15.2969355
1.49100,11.02421379
1.49150,-0.8783681129
1.49200,-12.47575561
1.49250,-16.1380885
1.49300,-16.74847731
1.49350,-21.93678224
1.49400,-30.17703125
1.49450,-34.14455855
1.49500,-32.61858651
1.49550,-29.26144803
1.49600,-24.0731431
1.49650,-14.00172764
1.49700,-1.793951336
1.49750,4.920325633
1.49800,6.75149208
1.49850,11.3294082
1.49900,20.48524043
1.49950,26.28393417
1.50000,24.75796213
1.50050,24.75796213
1.50100,32.99821114
1.50150,41.84884897
1.50200,38.18651607
1.50250,22.01121246
1.50300,5.835908857
1.50350,-1.793951336
1.50400,-3.625117782
1.50450,-2.709534559
1.50500,0.6476039256
1.50550,6.446297672
1.50600,11.02421379
1.50650,13.16057464
1.50700,15.6021299
1.50750,18.95926839
1.50800,17.73849076
1.50850,8.277464118
1.50900,-3.319923375
1.50950,-9.118617121
1.51000,-5.456284228
1.51050,4.00474241
1.51100,14.68654668
1.51150,23.5371845
1.51200,28.72548943
1.51250,28.42029503
1.51300,22.31640687
1.51350,11.93979701
1.51400,-1.488756928
1.51450,-16.1380885
1.51500,-29.26144803
1.51550,-40.24844671
1.51600,-49.40427894
1.51650,-55.8133615
1.51700,-54.28738946
1.51750,-42.69000197
1.51800,-24.98872632
1.51850,-10.94978357
1.51900,-6.371867452
1.51950,-8.508228305
1.52000,-10.33939475
1.52050,-9.118617121
1.52100,-6.982256267
1.52150,-7.592645082
1.52200,-10.03420034
1.52250,-11.56017238
1.52300,-10.33939475
1.52350,-7.592645082
1.52400,-4.235506598
1.52450,-0.8783681129
1.52500,0.03721511018
1.52550,-1.793951336
1.52600,-6.066673044
1.52650,-9.423811529
1.52700,-10.94978357
1.52750,-11.56017238
1.52800,-13.39133883
1.52850,-14.61211646
1.52900,-14.00172764
1.52950,-13.08614442
1.53000,-10.94978357
1.53050,-3.93031219
1.53100,9.193047341
1.53150,22.31640687
1.53200,25.97873976
1.53250,20.79043483
1.53300,13.77096346
1.53350,10.41382497
1.53400,7.361880895
1.53450,3.089159187
1.53500,0.3424095179
1.53550,0.3424095179
1.53600,-0.5731737052
1.53650,-6.371867452
1.53700,-12.1705612
1.53750,-11.86536679
1.53800,-5.761478636
1.53850,0.6476039256
1.53900,6.141103264
1.53950,11.3294082
1.54000,15.2969355
1.54050,15.90732431
1.54100,12.85538023
1.54150,7.667075303
1.54200,-0.2679792975
1.54250,-10.64458916
1.54300,-18.27444935
1.54350,-15.83289409
1.54400,-3.93031219
1.54450,8.277464118
1.54500,14.68654668
1.54550,15.2969355
1.54600,11.93979701
1.54650,4.00474241
1.54700,-5.456284228
1.54750,-10.33939475
1.54800,-7.287450675
1.54850,-0.8783681129
1.54900,2.173575964
1.54950,0.9527983333
1.55000,-3.014728967
1.55050,-9.729005936
1.55100,-17.66406054
1.55150,-23.15755988
1.55200,-25.90430954
1.55250,-30.78742007
1.55300,-39.02766908
1.55350,-42.38480756
1.55400,-35.975725
1.55450,-26.20950395
1.55500,-23.76794869
1.55550,-25.59911514
1.55600,-19.49522698
1.55650,-2.709534559
1.55700,12.55018583
1.55750,17.73849076
1.55800,15.2969355
1.55850,12.24499142
1.55900,10.71901938
1.55950,8.887852934
1.56000,7.056686487
1.56050,7.056686487
1.56100,10.41382497
1.56150,17.43329635
1.56200,27.5047118
1.56250,36.05015522
1.56300,38.49171048
1.56350,36.35534963
1.56400,34.82937759
1.56450,34.82937759
1.56500,30.86185029
1.56550,20.48524043
1.56600,10.41382497
1.56650,6.446297672
1.56700,7.056686487
1.56750,7.056686487
1.56800,4.920325633
1.56850,1.257992741
1.56900,-1.793951336
1.56950,-5.151089821
1.57000,-7.592645082
1.57050,-10.33939475
1.57100,-14.00172764
1.57150,-17.96925494
1.57200,-18.88483817
1.57250,-16.1380885
1.57300,-12.78095001
1.57350,-11.25497797
1.57400,-10.03420034
1.57450,-8.813422713
1.57500,-10.94978357
1.57550,-16.74847731
1.57600,-21.93678224
1.57650,-21.32639343
1.57700,-15.83289409
1.57750,-10.94978357
1.57800,-8.813422713
1.57850,-8.203033898
1.57900,-6.982256267
1.57950,-5.761478636
1.58000,-7.287450675
1.58050,-11.25497797
1.58100,-17.35886613
1.58150,-23.46275428
1.58200,-27.43028158
1.58250,-27.12508718
1.58300,-21.93678224
1.58350,-13.39133883
1.58400,-4.540701005
1.58450,1.257992741
1.58500,4.615131226
1.58550,6.141103264
1.58600,6.141103264
1.58650,5.530714449
1.58700,4.309936818
1.58750,3.699548003
1.58800,4.309936818
1.58850,4.615131226
1.58900,4.309936818
1.58950,4.309936818
1.59000,6.75149208
1.59050,10.71901938
1.59100,13.77096346
1.59150,13.77096346
1.59200,9.498241749
1.59250,0.6476039256
1.59300,-9.423811529
1.59350,-15.52769968
1.59400,-14.61211646
1.59450,-9.118617121
1.59500,-3.93031219
1.59550,-0.5731737052
1.59600,3.394353595
1.59650,9.193047341
1.59700,13.77096346
1.59750,16.51771313
1.59800,20.48524043
1.59850,26.58912858
1.59900,30.55665588
1.59950,29.94626706
1.60000,28.11510062
1.60050,31.4722391
1.60100,39.1020993
1.60150,44.90079304
1.60200,45.51118186
1.60250,43.374821
1.60300,43.98520982
1.60350,49.17351475
1.60400,57.10856935
1.60450,63.2124575
1.60500,62.60206869
1.60550,54.66701409
1.60600,44.29040423
1.60650,36.66054403
1.60700,29.64107266
1.60750,16.51771313
1.60800,-4.540701005
1.60850,-25.29392073
1.60900,-35.06014178
1.60950,-34.44975296
1.61000,-32.31339211
1.61050,-32.61858651
1.61100,-31.09261448
1.61150,-22.24197665
1.61200,-11.25497797
1.61250,-7.89783949
1.61300,-15.22250527
1.61350,-27.12508718
1.61400,-35.06014178
1.61450,-36.89130822
1.61500,-36.89130822
1.61550,-37.80689144
1.61600,-38.72247467
1.61650,-35.67053059
1.61700,-29.26144803
1.61750,-24.0731431
1.61800,-23.76794869
1.61850,-25.59911514
1.61900,-24.68353191
1.61950,-20.41081021
1.62000,-19.49522698
1.62050,-25.90430954
1.62100,-35.36533618
1.62150,-38.11208585
1.62200,-29.56664244
1.62250,-15.22250527
1.62300,-3.319923375
1.62350,2.783964779
1.62400,7.361880895
1.62450,13.46576905
1.62500,20.18004602
1.62550,23.84237891
1.62600,23.2319901
1.62650,21.09562924
1.62700,19.5696572
1.62750,18.65407398
1.62800,13.77096346
1.62850,3.394353595
1.62900,-7.89783949
1.62950,-14.91731087
1.63000,-16.74847731
1.63050,-19.80042139
1.63100,-31.39780888
1.63150,-50.62505657
1.63200,-67.7159434
1.63250,-74.73541478
1.63300,-71.98866511
1.63350,-64.96919373
1.63400,-54.89777828
1.63450,-38.41728026
1.63500,-17.66406054
1.63550,-1.488756928
1.63600,5.225520041
1.63650,7.667075303
1.63700,11.02421379
1.63750,14.38135227
1.63800,13.46576905
1.63850,11.3294082
1.63900,14.38135227
1.63950,23.84237891
1.64000,32.99821114
1.64050,36.66054403
1.64100,36.05015522
1.64150,34.82937759
1.64200,32.69301673
1.64250,27.1995174
1.64300,19.87485161
1.64350,15.2969355
1.64400,15.6021299
1.64450,16.82290753
1.64500,14.38135227
1.64550,8.887852934
1.64600,4.615131226
1.64650,2.173575964
1.64700,-0.8783681129
1.64750,-6.677061859
1.64800,-12.1705612
1.64850,-14.91731087
1.64900,-17.05367172
1.64950,-18.27444935
1.65000,-17.66406054
1.65050,-16.44328291
1.65100,-17.05367172
1.65150,-15.52769968
1.65200,-4.845895413
1.65250,11.6346026
1.65300,22.01121246
1.65350,20.79043483
1.65400,18.04368516
1.65450,22.92679569
1.65500,30.55665588
1.65550,32.69301673
1.65600,33.91379437
1.65650,40.93326574
1.65700,48.86832034
1.65750,48.25793153
1.65800,43.374821
1.65850,44.59559863
1.65900,50.39429238
1.65950,47.64754271
1.66000,35.134572
1.66050,26.89432299
1.66100,30.86185029
1.66150,39.1020993
1.66200,42.15404337
1.66250,40.62807133
1.66300,36.35534963
1.66350,26.58912858
1.66400,12.24499142
1.66450,1.563187149
1.66500,-1.488756928
1.66550,-5.151089821
1.66600,-13.69653324
1.66650,-20.41081021
1.66700,-19.80042139
1.66750,-19.49522698
1.66800,-29.87183684
1.66850,-47.8783069
1.66900,-61.91724965
1.66950,-65.57958255
1.67000,-63.44322169
1.67050,-58.86530558
1.67100,-53.37180624
1.67150,-50.01466775
1.67200,-49.09908453
1.67250,-47.26791808
1.67300,-38.72247467
1.67350,-26.81989277
1.67400,-17.96925494
1.67450,-12.78095001
1.67500,-6.371867452
1.67550,2.173575964
1.67600,11.02421379
1.67650,18.95926839
1.67700,27.80990621
1.67750,35.134572
1.67800,35.74496081
1.67850,31.4722391
1.67900,29.03068384
1.67950,31.4722391
1.68000,32.99821114
1.68050,28.72548943
1.68100,20.48524043
1.68150,11.02421379
1.68200,0.9527983333
1.68250,-6.371867452
1.68300,-6.982256267
1.68350,0.3424095179
1.68400,9.803436157
1.68450,14.99174109
1.68500,16.82290753
1.68550,17.73849076
1.68600,18.04368516
1.68650,15.2969355
1.68700,8.582658526
1.68750,0.9527983333
1.68800,-5.761478636
1.68850,-9.729005936
1.68900,-11.86536679
1.68950,-15.22250527
1.69000,-20.41081021
1.69050,-22.54717106
1.69100,-15.52769968
1.69150,-0.8783681129
1.69200,12.85538023
1.69250,20.48524043
1.69300,24.14757332
1.69350,27.1995174
1.69400,30.55665588
1.69450,33.91379437
1.69500,38.49171048
1.69550,42.76443219
1.69600,43.68001541
1.69650,41.54365456
1.69700,40.01768252
1.69750,40.62807133
1.69800,41.54365456
1.69850,41.54365456
1.69900,42.15404337
1.69950,41.23846015
1.70000,33.30340555
1.70050,16.51771313
1.70100,-0.5731737052
1.70150,-9.423811529
1.70200,-9.118617121
1.70250,-5.761478636
1.70300,-6.982256267
1.70350,-15.52769968
1.70400,-31.39780888
1.70450,-52.45622301
1.70500,-73.20944274
1.70550,-87.85877431
1.70600,-93.65746805
1.70650,-92.43669042
1.70700,-90.91071838
1.70750,-93.65746805
1.70800,-98.84577299
1.70850,-97.93018976
1.70900,-84.80683023
1.70950,-65.27438814
1.71000,-49.40427894
1.71050,-41.77441874
1.71100,-37.80689144
1.71150,-35.36533618
1.71200,-35.67053059
1.71250,-37.50169704
1.71300,-34.14455855
1.71350,-22.85236547
1.71400,-9.423811529
1.71450,-0.2679792975
1.71500,4.309936818
1.71550,9.193047341
1.71600,13.77096346
1.71650,16.21251872
1.71700,20.18004602
1.71750,29.03068384
1.71800,40.32287693
1.71850,46.42676508
1.71900,46.12157067
1.71950,44.59559863
1.72000,44.90079304
1.72050,42.76443219
1.72100,35.134572
1.72150,25.06315654
1.72200,17.43329635
1.72250,11.6346026
1.72300,4.615131226
1.72350,-0.8783681129
1.72400,-0.2679792975
1.72450,4.615131226
1.72500,8.277464118
1.72550,8.887852934
1.72600,9.498241749
1.72650,12.55018583
1.72700,16.51771313
1.72750,19.2644628
1.72800,21.40082365
1.72850,22.62160128
1.72900,21.09562924
1.72950,17.73849076
1.73000,15.90732431
1.73050,15.6021299
1.73100,13.16057464
1.73150,7.361880895
1.73200,1.868381556
1.73250,0.3424095179
1.73300,0.3424095179
1.73350,-1.793951336
1.73400,-5.151089821
1.73450,-7.89783949
1.73500,-10.64458916
1.73550,-15.83289409
1.73600,-20.1056158
1.73650,-21.63158784
1.73700,-21.32639343
1.73750,-20.41081021
1.73800,-15.83289409
1.73850,-6.371867452
1.73900,2.478770372
1.73950,6.141103264
1.74000,8.887852934
1.74050,19.87485161
1.74100,38.18651607
1.74150,51.92026442
1.74200,53.75143087
1.74250,49.17351475
1.74300,46.12157067
1.74350,45.81637627
1.74400,43.374821
1.74450,34.52418318
1.74500,18.65407398
1.74550,-2.099145744
1.74600,-22.54717106
1.74650,-35.67053059
1.74700,-37.80689144
1.74750,-32.0081977
1.74800,-25.29392073
1.74850,-20.71600461
1.74900,-15.83289409
1.74950,-8.508228305
1.75000,-0.8783681129
1.75050,2.173575964
1.75100,-0.8783681129
1.75150,-5.761478636
1.75200,-4.845895413
1.75250,3.394353595
1.75300,13.16057464
1.75350,17.12810194
1.75400,14.99174109
1.75450,12.85538023
1.75500,13.16057464
1.75550,11.93979701
1.75600,5.530714449
1.75650,-3.319923375
1.75700,-9.423811529
1.75750,-10.64458916
1.75800,-10.64458916
1.75850,-10.94978357
1.75900,-9.729005936
1.75950,-6.371867452
1.76000,-6.371867452
1.76050,-15.52769968
1.76100,-31.39780888
1.76150,-42.99519638
1.76200,-42.99519638
1.76250,-35.06014178
1.76300,-29.87183684
1.76350,-34.14455855
1.76400,-42.69000197
1.76450,-47.57311249
1.76500,-45.43675164
1.76550,-39.33286348
1.76600,-32.0081977
1.76650,-22.85236547
1.76700,-13.39133883
1.76750,-9.729005936
1.76800,-15.22250527
1.76850,-23.15755988
1.76900,-21.02119902
1.76950,-5.456284228
1.77000,13.16057464
1.77050,23.5371845
1.77100,23.2319901
1.77150,18.95926839
1.77200,15.90732431
1.77250,11.6346026
1.77300,4.00474241
1.77350,-3.93031219
1.77400,-7.89783949
1.77450,-8.203033898
1.77500,-10.64458916
1.77550,-17.05367172
1.77600,-20.41081021
1.77650,-15.83289409
1.77700,-6.982256267
1.77750,-1.793951336
1.77800,0.03721511018
1.77850,4.920325633
1.77900,9.498241749
1.77950,4.615131226
1.78000,-9.118617121
1.78050,-18.57964376
1.78100,-14.91731087
1.78150,-5.761478636
1.78200,-1.793951336
1.78250,-2.099145744
1.78300,-1.183562521
1.78350,-1.183562521
1.78400,-6.677061859
1.78450,-12.78095001
1.78500,-10.64458916
1.78550,-3.93031219
1.78600,-4.845895413
1.78650,-13.69653324
1.78700,-17.05367172
1.78750,-7.592645082
1.78800,5.530714449
1.78850,9.803436157
1.78900,3.699548003
1.78950,-4.845895413
1.79000,-8.203033898
1.79050,-3.319923375
1.79100,6.75149208
1.79150,16.21251872
1.79200,18.04368516
1.79250,13.16057464
1.79300,7.667075303
1.79350,6.75149208
1.79400,9.498241749
1.79450,11.02421379
1.79500,9.803436157
1.79550,4.920325633
1.79600,-1.488756928
1.79650,-6.677061859
1.79700,-8.813422713
1.79750,-9.729005936
1.79800,-11.86536679
1.79850,-12.47575561
1.79900,-9.423811529
1.79950,-5.456284228
1.80000,-4.235506598
1.80050,-1.488756928
1.80100,8.582658526
1.80150,22.92679569
1.80200,29.33587825
1.80250,22.62160128
1.80300,12.85538023
1.80350,10.41382497
1.80400,14.07615786
1.80450,16.21251872
1.80500,14.07615786
1.80550,10.71901938
1.80600,8.277464118
1.80650,5.530714449
1.80700,0.6476039256
1.80750,-4.235506598
1.80800,-9.423811529
1.80850,-14.30692205
1.80900,-16.44328291
1.80950,-13.69653324
1.81000,-8.203033898
1.81050,-5.151089821
1.81100,-3.93031219
1.81150,-0.5731737052
1.81200,6.75149208
1.81250,15.6021299
1.81300,22.01121246
1.81350,27.1995174
1.81400,32.08262792
1.81450,34.52418318
1.81500,31.77743351
1.81550,26.58912858
1.81600,22.01121246
1.81650,18.04368516
1.81700,11.6346026
1.81750,4.920325633
1.81800,2.783964779
1.81850,6.75149208
1.81900,13.77096346
1.81950,19.2644628
1.82000,22.31640687
1.82050,24.14757332
1.82100,24.45276773
1.82150,22.92679569
1.82200,21.40082365
1.82250,23.5371845
1.82300,27.80990621
1.82350,29.33587825
1.82400,23.5371845
1.82450,12.85538023
1.82500,3.394353595
1.82550,-0.5731737052
1.82600,-0.5731737052
1.82650,2.783964779
1.82700,9.803436157
1.82750,18.65407398
1.82800,24.14757332
1.82850,22.92679569
1.82900,18.95926839
1.82950,17.73849076
1.83000,21.40082365
1.83050,26.58912858
1.83100,31.4722391
1.83150,34.82937759
1.83200,36.05015522
1.83250,32.99821114
1.83300,26.58912858
1.83350,18.34887957
1.83400,11.02421379
1.83450,5.530714449
1.83500,2.173575964
1.83550,-0.2679792975
1.83600,-0.2679792975
1.83650,4.920325633
1.83700,15.6021299
1.83750,22.62160128
1.83800,15.2969355
1.83850,-5.761478636
1.83900,-25.59911514
1.83950,-32.92378092
1.84000,-31.70300329
1.84050,-34.14455855
1.84100,-42.38480756
1.84150,-49.09908453
1.84200,-51.54063979
1.84250,-53.67700065
1.84300,-59.47569439
1.84350,-66.18997136
1.84400,-70.76788748
1.84450,-75.04060918
1.84500,-81.14449734
1.84550,-83.89124701
1.84600,-77.17697004
1.84650,-61.91724965
1.84700,-44.52116841
1.84750,-30.78742007
1.84800,-21.63158784
1.84850,-17.35886613
1.84900,-16.1380885
1.84950,-11.86536679
1.85000,-0.5731737052
1.85050,13.16057464
1.85100,18.95926839
1.85150,11.6346026
1.85200,-0.8783681129
1.85250,-8.203033898
1.85300,-7.287450675
1.85350,-1.183562521
1.85400,6.75149208
1.85450,14.38135227
1.85500,18.65407398
1.85550,16.51771313
1.85600,10.41382497
1.85650,3.699548003
1.85700,-3.319923375
1.85750,-8.203033898
1.85800,-1.793951336
1.85850,19.2644628
1.85900,44.29040423
1.85950,57.41376376
1.86000,56.49818053
1.86050,55.58259731
1.86100,64.43323514
1.86150,75.1150394
1.86200,75.72542822
1.86250,65.95920717
1.86300,57.41376376
1.86350,58.32934698
1.86400,65.95920717
1.86450,69.62154007
1.86500,61.38129106
1.86550,40.01768252
1.86600,12.55018583
1.86650,-11.25497797
1.86700,-30.48222566
1.86750,-50.62505657
1.86800,-76.26138682
1.86850,-104.6444667
1.86900,-128.1444361
1.86950,-142.7937677
1.87000,-149.2028503
1.87050,-150.1184335
1.87100,-146.761295
1.87150,-137.3002684
1.87200,-122.3457424
1.87250,-106.7808276
1.87300,-98.54057858
1.87350,-98.23538417
1.87400,-96.09902332
1.87450,-81.75488615
1.87500,-57.94972235
1.87550,-35.975725
1.87600,-22.24197665
1.87650,-14.30692205
1.87700,-9.118617121
1.87750,-6.371867452
1.87800,-3.014728967
1.87850,6.141103264
1.87900,19.87485161
1.87950,29.33587825
1.88000,30.25146147
1.88050,28.42029503
1.88100,29.94626706
1.88150,32.38782233
1.88200,30.25146147
1.88250,24.75796213
1.88300,20.79043483
1.88350,19.87485161
1.88400,20.79043483
1.88450,23.84237891
1.88500,29.33587825
1.88550,33.30340555
1.88600,32.08262792
1.88650,27.80990621
1.88700,25.06315654
1.88750,24.45276773
1.88800,22.31640687
1.88850,18.65407398
1.88900,16.82290753
1.88950,16.82290753
1.89000,17.43329635
1.89050,18.95926839
1.89100,23.2319901
1.89150,30.25146147
1.89200,36.35534963
1.89250,40.01768252
1.89300,43.374821
1.89350,47.0371539
1.89400,50.08909797
1.89450,49.47870916
1.89500,47.3423483
1.89550,46.12157067
1.89600,45.51118186
1.89650,43.0696266
1.89700,38.49171048
1.89750,32.69301673
1.89800,27.80990621
1.89850,25.67354536
1.89900,26.58912858
1.89950,29.33587825
1.90000,32.69301673
1.90050,35.74496081
1.90100,39.4072937
1.90150,43.98520982
1.90200,47.64754271
1.90250,49.78390357
1.90300,47.0371539
1.90350,35.4397664
1.90400,14.68654668
1.90450,-5.761478636
1.90500,-14.91731087
1.90550,-11.86536679
1.90600,-7.287450675
1.90650,-9.729005936
1.90700,-17.05367172
1.90750,-24.98872632
1.90800,-34.14455855
1.90850,-45.13155723
1.90900,-53.37180624
1.90950,-55.50816709
1.91000,-53.98219505
1.91050,-51.23544538
1.91100,-42.07961315
1.91150,-21.93678224
1.91200,3.699548003
1.91250,25.97873976
1.91300,42.15404337
1.91350,54.66701409
1.91400,62.9072631
1.91450,65.95920717
1.91500,68.70595684
1.91550,75.42023381
1.91600,82.7448996
1.91650,84.27087164
1.91700,83.050094
1.91750,84.57606604
1.91800,85.49164927
1.91850,76.03062263
1.91900,60.46570784
1.91950,50.69948679
1.92000,48.86832034
1.92050,43.98520982
1.92100,29.33587825
1.92150,12.24499142
1.92200,-3.014728967
1.92250,-24.0731431
1.92300,-53.06661183
1.92350,-74.73541478
1.92400,-75.04060918
1.92450,-61.30686084
1.92500,-51.23544538
1.92550,-50.01466775
1.92600,-46.65752927
1.92650,-38.11208585
1.92700,-32.31339211
1.92750,-33.53416974
1.92800,-35.36533618
1.92850,-32.31339211
1.92900,-28.95625362
1.92950,-32.61858651
1.93000,-40.55364111
1.93050,-44.21597401
1.93100,-39.33286348
1.93150,-27.12508718
1.93200,-10.33939475
1.93250,7.97226971
1.93300,23.5371845
1.93350,32.08262792
1.93400,34.82937759
1.93450,34.52418318
1.93500,33.30340555
1.93550,33.91379437
1.93600,38.18651607
1.93650,43.0696266
1.93700,41.84884897
1.93750,31.1670447
1.93800,19.2644628
1.93850,16.21251872
1.93900,22.31640687
1.93950,25.97873976
1.94000,18.34887957
1.94050,1.257992741
1.94100,-16.1380885
1.94150,-29.26144803
1.94200,-35.975725
1.94250,-35.36533618
1.94300,-27.73547599
1.94350,-19.49522698
1.94400,-22.85236547
1.94450,-41.46922434
1.94500,-65.27438814
1.94550,-81.14449734
1.94600,-86.63799668
1.94650,-85.72241345
1.94700,-76.56658122
1.94750,-55.8133615
1.94800,-34.75494737
1.94850,-35.06014178
1.94900,-58.25491676
1.94950,-79.00813648
1.95000,-73.51463715
1.95050,-51.8458342
1.95100,-42.69000197
1.95150,-57.33933354
1.95200,-81.75488615
1.95250,-97.93018976
1.95300,-100.371745
1.95350,-90.60552398
1.95400,-68.63152662
1.95450,-37.19650263
1.95500,-6.066673044
1.95550,17.43329635
1.95600,33.60859996
1.95650,46.12157067
1.95700,55.2774029
1.95750,58.63454139
1.95800,55.2774029
1.95850,48.86832034
1.95900,46.42676508
1.95950,51.0046812
1.96000,54.9722085
1.96050,45.51118186
1.96100,20.18004602
1.96150,-4.845895413
1.96200,-14.30692205
1.96250,-10.94978357
1.96300,-9.729005936
1.96350,-16.74847731
1.96400,-25.59911514
1.96450,-31.70300329
1.96500,-39.63805789
1.96550,-50.01466775
1.96600,-53.98219505
1.96650,-45.74194605
1.96700,-35.06014178
1.96750,-35.06014178
1.96800,-47.8783069
1.96850,-62.83283288
1.96900,-71.37827629
1.96950,-73.51463715
1.97000,-71.98866511
1.97050,-67.7159434
1.97100,-59.7808888
1.97150,-48.79389012
1.97200,-36.89130822
1.97250,-24.98872632
1.97300,-13.08614442
1.97350,-1.183562521
1.97400,11.3294082
1.97450,22.31640687
1.97500,29.94626706
1.97550,33.91379437
1.97600,36.96573844
1.97650,41.23846015
1.97700,44.59559863
1.97750,44.90079304
1.97800,44.29040423
1.97850,46.12157067
1.97900,50.08909797
1.97950,51.92026442
1.98000,49.17351475
1.98050,43.98520982
1.98100,40.01768252
1.98150,38.49171048
1.98200,38.18651607
1.98250,37.57612726
1.98300,36.35534963
1.98350,35.74496081
1.98400,35.74496081
1.98450,36.05015522
1.98500,34.82937759
1.98550,32.69301673
1.98600,31.1670447
1.98650,30.25146147
1.98700,29.03068384
1.98750,26.89432299
1.98800,25.36835095
1.98850,24.45276773
1.98900,22.31640687
1.98950,19.87485161
1.99000,18.34887957
1.99050,18.95926839
1.99100,18.65407398
1.99150,15.2969355
1.99200,10.41382497
1.99250,9.193047341
1.99300,12.24499142
1.99350,16.21251872
1.99400,17.73849076
1.99450,18.34887957
1.99500,18.95926839
1.99550,19.5696572
1.99600,18.95926839
1.99650,17.43329635
1.99700,14.68654668
1.99750,12.55018583
1.99800,12.55018583
1.99850,14.99174109
1.99900,18.95926839
1.99950,21.40082365
2.00000,21.40082365
2.00050,21.40082365
2.00100,23.2319901
2.00150,23.5371845
2.00200,16.82290753
2.00250,5.225520041
2.00300,-1.793951336
2.00350,0.9527983333
2.00400,9.803436157
2.00450,15.2969355
2.00500,14.38135227
2.00550,11.3294082
2.00600,9.193047341
2.00650,7.056686487
2.00700,3.394353595
2.00750,0.03721511018
2.00800,-0.8783681129
2.00850,-1.793951336
2.00900,-3.625117782
2.00950,-0.8783681129
2.01000,14.68654668
2.01050,44.59559863
2.01100,75.1150394
2.01150,86.7124269
2.01200,68.70595684
2.01250,28.72548943
2.01300,-12.78095001
2.01350,-38.72247467
2.01400,-44.21597401
2.01450,-37.19650263
2.01500,-25.29392073
2.01550,-11.86536679
2.01600,1.257992741
2.01650,11.3294082
2.01700,13.46576905
2.01750,9.498241749
2.01800,6.141103264
2.01850,5.835908857
2.01900,3.699548003
2.01950,-2.709534559
2.02000,-7.287450675
2.02050,-1.488756928
2.02100,7.97226971
2.02150,6.75149208
2.02200,-7.592645082
2.02250,-21.02119902
2.02300,-21.93678224
2.02350,-17.05367172
2.02400,-15.52769968
2.02450,-13.08614442
2.02500,-0.2679792975
2.02550,18.65407398
2.02600,28.72548943
2.02650,24.45276773
2.02700,13.16057464
2.02750,4.00474241
2.02800,0.6476039256
2.02850,6.446297672
2.02900,22.62160128
2.02950,41.84884897
2.03000,55.2774029
2.03050,62.9072631
2.03100,72.06309533
2.03150,83.66048282
2.03200,91.90073183
2.03250,94.34228709
2.03300,95.25787031
2.03350,94.95267591
2.03400,87.62801012
2.03450,67.79037362
2.03500,38.18651607
2.03550,5.530714449
2.03600,-24.0731431
2.03650,-43.60558519
2.03700,-50.62505657
2.03750,-50.93025098
2.03800,-51.54063979
2.03850,-48.18350131
2.03900,-33.83936414
2.03950,-12.1705612
2.04000,1.257992741
2.04050,4.00474241
2.04100,6.141103264
2.04150,14.38135227
2.04200,19.2644628
2.04250,9.193047341
2.04300,-12.78095001
2.04350,-37.19650263
2.04400,-59.7808888
2.04450,-78.09255326
2.04500,-88.46916312
2.04550,-89.68994075
2.04600,-89.38474635
2.04650,-94.26785687
2.04700,-99.4561618
2.04750,-94.57305128
2.04800,-76.56658122
2.04850,-53.06661183
2.04900,-31.09261448
2.04950,-14.61211646
2.05000,-6.066673044
2.05050,-4.540701005
2.05100,-6.066673044
2.05150,-6.982256267
2.05200,-5.456284228
2.05250,-0.2679792975
2.05300,10.41382497
2.05350,22.62160128
2.05400,24.75796213
2.05450,8.887852934
2.05500,-17.96925494
2.05550,-44.52116841
2.05600,-65.88477695
2.05650,-86.94319108
2.05700,-110.7483549
2.05750,-133.0275466
2.05800,-148.8976558
2.05850,-155.6119328
2.05900,-154.3911552
2.05950,-146.4561006
2.06000,-134.5535187
2.06050,-120.8197703
2.06100,-104.0340779
2.06150,-82.97566378
2.06200,-60.39127761
2.06250,-40.55364111
2.06300,-25.59911514
2.06350,-13.69653324
2.06400,-3.319923375
2.06450,6.141103264
2.06500,18.95926839
2.06550,35.134572
2.06600,48.25793153
2.06650,51.92026442
2.06700,51.0046812
2.06750,59.2449302
2.06800,79.69295552
2.06850,101.0565641
2.06900,114.1799236
2.06950,121.5045894
2.07000,128.8292552
2.07050,132.1863936
2.07100,126.3876999
2.07150,116.01109
2.07200,110.5175907
2.07250,103.4981193
2.07300,78.7773723
2.07350,31.4722391
2.07400,-21.63158784
2.07450,-59.7808888
2.07500,-77.78735885
2.07550,-84.19644142
2.07600,-88.16396872
2.07650,-94.87824568
2.07700,-103.1184947
2.07750,-108.0016052
2.07800,-104.3392723
2.07850,-93.35227365
2.07900,-81.75488615
2.07950,-71.98866511
2.08000,-59.47569439
2.08050,-42.99519638
2.08100,-26.51469836
2.08150,-14.30692205
2.08200,-3.625117782
2.08250,6.75149208
2.08300,13.46576905
2.08350,11.6346026
2.08400,4.309936818
2.08450,-1.793951336
2.08500,-5.456284228
2.08550,-9.118617121
2.08600,-12.1705612
2.08650,-12.78095001
2.08700,-8.813422713
2.08750,-0.8783681129
2.08800,8.277464118
2.08850,13.16057464
2.08900,9.803436157
2.08950,2.478770372
2.09000,0.9527983333
2.09050,8.582658526
2.09100,17.43329635
2.09150,22.31640687
2.09200,27.80990621
2.09250,38.18651607
2.09300,47.64754271
2.09350,50.39429238
2.09400,51.92026442
2.09450,58.9397358
2.09500,67.1799848
2.09550,68.40076244
2.09600,64.43323514
2.09650,63.82284632
2.09700,66.8747904
2.09750,69.92673447
2.09800,75.72542822
2.09850,91.29034301
2.09900,109.6020075
2.09950,115.7058956
2.10000,106.8552578
2.10050,97.08903676
2.10100,96.17345354
2.10150,98.6150088
2.10200,96.47864794
2.10250,93.12150946
2.10300,94.03709268
2.10350,95.56306472
2.10400,91.90073183
2.10450,80.30334434
2.10500,59.55012461
2.10550,26.89432299
2.10600,-15.22250527
2.10650,-59.47569439
2.10700,-100.6769394
2.10750,-143.0989621
2.10800,-185.5209848
2.10850,-217.871592
2.10900,-234.0468956
2.10950,-241.3715614
2.11000,-249.306616
2.11050,-255.4105041
2.11100,-248.0858384
2.11150,-222.7547025
2.11200,-184.3002071
2.11250,-143.4041565
2.11300,-109.2223828
2.11350,-85.41721905
2.11400,-65.57958255
2.11450,-39.33286348
2.11500,-3.014728967
2.11550,37.57612726
2.11600,80.60853874
2.11650,124.5565335
2.11700,160.874668
2.11750,176.4395828
2.11800,171.8616666
2.11850,165.4525841
2.11900,171.5564722
2.11950,182.8486653
2.12000,184.069443
2.12050,175.5239995
2.12100,166.9785561
2.12150,157.8227239
2.12200,139.5110594
2.12250,110.8227851
2.12300,80.60853874
2.12350,51.0046812
2.12400,17.12810194
2.12450,-18.57964376
2.12500,-48.18350131
2.12550,-73.51463715
2.12600,-108.3067996
2.12650,-158.0534881
2.12700,-207.4949821
2.12750,-238.3196173
2.12800,-250.2221992
2.12850,-251.7481712
2.12900,-245.3390887
2.12950,-227.637813
2.13000,-203.5274548
2.13050,-180.9430687
2.13100,-159.2742657
2.13150,-125.3976865
2.13200,-73.81983155
2.13250,-16.1380885
2.13300,30.55665588
2.13350,60.77090224
2.13400,78.7773723
2.13450,89.76437097
2.13500,96.47864794
2.13550,104.4137025
2.13600,117.5370621
2.13650,134.6279489
2.13700,145.3097532
2.13750,146.8357252
2.13800,149.2772805
2.13850,165.7577785
2.13900,191.6993031
2.13950,210.6213564
2.14000,217.6408278
2.14050,225.8810768
2.14100,247.2446853
2.14150,275.0173764
2.14200,293.9394297
2.14250,296.0757906
2.14300,284.4784031
2.14350,259.4524617
2.14400,218.2512166
2.14450,165.1473897
2.14500,107.4656466
2.14550,47.95273712
2.14600,-16.1380885
2.14650,-84.80683023
2.14700,-148.5924614
2.14750,-199.2547331
2.14800,-234.6572844
2.14850,-256.6312818
2.14900,-268.8390581
2.14950,-276.1637239
2.15000,-283.7935841
2.15050,-290.507861
2.15100,-289.8974722
2.15150,-280.74164
2.15200,-268.8390581
2.15250,-256.6312818
2.15300,-233.7417012
2.15350,-191.6248729
2.15400,-140.3522124
2.15450,-103.7288835
2.15500,-86.33280227
2.15550,-64.35880491
2.15600,-18.27444935
2.15650,36.96573844
2.15700,72.36828974
2.15750,83.66048282
2.15800,93.12150946
2.15850,107.770841
2.15900,104.718897
2.15950,70.23192888
2.16000,24.14757332
2.16050,-3.625117782
2.16100,-9.729005936
2.16150,-8.203033898
2.16200,-3.014728967
2.16250,11.93979701
2.16300,39.4072937
2.16350,76.64101144
2.16400,122.725367
2.16450,174.9136107
2.16500,221.3031607
2.16550,250.2966294
2.16600,264.3355722
2.16650,270.1342659
2.16700,264.0303778
2.16750,239.3096307
2.16800,200.8551354
2.16850,159.6538903
2.16900,116.01109
2.16950,65.04362395
2.17000,10.10863056
2.17050,-36.89130822
2.17100,-73.20944274
2.17150,-102.8133003
2.17200,-127.2288529
2.17250,-146.761295
2.17300,-167.2093203
2.17350,-196.8131779
2.17400,-229.1637851
2.17450,-249.306616
2.17500,-254.4949209
2.17550,-259.9884203
2.17600,-274.3325574
2.17650,-285.3195561
2.17700,-278.6052791
2.17750,-254.8001153
2.17800,-225.5014522
2.17850,-193.150845
2.17900,-153.1703776
2.17950,-108.0016052
2.18000,-69.85230425
2.18050,-45.13155723
2.18100,-26.20950395
2.18150,-2.709534559
2.18200,24.14757332
2.18250,44.29040423
2.18300,50.69948679
2.18350,45.51118186
2.18400,35.134572
2.18450,26.28393417
2.18500,23.5371845
2.18550,25.36835095
2.18600,27.1995174
2.18650,23.84237891
2.18700,15.6021299
2.18750,4.615131226
2.18800,-6.677061859
2.18850,-15.52769968
2.18900,-15.83289409
2.18950,-3.319923375
2.19000,19.2644628
2.19050,43.98520982
2.19100,62.60206869
2.19150,73.28387296
2.19200,77.86178907
2.19250,81.82931637
2.19300,90.06956538
2.19350,104.1085081
2.19400,119.6734229
2.19450,134.0175601
2.19500,149.5824749
2.19550,167.2837505
2.19600,181.0174989
2.19650,182.8486653
2.19700,175.2188051
2.19750,166.0629729
2.19800,156.2967519
2.19850,138.5954762
2.19900,112.0435627
2.19950,85.18645486
2.20000,62.60206869
2.20050,36.35534963
2.20100,0.03721511018
2.20150,-39.63805789
2.20200,-70.46269307
2.20250,-87.24838549
2.20300,-94.87824568
2.20350,-96.40421772
2.20400,-93.65746805
2.20450,-89.68994075
2.20500,-85.41721905
2.20550,-74.12502596
2.20600,-51.54063979
2.20650,-29.56664244
2.20700,-28.95625362
2.20750,-54.28738946
2.20800,-84.80683023
2.20850,-93.96266246
2.20900,-76.26138682
2.20950,-48.18350131
2.21000,-28.95625362
2.21050,-19.80042139
2.21100,-8.203033898
2.21150,15.6021299
2.21200,49.17351475
2.21250,89.15398216
2.21300,136.7643098
2.21350,189.2577479
2.21400,230.1537985
2.21450,243.5823525
2.21500,233.8161314
2.21550,213.0629117
2.21600,181.0174989
2.21650,125.1669223
2.21700,48.25793153
2.21750,-30.17703125
2.21800,-96.09902332
2.21850,-144.9301285
2.21900,-171.482042
2.21950,-171.482042
2.22000,-156.2223216
2.22050,-146.761295
2.22100,-140.6574068
2.22150,-108.3067996
2.22200,-32.92378092
2.22250,63.82284632
2.22300,148.3616973
2.22350,207.8746068
2.22400,249.991435
2.22450,279.900487
2.22500,296.380985
2.22550,299.1277347
2.22600,288.140736
2.22650,262.5044057
2.22700,224.9654936
2.22750,182.5434709
2.22800,135.5435321
2.22850,75.72542822
2.22900,4.309936818
2.22950,-64.66399932
2.23000,-123.2613256
2.23050,-178.196319
2.23100,-233.1313124
2.23150,-276.4689183
2.23200,-296.9169436
2.23250,-302.4104429
2.23300,-308.8195255
2.23350,-319.5013298
2.23400,-326.2156067
2.23450,-323.1636626
2.23500,-309.1247199
2.23550,-282.5728064
2.23600,-244.1183111
2.23650,-199.5599275
2.23700,-155.9171272
2.23750,-115.326271
2.23800,-78.39774767
2.23850,-50.62505657
2.23900,-38.41728026
2.23950,-36.89130822
2.24000,-32.31339211
2.24050,-14.61211646
2.24100,14.07615786
2.24150,45.81637627
2.24200,74.809845
2.24250,100.1409808
2.24300,120.8942006
2.24350,134.6279489
2.24400,141.0370315
2.24450,144.0889755
2.24500,149.2772805
2.24550,156.9071407
2.24600,160.874668
2.24650,152.634419
2.24700,131.8811992
2.24750,106.8552578
2.24800,83.96567723
2.24850,62.29687428
2.24900,36.05015522
2.24950,4.615131226
2.25000,-25.59911514
2.25050,-53.06661183
2.25100,-80.53410852
2.25150,-105.56005
2.25200,-117.1574374
2.25250,-111.6639381
2.25300,-102.2029115
2.25350,-103.7288835
2.25400,-113.1899101
2.25450,-115.0210766
2.25500,-106.4756332
2.25550,-99.4561618
2.25600,-100.371745
2.25650,-95.79382891
2.25700,-71.6834707
2.25750,-32.61858651
2.25800,5.225520041
2.25850,34.82937759
2.25900,59.85531902
2.25950,82.13451078
2.26000,95.25787031
2.26050,93.12150946
2.26100,83.66048282
2.26150,84.88126045
2.26200,109.6020075
2.26250,148.6668917
2.26300,178.5759436
2.26350,182.8486653
2.26400,164.5370009
2.26450,135.8487265
2.26500,103.1929249
2.26550,69.01115125
2.26600,37.88132167
2.26650,14.38135227
2.26700,-1.488756928
2.26750,-14.00172764
2.26800,-24.37833751
2.26850,-28.95625362
2.26900,-27.12508718
2.26950,-19.80042139
2.27000,-12.47575561
2.27050,-11.25497797
2.27100,-15.83289409
2.27150,-16.44328291
2.27200,-3.93031219
2.27250,14.07615786
2.27300,19.5696572
2.27350,9.498241749
2.27400,-0.2679792975
2.27450,2.783964779
2.27500,11.6346026
2.27550,21.09562924
2.27600,41.84884897
2.27650,85.49164927
2.27700,142.5630035
2.27750,192.9200808
2.27800,229.2382153
2.27850,254.8745455
2.27900,269.2186827
2.27950,267.9979051
2.28000,253.0433791
2.28050,228.6278265
2.28100,191.6993031
2.28150,140.4266427
2.28200,82.7448996
2.28250,23.2319901
2.28300,-47.57311249
2.28350,-136.9950739
2.28400,-223.9754801
2.28450,-275.8585295
2.28500,-284.0987785
2.28550,-263.3455587
2.28600,-222.1443137
2.28650,-156.8327104
2.28700,-80.53410852
2.28750,-25.90430954
2.28800,-9.423811529
2.28850,-9.423811529
2.28900,-1.183562521
2.28950,9.498241749
2.29000,2.783964779
2.29050,-20.41081021
2.29100,-43.30039078
2.29150,-60.08608321
2.29200,-75.95619241
2.29250,-86.02760786
2.29300,-79.6185253
2.29350,-70.76788748
2.29400,-87.5535799
2.29450,-134.8587131
2.29500,-183.6898183
2.29550,-209.631343
2.29600,-216.6508144
2.29650,-216.6508144
2.29700,-207.8001765
2.29750,-189.7937065
2.29800,-180.6378742
2.29850,-194.0664282
2.29900,-212.3780927
2.29950,-204.1378436
2.30000,-164.1573762
2.30050,-115.9366598
2.30100,-79.31333089
2.30150,-49.70947335
2.30200,-14.91731087
2.30250,25.06315654
2.30300,62.9072631
2.30350,93.73189827
2.30400,117.5370621
2.30450,134.9331433
2.30500,142.8681979
2.30550,139.5110594
2.30600,128.2188663
2.30650,116.3162844
2.30700,107.4656466
2.30750,97.39423117
2.30800,82.43970519
2.30850,65.34881836
2.30900,51.3098756
2.30950,37.88132167
2.31000,21.09562924
2.31050,1.868381556
2.31100,-13.69653324
2.31150,-25.90430954
2.31200,-32.92378092
2.31250,-28.65105921
2.31300,-9.729005936
2.31350,12.24499142
2.31400,20.18004602
2.31450,11.93979701
2.31500,0.6476039256
2.31550,-7.592645082
2.31600,-21.32639343
2.31650,-43.9107796
2.31700,-62.83283288
2.31750,-67.41074899
2.31800,-64.35880491
2.31850,-64.66399932
2.31900,-63.7484161
2.31950,-50.62505657
2.32000,-28.34586481
2.32050,-12.1705612
2.32100,-7.592645082
2.32150,-2.709534559
2.32200,11.3294082
2.32250,26.58912858
2.32300,29.33587825
2.32350,20.79043483
2.32400,12.55018583
2.32450,10.71901938
2.32500,13.16057464
2.32550,20.48524043
2.32600,35.4397664
2.32650,53.14104205
2.32700,65.65401277
2.32750,72.67348414
2.32800,81.52412197
2.32850,90.37475979
2.32900,89.15398216
2.32950,81.52412197
2.33000,87.32281571
2.33050,113.2643404
2.33100,136.7643098
2.33150,135.2383377
2.33200,121.5045894
2.33250,128.5240608
2.33300,164.2318065
2.33350,200.8551354
2.33400,211.8421341
2.33450,198.4135801
2.33500,173.9980275
2.33550,143.4785867
2.33600,105.6344802
2.33650,62.29687428
2.33700,12.24499142
2.33750,-52.45622301
2.33800,-132.7223522
2.33850,-207.1897877
2.33900,-251.4429768
2.33950,-262.1247811
2.34000,-256.020893
2.34050,-245.3390887
2.34100,-231.6053403
2.34150,-213.2936759
2.34200,-194.0664282
2.34250,-175.1443749
2.34300,-151.9495999
2.34350,-126.6184641
2.34400,-106.1704388
2.34450,-93.35227365
2.34500,-80.83930293
2.34550,-64.66399932
2.34600,-53.67700065
2.34650,-55.20297268
2.34700,-60.08608321
2.34750,-50.62505657
2.34800,-20.71600461
2.34850,18.65407398
2.34900,56.19298613
2.34950,88.23839894
2.35000,118.4526453
2.35050,147.7513084
2.35100,173.6928331
2.35150,192.9200808
2.35200,204.5174683
2.35250,209.4005788
2.35300,207.2642179
2.35350,195.361636
2.35400,171.8616666
2.35450,141.6474203
2.35500,112.0435627
2.35550,87.01762131
2.35600,64.12804073
2.35650,43.68001541
2.35700,29.33587825
2.35750,21.09562924
2.35800,11.02421379
2.35850,-4.235506598
2.35900,-20.1056158
2.35950,-28.95625362
2.36000,-32.61858651
2.36050,-35.975725
2.36100,-39.02766908
2.36150,-41.46922434
2.36200,-49.40427894
2.36250,-65.57958255
2.36300,-79.00813648
2.36350,-78.70294208
2.36400,-74.12502596
2.36450,-87.24838549
2.36500,-121.1249647
2.36550,-151.0340167
2.36600,-156.2223216
2.36650,-143.0989621
2.36700,-129.0600193
2.36750,-115.326271
2.36800,-91.5211072
2.36850,-59.47569439
2.36900,-35.975725
2.36950,-30.48222566
2.37000,-34.75494737
2.37050,-39.02766908
2.37100,-44.82636282
2.37150,-56.42375031
2.37200,-66.49516577
2.37250,-62.52763847
2.37300,-41.77441874
2.37350,-11.86536679
2.37400,19.2644628
2.37450,47.95273712
2.37500,69.31634566
2.37550,82.13451078
2.37600,93.73189827
2.37650,109.6020075
2.37700,121.5045894
2.37750,112.959146
2.37800,77.25140026
2.37850,27.5047118
2.37900,-13.69653324
2.37950,-31.39780888
2.38000,-24.0731431
2.38050,-3.014728967
2.38100,19.5696572
2.38150,41.23846015
2.38200,63.82284632
2.38250,83.35528841
2.38300,88.23839894
2.38350,74.50465059
2.38400,52.53065323
2.38450,31.77743351
2.38500,11.3294082
2.38550,-8.508228305
2.38600,-17.05367172
2.38650,-6.982256267
2.38700,6.446297672
2.38750,4.920325633
2.38800,-9.423811529
2.38850,-21.63158784
2.38900,-28.95625362
2.38950,-39.33286348
2.39000,-51.8458342
2.39050,-55.20297268
2.39100,-50.93025098
2.39150,-53.98219505
2.39200,-69.85230425
2.39250,-90.30032957
2.39300,-107.3912164
2.39350,-117.7678263
2.39400,-113.800299
2.39450,-89.38474635
2.39500,-53.06661183
2.39550,-19.19003258
2.39600,14.99174109
2.39650,58.9397358
2.39700,98.00461998
2.39750,103.1929249
2.39800,73.28387296
2.39850,41.84884897
2.39900,33.30340555
2.39950,37.57612726
2.40000,36.96573844
2.40050,32.99821114
2.40100,33.30340555
2.40150,32.38782233
2.40200,29.64107266
2.40250,40.93326574
2.40300,74.809845
2.40350,111.4331739
2.40400,129.7448384
2.40450,138.5954762
2.40500,152.634419
2.40550,153.5500022
2.40600,110.2123963
2.40650,32.69301673
2.40700,-26.81989277
2.40750,-36.89130822
2.40800,-17.66406054
2.40850,-2.709534559
2.40900,6.446297672
2.40950,26.89432299
2.41000,52.22545883
2.41050,59.55012461
2.41100,44.90079304
2.41150,29.03068384
2.41200,19.87485161
2.41250,2.478770372
2.41300,-34.14455855
2.41350,-74.73541478
2.41400,-99.15096739
2.41450,-107.6964108
2.41500,-112.8847157
2.41550,-119.2937983
2.41600,-122.6509368
2.41650,-122.3457424
2.41700,-118.6834095
2.41750,-107.3912164
2.41800,-88.16396872
2.41850,-73.51463715
2.41900,-70.76788748
2.41950,-65.88477695
2.42000,-43.30039078
2.42050,-12.1705612
2.42100,8.277464118
2.42150,19.87485161
2.42200,35.4397664
2.42250,52.22545883
2.42300,53.14104205
2.42350,41.23846015
2.42400,33.30340555
2.42450,27.80990621
2.42500,1.868381556
2.42550,-45.13155723
2.42600,-80.22891412
2.42650,-80.83930293
2.42700,-65.27438814
2.42750,-61.30686084
2.42800,-65.88477695
2.42850,-52.76141742
2.42900,-13.08614442
2.42950,43.374821
2.43000,108.3812298
2.43050,175.2188051
2.43100,227.1018544
2.43150,249.0758518
2.43200,249.6862406
2.43250,253.6537679
2.43300,267.6927107
2.43350,271.9654324
2.43400,254.5693511
2.43450,229.5434097
2.43500,215.1992725
2.43550,206.0434403
2.43600,185.9006094
2.43650,153.2448078
2.43700,120.8942006
2.43750,91.90073183
2.43800,54.66701409
2.43850,0.6476039256
2.43900,-59.47569439
2.43950,-107.086022
2.44000,-131.5015746
2.44050,-136.9950739
2.44100,-135.4691019
2.44150,-135.7742963
2.44200,-136.0794907
2.44250,-129.9756026
2.44300,-120.8197703
2.44350,-116.5470486
2.44400,-112.5795213
2.44450,-94.57305128
2.44500,-70.46269307
2.44550,-75.650998
2.44600,-130.8911858
2.44650,-206.5793989
2.44700,-254.8001153
2.44750,-264.5663364
2.44800,-262.1247811
2.44850,-258.7676426
2.44900,-240.7611726
2.44950,-204.1378436
2.45000,-169.6508756
2.45050,-151.9495999
2.45100,-138.521046
2.45150,-108.3067996
2.45200,-56.42375031
2.45250,11.93979701
2.45300,86.40723249
2.45350,145.0045588
2.45400,169.4201114
2.45450,175.8291939
2.45500,210.0109676
2.45550,294.5498185
2.45600,397.7055283
2.45650,466.3742701
2.45700,479.4976296
2.45750,454.1664938
2.45800,414.1860264
2.45850,369.9328372
2.45900,317.7445935
2.45950,247.8550742
2.46000,157.2123351
2.46050,60.77090224
2.46100,-14.00172764
2.46150,-59.17049998
2.46200,-91.82630161
2.46250,-130.280797
2.46300,-169.3456812
2.46350,-192.2352617
2.46400,-197.7287611
2.46450,-198.6443443
2.46500,-206.2742045
2.46550,-223.6702857
2.46600,-252.9689489
2.46650,-295.0857771
2.46700,-342.6961047
2.46750,-383.5921554
2.46800,-410.7544577
2.46850,-425.0985948
2.46900,-426.9297613
2.46950,-411.9752353
2.47000,-375.9622952
2.47050,-323.4688571
2.47100,-263.9559476
2.47150,-206.2742045
2.47200,-155.001544
2.47250,-112.2743269
2.47300,-79.00813648
2.47350,-53.06661183
2.47400,-30.48222566
2.47450,-9.423811529
2.47500,7.97226971
2.47550,22.92679569
2.47600,38.49171048
2.47650,58.9397358
2.47700,81.21892756
2.47750,101.0565641
2.47800,116.9266733
2.47850,128.2188663
2.47900,133.7123657
2.47950,136.7643098
2.48000,144.39417
2.48050,155.686363
2.48100,157.2123351
2.48150,143.4785867
2.48200,130.965616
2.48250,137.9850874
2.48300,159.3486959
2.48350,177.6603604
2.48400,188.0369703
2.48450,199.6343577
2.48500,209.0953844
2.48550,201.7707186
2.48600,173.3876387
2.48650,137.0695042
2.48700,102.2773417
2.48750,65.34881836
2.48800,21.09562924
2.48850,-29.56664244
2.48900,-83.5860526
2.48950,-129.9756026
2.49000,-150.1184335
2.49050,-136.0794907
2.49100,-102.5081059
2.49150,-70.46269307
2.49200,-40.55364111
2.49250,-6.677061859
2.49300,17.73849076
2.49350,10.41382497
2.49400,-25.90430954
2.49450,-64.35880491
2.49500,-87.24838549
2.49550,-99.15096739
2.49600,-104.3392723
2.49650,-95.18344009
2.49700,-71.37827629
2.49750,-48.48869571
2.49800,-37.80689144
2.49850,-32.92378092
2.49900,-24.0731431
2.49950,-8.813422713
2.50000,10.41382497
2.50050,32.69301673
2.50100,52.53065323
2.50150,65.04362395
2.50200,74.50465059
2.50250,89.76437097
2.50300,103.4981193
2.50350,94.6474815
2.50400,57.71895817
2.50450,18.65407398
2.50500,11.93979701
2.50550,43.374821
2.50600,85.79684367
2.50650,110.5175907
2.50700,114.485118
2.50750,111.4331739
2.50800,104.4137025
2.50850,82.7448996
2.50900,45.20598745
2.50950,8.277464118
2.51000,-17.66406054
2.51050,-41.16402993
2.51100,-67.10555458
2.51150,-79.92371971
2.51200,-65.57958255
2.51250,-39.33286348
2.51300,-27.73547599
2.51350,-26.20950395
2.51400,-5.151089821
2.51450,48.25793153
2.51500,115.4007012
2.51550,175.8291939
2.51600,229.8486041
2.51650,278.6797093
2.51700,310.7251222
2.51750,315.3030383
2.51800,298.5173458
2.51850,269.8290715
2.51900,230.7641873
2.51950,186.2058038
2.52000,151.4136413
2.52050,133.7123657
2.52100,121.5045894
2.52150,99.22539761
2.52200,67.48517921
2.52250,34.21898877
2.52300,-6.371867452
2.52350,-68.02113781
2.52400,-148.8976558
2.52450,-227.9430074
2.52500,-288.6766946
2.52550,-332.3194949
2.52600,-364.9752965
2.52650,-383.8973498
2.52700,-383.8973498
2.52750,-370.1636014
2.52800,-356.1246587
2.52850,-344.5272712
2.52900,-316.4493857
2.52950,-248.6962272
2.53000,-142.1833789
2.53050,-25.90430954
2.53100,69.92673447
2.53150,143.1733923
2.53200,204.2122739
2.53250,252.4329903
2.53300,275.0173764
2.53350,270.1342659
2.53400,249.3810462
2.53450,211.8421341
2.53500,141.0370315
2.53550,38.18651607
2.53600,-57.94972235
2.53650,-111.3587437
2.53700,-126.0080753
2.53750,-128.7548249
2.53800,-129.3652138
2.53850,-125.092492
2.53900,-134.5535187
2.53950,-180.6378742
2.54000,-243.2027278
2.54050,-266.0923084
2.54100,-223.6702857
2.54150,-147.3716838
2.54200,-73.81983155
2.54250,-3.93031219
2.54300,69.62154007
2.54350,131.2708104
2.54400,161.7902512
2.54450,169.114917
2.54500,172.1668611
2.54550,169.7253058
2.54600,148.6668917
2.54650,108.9916187
2.54700,63.2124575
2.54750,17.43329635
2.54800,-24.37833751
2.54850,-53.98219505
2.54900,-66.18997136
2.54950,-68.32633221
2.55000,-65.27438814
2.55050,-49.40427894
2.55100,-14.91731087
2.55150,28.11510062
2.55200,62.29687428
2.55250,79.0825667
2.55300,80.60853874
2.55350,79.0825667
2.55400,92.20592624
2.55450,124.251339
2.55500,152.634419
2.55550,148.9720861
2.55600,119.3682285
2.55650,101.0565641
2.55700,116.01109
2.55750,153.2448078
2.55800,192.0044976
2.55850,220.3875775
2.55900,224.3551048
2.55950,192.9200808
2.56000,139.8162538
2.56050,96.17345354
2.56100,69.01115125
2.56150,34.52418318
2.56200,-16.74847731
2.56250,-61.30686084
2.56300,-77.78735885
2.56350,-74.43022037
2.56400,-63.7484161
2.56450,-39.02766908
2.56500,2.783964779
2.56550,40.01768252
2.56600,46.12157067
2.56650,19.5696572
2.56700,-24.98872632
2.56750,-80.83930293
2.56800,-145.5405174
2.56850,-209.0209542
2.56900,-261.2091979
2.56950,-302.7156373
2.57000,-337.8129942
2.57050,-360.7025748
2.57100,-364.9752965
2.57150,-349.4103817
2.57200,-316.4493857
2.57250,-264.5663364
2.57300,-196.202789
2.57350,-125.3976865
2.57400,-68.32633221
2.57450,-31.70300329
2.57500,-12.78095001
2.57550,-3.93031219
2.57600,-0.2679792975
2.57650,-1.793951336
2.57700,-14.00172764
2.57750,-27.43028158
2.57800,-18.57964376
2.57850,25.67354536
2.57900,88.84878775
2.57950,145.6149476
2.58000,196.2772193
2.58050,254.2641567
2.58100,307.3679837
2.58150,324.4588705
2.58200,300.3485123
2.58250,269.2186827
2.58300,253.9589623
2.58350,235.3421034
2.58400,186.5109982
2.58450,115.4007012
2.58500,54.66701409
2.58550,20.18004602
2.58600,3.394353595
2.58650,-5.456284228
2.58700,-8.508228305
2.58750,-8.203033898
2.58800,-11.56017238
2.58850,-20.1056158
2.58900,-32.31339211
2.58950,-53.67700065
2.59000,-89.68994075
2.59050,-134.5535187
2.59100,-174.2287917
2.59150,-205.3586213
2.59200,-236.1832565
2.59250,-268.8390581
2.59300,-292.3390275
2.59350,-300.8844709
2.59400,-298.4429156
2.59450,-290.8130554
2.59500,-274.027363
2.59550,-242.2871446
2.59600,-194.9820114
2.59650,-138.2158516
2.59700,-80.22891412
2.59750,-33.22897533
2.59800,-1.488756928
2.59850,25.36835095
2.59900,61.99167987
2.59950,100.1409808
2.60000,111.4331739
2.60050,85.18645486
2.60100,46.73195949
2.60150,29.64107266
2.60200,40.93326574
2.60250,61.07609665
2.60300,75.1150394
2.60350,86.40723249
2.60400,98.92020321
2.60450,109.9072019
2.60500,115.4007012
2.60550,117.5370621
2.60600,118.7578397
2.60650,118.4526453
2.60700,117.8422565
2.60750,119.3682285
2.60800,121.8097838
2.60850,120.2838117
2.60900,114.1799236
2.60950,109.2968131
2.61000,108.9916187
2.61050,109.6020075
2.61100,104.4137025
2.61150,93.73189827
2.61200,81.82931637
2.61250,68.70595684
2.61300,51.3098756
2.61350,29.94626706
2.61400,10.71901938
2.61450,-0.2679792975
2.61500,-6.371867452
2.61550,-15.52769968
2.61600,-27.12508718
2.61650,-31.09261448
2.61700,-22.54717106
2.61750,-10.33939475
2.61800,-3.93031219
2.61850,0.9527983333
2.61900,14.07615786
2.61950,31.4722391
2.62000,38.18651607
2.62050,32.69301673
2.62100,32.08262792
2.62150,48.25793153
2.62200,76.64101144
2.62250,108.3812298
2.62300,142.5630035
2.62350,179.1863324
2.62400,209.0953844
2.62450,224.0499104
2.62500,227.1018544
2.62550,219.4719942
2.62600,196.2772193
2.62650,157.5175295
2.62700,116.6214789
2.62750,79.99814993
2.62800,35.4397664
2.62850,-17.96925494
2.62900,-53.37180624
2.62950,-51.8458342
2.63000,-42.69000197
2.63050,-71.6834707
2.63100,-134.2483243
2.63150,-173.3132085
2.63200,-150.4236279
2.63250,-89.68994075
2.63300,-34.75494737
2.63350,2.783964779
2.63400,40.62807133
2.63450,84.88126045
2.63500,124.8617279
2.63550,151.7188357
2.63600,168.1993338
2.63650,179.4915268
2.63700,188.9525535
2.63750,198.1083857
2.63800,205.1278571
2.63850,202.075913
2.63900,184.6798318
2.63950,151.7188357
2.64000,101.9721473
2.64050,33.30340555
2.64100,-47.8783069
2.64150,-127.8392417
2.64200,-195.2872058
2.64250,-250.2221992
2.64300,-296.6117492
2.64350,-332.9298837
2.64400,-357.6506307
2.64450,-373.2155455
2.64500,-382.3713777
2.64550,-382.3713777
2.64600,-368.9428238
2.64650,-339.3389663
2.64700,-291.7286387
2.64750,-228.5533963
2.64800,-161.4106266
2.64850,-109.8327717
2.64900,-83.89124701
2.64950,-75.04060918
2.65000,-65.88477695
2.65050,-49.40427894
2.65100,-33.22897533
2.65150,-26.81989277
2.65200,-28.95625362
2.65250,-29.56664244
2.65300,-23.15755988
2.65350,-15.52769968
2.65400,-14.30692205
2.65450,-19.19003258
2.65500,-23.46275428
2.65550,-22.85236547
2.65600,-19.19003258
2.65650,-17.35886613
2.65700,-21.93678224
2.65750,-33.53416974
2.65800,-45.74194605
2.65850,-49.09908453
2.65900,-45.74194605
2.65950,-50.01466775
2.66000,-68.02113781
2.66050,-79.6185253
2.66100,-59.47569439
2.66150,-9.423811529
2.66200,40.93326574
2.66250,73.28387296
2.66300,97.08903676
2.66350,127.9136719
2.66400,158.4331127
2.66450,169.114917
2.66500,154.4655854
2.66550,126.9980887
2.66600,101.3617585
2.66650,79.38776111
2.66700,54.66701409
2.66750,22.31640687
2.66800,-12.78095001
2.66850,-41.46922434
2.66900,-62.83283288
2.66950,-92.13149602
2.67000,-144.6249341
2.67050,-208.4105653
2.67100,-252.9689489
2.67150,-263.9559476
2.67200,-259.3780314
2.67250,-263.6507531
2.67300,-274.027363
2.67350,-271.8910022
2.67400,-248.6962272
2.67450,-213.5988703
2.67500,-176.3651525
2.67550,-136.6898795
2.67600,-94.87824568
2.67650,-52.76141742
2.67700,-10.33939475
2.67750,34.82937759
2.67800,79.99814993
2.67850,118.7578397
2.67900,148.9720861
2.67950,171.5564722
2.68000,183.7642485
2.68050,181.9330821
2.68100,170.9460834
2.68150,163.0110288
2.68200,164.2318065
2.68250,171.5564722
2.68300,181.0174989
2.68350,190.4785255
2.68400,194.7512472
2.68450,186.2058038
2.68500,167.2837505
2.68550,151.7188357
2.68600,150.1928637
2.68650,160.5694736
2.68700,173.9980275
2.68750,186.2058038
2.68800,196.8876081
2.68850,203.601885
2.68900,203.2966906
2.68950,196.8876081
2.69000,185.9006094
2.69050,167.5889449
2.69100,139.205865
2.69150,101.9721473
2.69200,58.9397358
2.69250,8.582658526
2.69300,-50.62505657
2.69350,-115.9366598
2.69400,-178.5015134
2.69450,-235.5728676
2.69500,-288.981889
2.69550,-335.371439
2.69600,-364.3649077
2.69650,-369.5532126
2.69700,-357.6506307
2.69750,-338.1181886
2.69800,-311.5662752
2.69850,-270.3650301
2.69900,-211.157315
2.69950,-140.6574068
2.70000,-72.29385952
2.70050,-15.83289409
2.70100,28.11510062
2.70150,67.79037362
2.70200,107.1604522
2.70250,144.6993644
2.70300,173.9980275
2.70350,192.309692
2.70400,202.6863018
2.70450,206.3486347
2.70500,202.075913
2.70550,191.0889143
2.70600,181.3226933
2.70650,173.3876387
2.70700,153.2448078
2.70750,103.8033137
2.70800,29.94626706
2.70850,-36.58611381
2.70900,-68.93672103
2.70950,-72.29385952
2.71000,-76.26138682
2.71050,-99.76135621
2.71100,-132.7223522
2.71150,-149.8132391
2.71200,-138.521046
2.71250,-105.2548555
2.71300,-60.69647202
2.71350,-14.61211646
2.71400,27.5047118
2.71450,65.65401277
2.71500,105.6344802
2.71550,148.9720861
2.71600,187.121387
2.71650,206.3486347
2.71700,205.7382459
2.71750,194.1408584
2.71800,179.7967212
2.71850,160.2642792
2.71900,133.7123657
2.71950,101.3617585
2.72000,61.68648547
2.72050,11.93979701
2.72100,-41.16402993
2.72150,-81.75488615
2.72200,-98.54057858
2.72250,-100.371745
2.72300,-100.6769394
2.72350,-103.4236891
2.72400,-101.8977171
2.72450,-93.65746805
2.72500,-83.28085819
2.72550,-74.73541478
2.72600,-68.63152662
2.72650,-66.18997136
2.72700,-69.24191544
2.72750,-75.34580359
2.72800,-80.83930293
2.72850,-82.67046938
2.72900,-77.78735885
2.72950,-61.00166643
2.73000,-32.92378092
2.73050,-3.014728967
2.73100,20.18004602
2.73150,40.32287693
2.73200,63.51765191
2.73250,83.66048282
2.73300,88.23839894
2.73350,79.38776111
2.73400,73.89426177
2.73450,79.99814993
2.73500,89.15398216
2.73550,93.73189827
2.73600,98.92020321
2.73650,108.9916187
2.73700,111.4331739
2.73750,89.76437097
2.73800,47.3423483
2.73850,2.783964779
2.73900,-30.48222566
2.73950,-54.59258387
2.74000,-69.54710985
2.74050,-71.6834707
2.74100,-64.35880491
2.74150,-58.86530558
2.74200,-60.39127761
2.74250,-59.7808888
2.74300,-52.76141742
2.74350,-55.20297268
2.74400,-81.14449734
2.74450,-117.1574374
2.74500,-133.3327411
2.74550,-118.3782151
2.74600,-89.07955194
2.74650,-63.7484161
2.74700,-41.46922434
2.74750,-15.52769968
2.74800,7.667075303
2.74850,17.12810194
2.74900,13.16057464
2.74950,7.667075303
2.75000,4.615131226
2.75050,-2.404340151
2.75100,-17.66406054
2.75150,-32.0081977
2.75200,-36.58611381
2.75250,-34.14455855
2.75300,-31.70300329
2.75350,-30.17703125
2.75400,-23.46275428
2.75450,-7.592645082
2.75500,14.38135227
2.75550,37.27093285
2.75600,56.80337494
2.75650,70.8423177
2.75700,79.0825667
2.75750,83.35528841
2.75800,87.32281571
2.75850,92.20592624
2.75900,96.47864794
2.75950,97.39423117
2.76000,94.95267591
2.76050,90.6799542
2.76100,84.57606604
2.76150,76.33581704
2.76200,66.8747904
2.76250,56.19298613
2.76300,38.49171048
2.76350,7.361880895
2.76400,-35.975725
2.76450,-80.53410852
2.76500,-112.8847157
2.76550,-129.0600193
2.76600,-133.3327411
2.76650,-130.8911858
2.76700,-121.4301592
2.76750,-103.1184947
2.76800,-77.17697004
2.76850,-47.26791808
2.76900,-19.80042139
2.76950,-2.709534559
2.77000,-0.2679792975
2.77050,-8.203033898
2.77100,-20.1056158
2.77150,-28.65105921
2.77200,-35.36533618
2.77250,-45.74194605
2.77300,-60.69647202
2.77350,-72.59905392
2.77400,-71.07308188
2.77450,-53.98219505
2.77500,-28.65105921
2.77550,-0.2679792975
2.77600,32.08262792
2.77650,66.56959599
2.77700,92.51112064
2.77750,99.53059202
2.77800,90.98514861
2.77850,80.91373315
2.77900,78.16698348
2.77950,79.38776111
2.78000,79.69295552
2.78050,81.52412197
2.78100,88.54359334
2.78150,97.39423117
2.78200,102.5825361
2.78250,102.8877305
2.78300,99.22539761
2.78350,90.6799542
2.78400,74.50465059
2.78450,51.3098756
2.78500,23.84237891
2.78550,-4.235506598
2.78600,-33.53416974
2.78650,-65.27438814
2.78700,-99.4561618
2.78750,-127.8392417
2.78800,-136.0794907
2.78850,-119.2937983
2.78900,-89.68994075
2.78950,-68.02113781
2.79000,-61.61205525
2.79050,-60.08608321
2.79100,-51.54063979
2.79150,-36.89130822
2.79200,-22.24197665
2.79250,-6.677061859
2.79300,12.55018583
2.79350,32.38782233
2.79400,40.93326574
2.79450,32.99821114
2.79500,14.07615786
2.79550,-4.845895413
2.79600,-18.88483817
2.79650,-26.81989277
2.79700,-29.26144803
2.79750,-26.81989277
2.79800,-25.59911514
2.79850,-34.14455855
2.79900,-53.98219505
2.79950,-78.09255326
2.80000,-98.54057858
2.80050,-113.800299
2.80100,-122.3457424
2.80150,-117.7678263
2.80200,-97.01460654
2.80250,-71.37827629
2.80300,-55.20297268
2.80350,-44.82636282
2.80400,-21.93678224
2.80450,19.87485161
2.80500,64.73842954
2.80550,94.03709268
2.80600,110.8227851
2.80650,128.5240608
2.80700,151.1084469
2.80750,171.8616666
2.80800,184.6798318
2.80850,191.0889143
2.80900,195.361636
2.80950,204.5174683
2.81000,223.1343271
2.81050,248.465463
2.81100,266.471933
2.81150,264.6407666
2.81200,244.1927413
2.81250,213.3681061
2.81300,176.4395828
2.81350,132.4915881
2.81400,82.43970519
2.81450,29.03068384
2.81500,-26.51469836
2.81550,-83.89124701
2.81600,-136.9950739
2.81650,-179.4170966
2.81700,-207.8001765
2.81750,-222.1443137
2.81800,-223.6702857
2.81850,-217.2612032
2.81900,-211.7677038
2.81950,-210.5469262
2.82000,-209.9365374
2.82050,-205.9690101
2.82100,-203.5274548
2.82150,-207.4949821
2.82200,-212.6832871
2.82250,-208.4105653
2.82300,-192.2352617
2.82350,-173.3132085
2.82400,-157.1379049
2.82450,-138.8262404
2.82500,-112.5795213
2.82550,-82.36527497
2.82600,-54.59258387
2.82650,-26.20950395
2.82700,11.93979701
2.82750,58.63454139
2.82800,100.1409808
2.82850,125.1669223
2.82900,138.9006706
2.82950,155.686363
2.83000,181.3226933
2.83050,211.2317452
2.83100,237.7836587
2.83150,256.0953232
2.83200,263.419989
2.83250,257.9264896
2.83300,240.8356028
2.83350,212.7577173
2.83400,173.3876387
2.83450,124.8617279
2.83500,71.75790092
2.83550,12.24499142
2.83600,-58.56011117
2.83650,-132.4171578
2.83700,-186.1313736
2.83750,-205.0534269
2.83800,-201.6962884
2.83850,-194.9820114
2.83900,-187.96254
2.83950,-173.9235973
2.84000,-159.8846545
2.84050,-153.7807664
2.84100,-144.0145453
2.84150,-115.6314654
2.84200,-82.67046938
2.84250,-73.51463715
2.84300,-82.97566378
2.84350,-75.34580359
2.84400,-35.36533618
2.84450,8.582658526
2.84500,30.86185029
2.84550,40.93326574
2.84600,60.77090224
2.84650,93.73189827
2.84700,131.5760048
2.84750,170.640889
2.84800,203.9070795
2.84850,213.3681061
2.84900,193.2252752
2.84950,165.1473897
2.85000,150.4980581
2.85050,141.9526147
2.85100,118.7578397
2.85150,79.99814993
2.85200,40.93326574
2.85250,6.446297672
2.85300,-30.48222566
2.85350,-68.93672103
2.85400,-94.87824568
2.85450,-100.6769394
2.85500,-90.60552398
2.85550,-72.90424833
2.85600,-51.8458342
2.85650,-32.0081977
2.85700,-18.88483817
2.85750,-9.729005936
2.85800,2.173575964
2.85850,20.79043483
2.85900,40.93326574
2.85950,55.88779172
2.86000,65.04362395
2.86050,72.97867855
2.86100,85.18645486
2.86150,105.0240914
2.86200,129.1344496
2.86250,148.9720861
2.86300,154.4655854
2.86350,139.205865
2.86400,108.9916187
2.86450,77.25140026
2.86500,54.36181968
2.86550,39.1020993
2.86600,18.65407398
2.86650,-14.91731087
2.86700,-61.00166643
2.86750,-112.2743269
2.86800,-164.1573762
2.86850,-213.9040647
2.86900,-252.3585601
2.86950,-269.1442525
2.87000,-261.8195867
2.87050,-236.1832565
2.87100,-198.3391499
2.87150,-151.3392111
2.87200,-103.1184947
2.87250,-64.66399932
2.87300,-39.9432523
2.87350,-21.93678224
2.87400,-3.319923375
2.87450,9.803436157
2.87500,6.75149208
2.87550,-14.30692205
2.87600,-43.9107796
2.87650,-70.46269307
2.87700,-89.07955194
2.87750,-101.5925227
2.87800,-110.7483549
2.87850,-117.7678263
2.87900,-119.5989927
2.87950,-112.2743269
2.88000,-96.09902332
2.88050,-76.26138682
2.88100,-59.7808888
2.88150,-46.04714045
2.88200,-30.17703125
2.88250,-9.423811529
2.88300,15.6021299
2.88350,46.12157067
2.88400,81.82931637
2.88450,118.4526453
2.88500,149.8876693
2.88550,175.2188051
2.88600,197.4979969
2.88650,216.1148558
2.88700,223.4395215
2.88750,214.5888837
2.88800,193.5304696
2.88850,170.0305002
2.88900,146.2253364
2.88950,117.5370621
2.89000,78.47217789
2.89050,29.94626706
2.89100,-19.80042139
2.89150,-63.7484161
2.89200,-97.93018976
2.89250,-123.56652
2.89300,-145.5405174
2.89350,-166.2937371
2.89400,-183.9950127
2.89450,-192.5404561
2.89500,-186.1313736
2.89550,-158.9690713
2.89600,-104.6444667
2.89650,-22.85236547
2.89700,69.31634566
2.89750,142.8681979
2.89800,178.881138
2.89850,183.7642485
2.89900,177.355166
2.89950,166.6733617
2.90000,147.1409196
2.90050,120.5890062
2.90100,100.4461752
2.90150,92.20592624
2.90200,82.43970519
2.90250,57.41376376
2.90300,22.62160128
2.90350,-5.456284228
2.90400,-18.57964376
2.90450,-18.88483817
2.90500,-12.47575561
2.90550,-5.456284228
2.90600,-1.793951336
2.90650,-0.8783681129
2.90700,7.056686487
2.90750,27.5047118
2.90800,50.69948679
2.90850,61.38129106
2.90900,57.10856935
2.90950,47.95273712
2.91000,40.62807133
2.91050,31.1670447
2.91100,12.24499142
2.91150,-16.1380885
2.91200,-49.40427894
2.91250,-80.22891412
2.91300,-98.84577299
2.91350,-96.09902332
2.91400,-72.29385952
2.91450,-39.63805789
2.91500,-10.94978357
2.91550,11.02421379
2.91600,31.77743351
2.91650,52.22545883
2.91700,71.75790092
2.91750,93.42670387
2.91800,121.199395
2.91850,150.1928637
2.91900,167.5889449
2.91950,166.3681673
2.92000,153.5500022
2.92050,139.205865
2.92100,126.9980887
2.92150,115.0955068
2.92200,102.2773417
2.92250,86.10203808
2.92300,62.29687428
2.92350,27.80990621
2.92400,-10.33939475
2.92450,-44.82636282
2.92500,-77.17697004
2.92550,-111.0535493
2.92600,-142.1833789
2.92650,-161.1054322
2.92700,-170.8716532
2.92750,-185.5209848
2.92800,-207.8001765
2.92850,-221.8391193
2.92900,-212.3780927
2.92950,-186.436568
2.93000,-159.8846545
2.93050,-136.9950739
2.93100,-108.9171884
2.93150,-75.34580359
2.93200,-47.57311249
2.93250,-34.75494737
2.93300,-32.31339211
2.93350,-29.56664244
2.93400,-18.88483817
2.93450,0.03721511018
