type,name,time_units,begin_time,frequency,count,units
signal,"Noraxon Ultium-RT BICEPS BR.","s",0.00000,2000,53200,"uV"

time,value
0.00000,-1.005723101
0.00050,-0.7005286929
0.00100,0.5202489379
0.00150,1.741026569
0.00200,1.741026569
0.00250,1.435832161
0.00300,1.741026569
0.00350,2.351415384
0.00400,2.046220976
0.00450,0.5202489379
0.00500,-0.09013987754
0.00550,0.8254433456
0.00600,2.046220976
0.00650,2.351415384
0.00700,1.741026569
0.00750,0.8254433456
0.00800,-0.09013987754
0.00850,-0.09013987754
0.00900,0.5202489379
0.00950,2.046220976
0.01000,2.351415384
0.01050,1.435832161
0.01100,0.5202489379
0.01150,0.2150545302
0.01200,-0.09013987754
0.01250,-0.09013987754
0.01300,-0.09013987754
0.01350,0.5202489379
0.01400,0.8254433456
0.01450,0.2150545302
0.01500,0.2150545302
0.01550,0.8254433456
0.01600,1.130637753
0.01650,0.2150545302
0.01700,-0.3953342852
0.01750,-0.09013987754
0.01800,0.8254433456
0.01850,1.130637753
0.01900,0.2150545302
0.01950,-0.09013987754
0.02000,0.5202489379
0.02050,0.5202489379
0.02100,-0.09013987754
0.02150,-0.3953342852
0.02200,0.8254433456
0.02250,2.351415384
0.02300,1.741026569
0.02350,-0.09013987754
0.02400,-0.3953342852
0.02450,0.2150545302
0.02500,0.5202489379
0.02550,0.2150545302
0.02600,-0.09013987754
0.02650,-0.09013987754
0.02700,-0.09013987754
0.02750,-0.3953342852
0.02800,-0.3953342852
0.02850,-0.09013987754
0.02900,0.2150545302
0.02950,-0.09013987754
0.03000,-0.7005286929
0.03050,-0.7005286929
0.03100,0.2150545302
0.03150,1.130637753
0.03200,1.130637753
0.03250,-0.09013987754
0.03300,-1.310917508
0.03350,-0.3953342852
0.03400,1.435832161
0.03450,2.046220976
0.03500,1.435832161
0.03550,0.8254433456
0.03600,1.130637753
0.03650,2.351415384
0.03700,3.266998607
0.03750,4.18258183
0.03800,5.098165053
0.03850,5.098165053
0.03900,4.18258183
0.03950,3.266998607
0.04000,2.656609792
0.04050,1.435832161
0.04100,0.2150545302
0.04150,-0.09013987754
0.04200,-0.09013987754
0.04250,0.2150545302
0.04300,-0.09013987754
0.04350,-0.09013987754
0.04400,0.5202489379
0.04450,0.5202489379
0.04500,-0.7005286929
0.04550,-2.226500731
0.04600,-2.226500731
0.04650,-1.616111916
0.04700,-2.226500731
0.04750,-3.142083955
0.04800,-2.836889547
0.04850,-1.921306324
0.04900,-2.836889547
0.04950,-4.057667178
0.05000,-4.057667178
0.05050,-3.447278362
0.05100,-4.362861585
0.05150,-6.194028032
0.05200,-6.499222439
0.05250,-5.583639216
0.05300,-5.583639216
0.05350,-7.109611255
0.05400,-7.109611255
0.05450,-4.362861585
0.05500,-1.616111916
0.05550,-1.005723101
0.05600,-1.921306324
0.05650,-1.921306324
0.05700,-1.616111916
0.05750,-2.226500731
0.05800,-3.142083955
0.05850,-3.75247277
0.05900,-3.75247277
0.05950,-3.447278362
0.06000,-2.836889547
0.06050,-1.616111916
0.06100,-0.09013987754
0.06150,-0.09013987754
0.06200,-0.3953342852
0.06250,-1.005723101
0.06300,-0.7005286929
0.06350,-0.09013987754
0.06400,0.8254433456
0.06450,1.741026569
0.06500,2.351415384
0.06550,2.656609792
0.06600,2.961804199
0.06650,2.656609792
0.06700,1.435832161
0.06750,0.2150545302
0.06800,0.5202489379
0.06850,1.435832161
0.06900,1.741026569
0.06950,1.741026569
0.07000,1.741026569
0.07050,1.741026569
0.07100,0.8254433456
0.07150,0.2150545302
0.07200,1.435832161
0.07250,3.266998607
0.07300,3.572193015
0.07350,2.046220976
0.07400,0.8254433456
0.07450,1.435832161
0.07500,2.351415384
0.07550,2.046220976
0.07600,2.046220976
0.07650,2.961804199
0.07700,3.266998607
0.07750,2.351415384
0.07800,1.130637753
0.07850,0.5202489379
0.07900,0.2150545302
0.07950,-0.09013987754
0.08000,-1.005723101
0.08050,-1.005723101
0.08100,-1.310917508
0.08150,-1.616111916
0.08200,-1.616111916
0.08250,-0.7005286929
0.08300,-0.3953342852
0.08350,-0.7005286929
0.08400,-1.310917508
0.08450,-1.310917508
0.08500,-1.616111916
0.08550,-1.921306324
0.08600,-1.005723101
0.08650,-0.09013987754
0.08700,0.2150545302
0.08750,-0.09013987754
0.08800,-0.3953342852
0.08850,0.5202489379
0.08900,1.435832161
0.08950,0.8254433456
0.09000,0.5202489379
0.09050,1.130637753
0.09100,0.8254433456
0.09150,-0.3953342852
0.09200,-1.005723101
0.09250,1.130637753
0.09300,4.487776238
0.09350,6.624137092
0.09400,8.455303538
0.09450,11.50724762
0.09500,13.94880288
0.09550,13.03321965
0.09600,10.59166439
0.09650,10.59166439
0.09700,12.72802525
0.09750,13.33841406
0.09800,10.28646998
0.09850,6.013748276
0.09900,2.961804199
0.09950,0.8254433456
0.10000,-1.310917508
0.10050,-4.362861585
0.10100,-6.499222439
0.10150,-7.72000007
0.10200,-8.635583293
0.10250,-10.16155533
0.10300,-11.07713855
0.10350,-10.77194415
0.10400,-10.77194415
0.10450,-11.38233296
0.10500,-12.29791619
0.10550,-11.07713855
0.10600,-8.330388885
0.10650,-6.194028032
0.10700,-5.888833624
0.10750,-6.194028032
0.10800,-5.278444808
0.10850,-4.057667178
0.10900,-4.668055993
0.10950,-5.888833624
0.11000,-6.194028032
0.11050,-5.888833624
0.11100,-7.109611255
0.11150,-9.245972109
0.11200,-8.635583293
0.11250,-4.362861585
0.11300,-0.7005286929
0.11350,0.2150545302
0.11400,0.8254433456
0.11450,3.266998607
0.11500,6.013748276
0.11550,6.013748276
0.11600,3.572193015
0.11650,2.046220976
0.11700,2.351415384
0.11750,2.046220976
0.11800,-0.09013987754
0.11850,-2.836889547
0.11900,-4.362861585
0.11950,-3.75247277
0.12000,-2.226500731
0.12050,-1.921306324
0.12100,-2.836889547
0.12150,-3.447278362
0.12200,-2.226500731
0.12250,-0.7005286929
0.12300,-0.09013987754
0.12350,0.2150545302
0.12400,1.130637753
0.12450,2.351415384
0.12500,2.351415384
0.12550,1.130637753
0.12600,0.8254433456
0.12650,2.656609792
0.12700,4.792970646
0.12750,4.792970646
0.12800,3.266998607
0.12850,2.351415384
0.12900,2.961804199
0.12950,3.877387423
0.13000,3.572193015
0.13050,2.656609792
0.13100,1.435832161
0.13150,0.8254433456
0.13200,1.130637753
0.13250,1.435832161
0.13300,1.741026569
0.13350,1.130637753
0.13400,0.5202489379
0.13450,0.5202489379
0.13500,0.8254433456
0.13550,1.130637753
0.13600,1.435832161
0.13650,1.130637753
0.13700,0.5202489379
0.13750,0.2150545302
0.13800,0.5202489379
0.13850,0.8254433456
0.13900,0.8254433456
0.13950,0.2150545302
0.14000,0.2150545302
0.14050,0.5202489379
0.14100,0.5202489379
0.14150,0.5202489379
0.14200,0.2150545302
0.14250,0.5202489379
0.14300,0.8254433456
0.14350,0.5202489379
0.14400,-0.09013987754
0.14450,-0.09013987754
0.14500,0.2150545302
0.14550,0.8254433456
0.14600,1.435832161
0.14650,1.435832161
0.14700,1.130637753
0.14750,0.5202489379
0.14800,0.2150545302
0.14850,0.5202489379
0.14900,1.130637753
0.14950,1.435832161
0.15000,0.8254433456
0.15050,-0.3953342852
0.15100,-1.616111916
0.15150,-1.310917508
0.15200,-0.09013987754
0.15250,1.741026569
0.15300,1.435832161
0.15350,0.2150545302
0.15400,-0.09013987754
0.15450,0.8254433456
0.15500,1.130637753
0.15550,-0.09013987754
0.15600,-1.310917508
0.15650,-0.09013987754
0.15700,0.8254433456
0.15750,0.5202489379
0.15800,-0.3953342852
0.15850,-0.09013987754
0.15900,2.046220976
0.15950,3.572193015
0.16000,2.961804199
0.16050,1.741026569
0.16100,1.435832161
0.16150,1.130637753
0.16200,0.2150545302
0.16250,-0.09013987754
0.16300,0.2150545302
0.16350,0.2150545302
0.16400,-0.09013987754
0.16450,-0.7005286929
0.16500,-0.3953342852
0.16550,-0.09013987754
0.16600,0.2150545302
0.16650,0.2150545302
0.16700,-0.09013987754
0.16750,-0.3953342852
0.16800,-1.005723101
0.16850,-1.005723101
0.16900,-0.7005286929
0.16950,-0.7005286929
0.17000,-0.7005286929
0.17050,-0.09013987754
0.17100,0.8254433456
0.17150,0.5202489379
0.17200,-1.921306324
0.17250,-4.362861585
0.17300,-4.057667178
0.17350,-2.226500731
0.17400,-1.310917508
0.17450,-1.310917508
0.17500,-1.616111916
0.17550,-1.921306324
0.17600,-2.531695139
0.17650,-3.447278362
0.17700,-2.531695139
0.17750,-0.3953342852
0.17800,-0.09013987754
0.17850,-1.310917508
0.17900,-2.226500731
0.17950,-1.005723101
0.18000,-0.09013987754
0.18050,-1.005723101
0.18100,-2.226500731
0.18150,-1.921306324
0.18200,-0.3953342852
0.18250,0.5202489379
0.18300,0.2150545302
0.18350,-0.09013987754
0.18400,-0.09013987754
0.18450,-0.09013987754
0.18500,-0.09013987754
0.18550,-0.09013987754
0.18600,-0.09013987754
0.18650,-0.3953342852
0.18700,-1.310917508
0.18750,-1.616111916
0.18800,-1.921306324
0.18850,-1.921306324
0.18900,-1.310917508
0.18950,-0.3953342852
0.19000,0.5202489379
0.19050,0.8254433456
0.19100,0.5202489379
0.19150,0.2150545302
0.19200,0.2150545302
0.19250,-0.3953342852
0.19300,-1.005723101
0.19350,-0.09013987754
0.19400,1.435832161
0.19450,2.046220976
0.19500,1.130637753
0.19550,-0.09013987754
0.19600,0.2150545302
0.19650,0.5202489379
0.19700,0.2150545302
0.19750,-0.09013987754
0.19800,0.2150545302
0.19850,1.130637753
0.19900,1.435832161
0.19950,1.435832161
0.20000,1.435832161
0.20050,2.046220976
0.20100,2.046220976
0.20150,1.435832161
0.20200,0.8254433456
0.20250,0.2150545302
0.20300,0.2150545302
0.20350,-0.09013987754
0.20400,-0.09013987754
0.20450,-0.3953342852
0.20500,-0.3953342852
0.20550,-0.3953342852
0.20600,-0.09013987754
0.20650,0.5202489379
0.20700,1.741026569
0.20750,2.351415384
0.20800,2.046220976
0.20850,1.435832161
0.20900,2.046220976
0.20950,2.656609792
0.21000,2.046220976
0.21050,0.8254433456
0.21100,0.2150545302
0.21150,1.435832161
0.21200,4.18258183
0.21250,6.9293315
0.21300,8.760497946
0.21350,8.760497946
0.21400,8.455303538
0.21450,8.455303538
0.21500,9.065692354
0.21550,9.065692354
0.21600,7.234525907
0.21650,4.487776238
0.21700,2.046220976
0.21750,0.5202489379
0.21800,-1.005723101
0.21850,-3.142083955
0.21900,-4.973250401
0.21950,-6.499222439
0.22000,-8.330388885
0.22050,-10.77194415
0.22100,-12.29791619
0.22150,-11.99272178
0.22200,-9.856360924
0.22250,-7.414805662
0.22300,-6.194028032
0.22350,-7.109611255
0.22400,-8.635583293
0.22450,-8.330388885
0.22500,-4.668055993
0.22550,-1.005723101
0.22600,0.2150545302
0.22650,-0.09013987754
0.22700,-0.3953342852
0.22750,-0.09013987754
0.22800,-0.3953342852
0.22850,-2.226500731
0.22900,-4.362861585
0.22950,-5.888833624
0.23000,-6.194028032
0.23050,-6.194028032
0.23100,-6.194028032
0.23150,-6.194028032
0.23200,-5.888833624
0.23250,-5.278444808
0.23300,-4.668055993
0.23350,-4.973250401
0.23400,-5.888833624
0.23450,-5.278444808
0.23500,-2.836889547
0.23550,-0.09013987754
0.23600,0.5202489379
0.23650,1.130637753
0.23700,1.435832161
0.23750,1.130637753
0.23800,-0.09013987754
0.23850,-0.7005286929
0.23900,0.2150545302
0.23950,1.130637753
0.24000,0.8254433456
0.24050,0.8254433456
0.24100,2.046220976
0.24150,2.656609792
0.24200,1.435832161
0.24250,0.2150545302
0.24300,1.435832161
0.24350,3.266998607
0.24400,3.266998607
0.24450,1.435832161
0.24500,0.8254433456
0.24550,1.741026569
0.24600,2.046220976
0.24650,1.130637753
0.24700,0.2150545302
0.24750,0.2150545302
0.24800,0.5202489379
0.24850,0.8254433456
0.24900,1.435832161
0.24950,2.351415384
0.25000,2.046220976
0.25050,1.130637753
0.25100,0.5202489379
0.25150,1.130637753
0.25200,1.130637753
0.25250,0.8254433456
0.25300,0.5202489379
0.25350,1.130637753
0.25400,0.8254433456
0.25450,-0.09013987754
0.25500,-0.09013987754
0.25550,1.130637753
0.25600,2.656609792
0.25650,2.046220976
0.25700,0.2150545302
0.25750,-0.7005286929
0.25800,-0.09013987754
0.25850,1.435832161
0.25900,2.351415384
0.25950,1.435832161
0.26000,0.2150545302
0.26050,-0.3953342852
0.26100,-0.09013987754
0.26150,-0.09013987754
0.26200,0.5202489379
0.26250,1.130637753
0.26300,1.435832161
0.26350,1.435832161
0.26400,0.5202489379
0.26450,-0.3953342852
0.26500,-1.005723101
0.26550,-1.005723101
0.26600,-0.7005286929
0.26650,-0.09013987754
0.26700,0.2150545302
0.26750,0.5202489379
0.26800,0.2150545302
0.26850,-0.09013987754
0.26900,0.2150545302
0.26950,-0.09013987754
0.27000,-0.3953342852
0.27050,-1.310917508
0.27100,-1.005723101
0.27150,0.2150545302
0.27200,1.741026569
0.27250,2.046220976
0.27300,1.130637753
0.27350,0.2150545302
0.27400,0.8254433456
0.27450,2.351415384
0.27500,2.961804199
0.27550,1.741026569
0.27600,0.5202489379
0.27650,0.2150545302
0.27700,0.5202489379
0.27750,0.2150545302
0.27800,-0.09013987754
0.27850,-0.3953342852
0.27900,-0.09013987754
0.27950,-0.3953342852
0.28000,-0.3953342852
0.28050,0.2150545302
0.28100,1.435832161
0.28150,1.435832161
0.28200,0.5202489379
0.28250,0.2150545302
0.28300,0.8254433456
0.28350,1.741026569
0.28400,1.130637753
0.28450,-0.09013987754
0.28500,-0.3953342852
0.28550,-0.09013987754
0.28600,0.2150545302
0.28650,1.130637753
0.28700,1.435832161
0.28750,1.130637753
0.28800,-0.09013987754
0.28850,-0.7005286929
0.28900,-1.005723101
0.28950,-0.3953342852
0.29000,0.2150545302
0.29050,0.5202489379
0.29100,0.2150545302
0.29150,-0.09013987754
0.29200,-0.09013987754
0.29250,-0.09013987754
0.29300,-0.09013987754
0.29350,-0.09013987754
0.29400,-0.09013987754
0.29450,0.2150545302
0.29500,0.5202489379
0.29550,0.5202489379
0.29600,0.8254433456
0.29650,0.8254433456
0.29700,0.2150545302
0.29750,-0.09013987754
0.29800,-0.3953342852
0.29850,-0.09013987754
0.29900,0.2150545302
0.29950,-0.7005286929
0.30000,-1.616111916
0.30050,-1.310917508
0.30100,-0.7005286929
0.30150,-0.09013987754
0.30200,0.5202489379
0.30250,1.435832161
0.30300,1.741026569
0.30350,1.130637753
0.30400,0.2150545302
0.30450,0.2150545302
0.30500,-0.09013987754
0.30550,-0.7005286929
0.30600,-1.921306324
0.30650,-1.310917508
0.30700,-0.09013987754
0.30750,0.2150545302
0.30800,-0.3953342852
0.30850,-1.310917508
0.30900,-0.09013987754
0.30950,0.8254433456
0.31000,1.130637753
0.31050,0.5202489379
0.31100,0.2150545302
0.31150,0.8254433456
0.31200,1.130637753
0.31250,1.130637753
0.31300,0.8254433456
0.31350,0.5202489379
0.31400,-0.09013987754
0.31450,-0.3953342852
0.31500,-0.09013987754
0.31550,0.2150545302
0.31600,-0.09013987754
0.31650,-0.09013987754
0.31700,-0.09013987754
0.31750,-0.09013987754
0.31800,-1.005723101
0.31850,-2.531695139
0.31900,-2.531695139
0.31950,-0.3953342852
0.32000,0.8254433456
0.32050,0.2150545302
0.32100,-1.616111916
0.32150,-1.921306324
0.32200,-0.7005286929
0.32250,0.5202489379
0.32300,-0.09013987754
0.32350,-1.005723101
0.32400,-1.616111916
0.32450,-1.310917508
0.32500,-1.005723101
0.32550,-1.310917508
0.32600,-1.005723101
0.32650,-0.3953342852
0.32700,-0.09013987754
0.32750,-0.09013987754
0.32800,-0.3953342852
0.32850,-0.7005286929
0.32900,-1.005723101
0.32950,-1.310917508
0.33000,-1.005723101
0.33050,-1.005723101
0.33100,-1.005723101
0.33150,-1.310917508
0.33200,-0.7005286929
0.33250,0.2150545302
0.33300,0.5202489379
0.33350,-0.09013987754
0.33400,-0.7005286929
0.33450,-0.3953342852
0.33500,0.2150545302
0.33550,0.2150545302
0.33600,-0.3953342852
0.33650,-1.310917508
0.33700,-1.005723101
0.33750,-0.09013987754
0.33800,1.130637753
0.33850,0.5202489379
0.33900,-0.09013987754
0.33950,-0.09013987754
0.34000,1.435832161
0.34050,2.351415384
0.34100,1.435832161
0.34150,0.5202489379
0.34200,1.130637753
0.34250,2.046220976
0.34300,2.351415384
0.34350,2.046220976
0.34400,2.351415384
0.34450,2.046220976
0.34500,1.741026569
0.34550,1.741026569
0.34600,2.046220976
0.34650,2.046220976
0.34700,0.8254433456
0.34750,-0.7005286929
0.34800,-1.005723101
0.34850,-0.3953342852
0.34900,0.8254433456
0.34950,1.435832161
0.35000,1.435832161
0.35050,0.2150545302
0.35100,-1.310917508
0.35150,-1.921306324
0.35200,-0.7005286929
0.35250,-0.09013987754
0.35300,-0.3953342852
0.35350,-1.310917508
0.35400,-1.616111916
0.35450,-2.226500731
0.35500,-3.75247277
0.35550,-4.973250401
0.35600,-4.973250401
0.35650,-3.75247277
0.35700,-2.226500731
0.35750,-1.005723101
0.35800,-0.09013987754
0.35850,-0.09013987754
0.35900,-0.09013987754
0.35950,-0.09013987754
0.36000,-0.3953342852
0.36050,-0.09013987754
0.36100,1.741026569
0.36150,5.403359461
0.36200,8.455303538
0.36250,8.15010913
0.36300,4.792970646
0.36350,2.351415384
0.36400,2.046220976
0.36450,1.741026569
0.36500,0.8254433456
0.36550,0.2150545302
0.36600,-0.09013987754
0.36650,-1.921306324
0.36700,-5.583639216
0.36750,-7.72000007
0.36800,-7.414805662
0.36850,-7.109611255
0.36900,-8.330388885
0.36950,-9.551166516
0.37000,-7.72000007
0.37050,-4.362861585
0.37100,-3.142083955
0.37150,-3.75247277
0.37200,-3.447278362
0.37250,-1.310917508
0.37300,-0.09013987754
0.37350,-1.005723101
0.37400,-2.531695139
0.37450,-3.142083955
0.37500,-2.836889547
0.37550,-1.616111916
0.37600,-0.7005286929
0.37650,-0.3953342852
0.37700,-1.005723101
0.37750,-1.616111916
0.37800,-0.7005286929
0.37850,0.5202489379
0.37900,0.5202489379
0.37950,-0.09013987754
0.38000,-0.09013987754
0.38050,-0.09013987754
0.38100,-1.005723101
0.38150,-2.531695139
0.38200,-3.142083955
0.38250,-2.226500731
0.38300,-2.531695139
0.38350,-3.447278362
0.38400,-3.75247277
0.38450,-2.836889547
0.38500,-1.616111916
0.38550,-1.616111916
0.38600,-1.005723101
0.38650,0.2150545302
0.38700,1.130637753
0.38750,0.8254433456
0.38800,0.5202489379
0.38850,0.8254433456
0.38900,1.130637753
0.38950,1.130637753
0.39000,1.130637753
0.39050,1.741026569
0.39100,1.741026569
0.39150,1.130637753
0.39200,0.8254433456
0.39250,1.435832161
0.39300,2.046220976
0.39350,0.8254433456
0.39400,0.2150545302
0.39450,1.130637753
0.39500,2.656609792
0.39550,2.656609792
0.39600,0.8254433456
0.39650,-0.09013987754
0.39700,-0.09013987754
0.39750,1.130637753
0.39800,2.046220976
0.39850,2.351415384
0.39900,2.046220976
0.39950,1.435832161
0.40000,1.130637753
0.40050,1.130637753
0.40100,1.130637753
0.40150,0.8254433456
0.40200,0.8254433456
0.40250,1.741026569
0.40300,2.046220976
0.40350,1.741026569
0.40400,1.435832161
0.40450,1.435832161
0.40500,1.435832161
0.40550,1.130637753
0.40600,0.8254433456
0.40650,1.130637753
0.40700,1.435832161
0.40750,1.130637753
0.40800,0.2150545302
0.40850,0.2150545302
0.40900,0.5202489379
0.40950,0.8254433456
0.41000,-0.09013987754
0.41050,-0.09013987754
0.41100,0.5202489379
0.41150,0.8254433456
0.41200,0.8254433456
0.41250,0.8254433456
0.41300,1.130637753
0.41350,1.130637753
0.41400,0.2150545302
0.41450,-0.09013987754
0.41500,0.8254433456
0.41550,2.046220976
0.41600,2.046220976
0.41650,0.8254433456
0.41700,0.2150545302
0.41750,1.130637753
0.41800,2.046220976
0.41850,2.046220976
0.41900,0.8254433456
0.41950,0.5202489379
0.42000,1.435832161
0.42050,2.046220976
0.42100,1.130637753
0.42150,-0.09013987754
0.42200,-0.09013987754
0.42250,1.130637753
0.42300,2.046220976
0.42350,0.8254433456
0.42400,-0.09013987754
0.42450,-0.7005286929
0.42500,-0.09013987754
0.42550,-0.09013987754
0.42600,-0.09013987754
0.42650,0.2150545302
0.42700,0.8254433456
0.42750,-0.09013987754
0.42800,-1.310917508
0.42850,-1.616111916
0.42900,-0.3953342852
0.42950,0.2150545302
0.43000,-0.09013987754
0.43050,-0.7005286929
0.43100,-0.09013987754
0.43150,0.8254433456
0.43200,0.5202489379
0.43250,-0.3953342852
0.43300,-0.09013987754
0.43350,0.8254433456
0.43400,1.741026569
0.43450,1.130637753
0.43500,-0.09013987754
0.43550,-0.09013987754
0.43600,1.435832161
0.43650,2.656609792
0.43700,2.961804199
0.43750,3.877387423
0.43800,5.403359461
0.43850,6.9293315
0.43900,6.013748276
0.43950,4.18258183
0.44000,2.961804199
0.44050,2.961804199
0.44100,2.351415384
0.44150,-0.09013987754
0.44200,-2.531695139
0.44250,-3.142083955
0.44300,-2.531695139
0.44350,-2.836889547
0.44400,-3.142083955
0.44450,-2.226500731
0.44500,-0.09013987754
0.44550,1.435832161
0.44600,0.8254433456
0.44650,-0.3953342852
0.44700,-1.310917508
0.44750,-1.616111916
0.44800,-2.226500731
0.44850,-2.836889547
0.44900,-2.836889547
0.44950,-2.226500731
0.45000,-1.921306324
0.45050,-2.531695139
0.45100,-4.362861585
0.45150,-6.804416847
0.45200,-7.72000007
0.45250,-7.109611255
0.45300,-7.109611255
0.45350,-7.72000007
0.45400,-7.72000007
0.45450,-6.194028032
0.45500,-5.278444808
0.45550,-5.583639216
0.45600,-6.194028032
0.45650,-5.278444808
0.45700,-3.447278362
0.45750,-2.836889547
0.45800,-2.836889547
0.45850,-2.531695139
0.45900,-1.310917508
0.45950,-1.005723101
0.46000,-1.310917508
0.46050,-1.005723101
0.46100,-0.09013987754
0.46150,-0.3953342852
0.46200,-2.226500731
0.46250,-3.142083955
0.46300,-1.921306324
0.46350,-1.005723101
0.46400,-1.005723101
0.46450,-1.310917508
0.46500,-0.3953342852
0.46550,0.8254433456
0.46600,1.741026569
0.46650,2.046220976
0.46700,2.046220976
0.46750,1.435832161
0.46800,0.2150545302
0.46850,-0.3953342852
0.46900,-0.09013987754
0.46950,0.8254433456
0.47000,1.130637753
0.47050,0.2150545302
0.47100,-0.09013987754
0.47150,0.2150545302
0.47200,0.5202489379
0.47250,1.130637753
0.47300,2.046220976
0.47350,2.656609792
0.47400,2.046220976
0.47450,0.8254433456
0.47500,0.8254433456
0.47550,2.046220976
0.47600,2.656609792
0.47650,1.435832161
0.47700,-0.09013987754
0.47750,-0.3953342852
0.47800,0.2150545302
0.47850,0.8254433456
0.47900,0.5202489379
0.47950,0.2150545302
0.48000,0.5202489379
0.48050,1.130637753
0.48100,1.130637753
0.48150,0.8254433456
0.48200,0.2150545302
0.48250,0.2150545302
0.48300,0.5202489379
0.48350,0.5202489379
0.48400,0.2150545302
0.48450,0.2150545302
0.48500,0.8254433456
0.48550,1.435832161
0.48600,1.130637753
0.48650,-0.09013987754
0.48700,-0.09013987754
0.48750,0.2150545302
0.48800,0.8254433456
0.48850,0.5202489379
0.48900,0.2150545302
0.48950,1.130637753
0.49000,2.351415384
0.49050,2.656609792
0.49100,1.130637753
0.49150,-0.09013987754
0.49200,0.2150545302
0.49250,0.8254433456
0.49300,0.2150545302
0.49350,-0.09013987754
0.49400,0.2150545302
0.49450,0.8254433456
0.49500,1.130637753
0.49550,1.130637753
0.49600,1.435832161
0.49650,1.435832161
0.49700,-0.09013987754
0.49750,-0.7005286929
0.49800,-0.3953342852
0.49850,0.5202489379
0.49900,0.2150545302
0.49950,-0.09013987754
0.50000,0.8254433456
0.50050,3.572193015
0.50100,4.792970646
0.50150,3.266998607
0.50200,1.741026569
0.50250,2.351415384
0.50300,4.792970646
0.50350,7.234525907
0.50400,8.455303538
0.50450,9.065692354
0.50500,9.981275577
0.50550,12.11763643
0.50600,13.64360847
0.50650,12.42283084
0.50700,7.844914723
0.50750,3.266998607
0.50800,1.741026569
0.50850,1.435832161
0.50900,-0.09013987754
0.50950,-4.057667178
0.51000,-6.499222439
0.51050,-6.499222439
0.51100,-6.194028032
0.51150,-7.72000007
0.51200,-9.856360924
0.51250,-11.38233296
0.51300,-11.68752737
0.51350,-11.07713855
0.51400,-9.551166516
0.51450,-7.414805662
0.51500,-6.804416847
0.51550,-7.414805662
0.51600,-7.72000007
0.51650,-6.804416847
0.51700,-5.583639216
0.51750,-4.973250401
0.51800,-4.668055993
0.51850,-3.75247277
0.51900,-2.836889547
0.51950,-2.836889547
0.52000,-3.447278362
0.52050,-3.447278362
0.52100,-3.142083955
0.52150,-3.447278362
0.52200,-4.668055993
0.52250,-5.278444808
0.52300,-4.668055993
0.52350,-4.057667178
0.52400,-3.142083955
0.52450,-2.226500731
0.52500,-0.7005286929
0.52550,0.5202489379
0.52600,1.130637753
0.52650,0.8254433456
0.52700,0.2150545302
0.52750,0.2150545302
0.52800,0.8254433456
0.52850,1.435832161
0.52900,1.435832161
0.52950,1.435832161
0.53000,1.435832161
0.53050,1.130637753
0.53100,1.435832161
0.53150,2.351415384
0.53200,2.961804199
0.53250,2.351415384
0.53300,1.130637753
0.53350,0.2150545302
0.53400,1.435832161
0.53450,2.656609792
0.53500,2.656609792
0.53550,1.130637753
0.53600,-0.09013987754
0.53650,-0.09013987754
0.53700,1.435832161
0.53750,2.656609792
0.53800,2.046220976
0.53850,1.130637753
0.53900,1.435832161
0.53950,2.046220976
0.54000,2.046220976
0.54050,0.8254433456
0.54100,-0.09013987754
0.54150,0.2150545302
0.54200,1.130637753
0.54250,1.435832161
0.54300,1.435832161
0.54350,1.741026569
0.54400,2.046220976
0.54450,1.435832161
0.54500,0.2150545302
0.54550,0.2150545302
0.54600,1.435832161
0.54650,2.351415384
0.54700,2.351415384
0.54750,1.435832161
0.54800,0.8254433456
0.54850,0.8254433456
0.54900,0.8254433456
0.54950,0.5202489379
0.55000,0.5202489379
0.55050,0.2150545302
0.55100,0.2150545302
0.55150,0.5202489379
0.55200,0.5202489379
0.55250,0.2150545302
0.55300,-0.3953342852
0.55350,-1.310917508
0.55400,-1.616111916
0.55450,-1.310917508
0.55500,-1.005723101
0.55550,-0.3953342852
0.55600,0.2150545302
0.55650,0.8254433456
0.55700,1.130637753
0.55750,0.2150545302
0.55800,-0.09013987754
0.55850,-0.09013987754
0.55900,0.5202489379
0.55950,0.8254433456
0.56000,-0.09013987754
0.56050,-0.7005286929
0.56100,-1.005723101
0.56150,-0.09013987754
0.56200,0.8254433456
0.56250,1.435832161
0.56300,0.8254433456
0.56350,-0.09013987754
0.56400,-0.09013987754
0.56450,0.5202489379
0.56500,0.8254433456
0.56550,0.2150545302
0.56600,0.2150545302
0.56650,1.130637753
0.56700,1.741026569
0.56750,-0.09013987754
0.56800,-2.531695139
0.56850,-2.531695139
0.56900,-0.3953342852
0.56950,0.5202489379
0.57000,-0.3953342852
0.57050,-1.005723101
0.57100,0.2150545302
0.57150,1.741026569
0.57200,1.435832161
0.57250,-0.09013987754
0.57300,-0.09013987754
0.57350,0.2150545302
0.57400,-0.09013987754
0.57450,-0.3953342852
0.57500,0.5202489379
0.57550,2.961804199
0.57600,3.266998607
0.57650,1.741026569
0.57700,0.5202489379
0.57750,0.5202489379
0.57800,0.5202489379
0.57850,-0.09013987754
0.57900,-0.7005286929
0.57950,-0.09013987754
0.58000,1.435832161
0.58050,1.741026569
0.58100,0.8254433456
0.58150,-0.09013987754
0.58200,0.2150545302
0.58250,1.130637753
0.58300,1.130637753
0.58350,1.130637753
0.58400,2.046220976
0.58450,3.572193015
0.58500,4.18258183
0.58550,4.18258183
0.58600,5.098165053
0.58650,6.013748276
0.58700,5.403359461
0.58750,2.961804199
0.58800,2.046220976
0.58850,4.18258183
0.58900,7.539720315
0.58950,7.539720315
0.59000,4.792970646
0.59050,1.435832161
0.59100,0.2150545302
0.59150,0.2150545302
0.59200,-0.09013987754
0.59250,-0.3953342852
0.59300,-1.616111916
0.59350,-2.531695139
0.59400,-3.142083955
0.59450,-3.447278362
0.59500,-4.057667178
0.59550,-5.583639216
0.59600,-5.888833624
0.59650,-4.668055993
0.59700,-2.836889547
0.59750,-2.836889547
0.59800,-4.668055993
0.59850,-6.499222439
0.59900,-7.109611255
0.59950,-5.583639216
0.60000,-3.142083955
0.60050,-0.09013987754
0.60100,2.351415384
0.60150,3.572193015
0.60200,2.351415384
0.60250,-0.3953342852
0.60300,-3.142083955
0.60350,-4.668055993
0.60400,-4.973250401
0.60450,-5.278444808
0.60500,-5.888833624
0.60550,-5.888833624
0.60600,-4.973250401
0.60650,-4.668055993
0.60700,-6.499222439
0.60750,-10.16155533
0.60800,-11.68752737
0.60850,-9.856360924
0.60900,-5.888833624
0.60950,-3.142083955
0.61000,-1.005723101
0.61050,0.8254433456
0.61100,2.656609792
0.61150,2.961804199
0.61200,1.435832161
0.61250,1.435832161
0.61300,3.266998607
0.61350,5.403359461
0.61400,5.403359461
0.61450,4.487776238
0.61500,3.572193015
0.61550,2.656609792
0.61600,0.8254433456
0.61650,-1.005723101
0.61700,-2.226500731
0.61750,-2.836889547
0.61800,-4.057667178
0.61850,-5.583639216
0.61900,-6.804416847
0.61950,-7.109611255
0.62000,-7.109611255
0.62050,-6.804416847
0.62100,-4.973250401
0.62150,-2.836889547
0.62200,-2.226500731
0.62250,-2.531695139
0.62300,-2.226500731
0.62350,-0.7005286929
0.62400,0.2150545302
0.62450,-0.09013987754
0.62500,-0.7005286929
0.62550,0.2150545302
0.62600,2.351415384
0.62650,3.877387423
0.62700,4.18258183
0.62750,4.487776238
0.62800,5.098165053
0.62850,4.487776238
0.62900,2.656609792
0.62950,1.130637753
0.63000,0.8254433456
0.63050,1.435832161
0.63100,2.046220976
0.63150,2.046220976
0.63200,1.435832161
0.63250,0.8254433456
0.63300,0.5202489379
0.63350,0.8254433456
0.63400,0.8254433456
0.63450,-0.09013987754
0.63500,-1.005723101
0.63550,-1.005723101
0.63600,-0.09013987754
0.63650,-0.09013987754
0.63700,-0.3953342852
0.63750,-1.005723101
0.63800,-0.09013987754
0.63850,1.130637753
0.63900,0.8254433456
0.63950,-0.3953342852
0.64000,-1.310917508
0.64050,-0.7005286929
0.64100,0.5202489379
0.64150,1.435832161
0.64200,0.8254433456
0.64250,-0.09013987754
0.64300,-0.7005286929
0.64350,-0.7005286929
0.64400,-0.3953342852
0.64450,-0.09013987754
0.64500,0.5202489379
0.64550,1.435832161
0.64600,2.046220976
0.64650,1.435832161
0.64700,1.435832161
0.64750,2.046220976
0.64800,2.351415384
0.64850,1.741026569
0.64900,1.130637753
0.64950,1.741026569
0.65000,2.961804199
0.65050,2.046220976
0.65100,-0.09013987754
0.65150,-1.005723101
0.65200,-0.09013987754
0.65250,0.2150545302
0.65300,-0.09013987754
0.65350,-0.09013987754
0.65400,0.5202489379
0.65450,1.741026569
0.65500,1.130637753
0.65550,0.2150545302
0.65600,0.5202489379
0.65650,1.741026569
0.65700,1.741026569
0.65750,0.2150545302
0.65800,-0.3953342852
0.65850,0.2150545302
0.65900,1.435832161
0.65950,1.435832161
0.66000,0.8254433456
0.66050,0.8254433456
0.66100,1.130637753
0.66150,0.8254433456
0.66200,-0.09013987754
0.66250,-0.09013987754
0.66300,0.2150545302
0.66350,0.8254433456
0.66400,0.2150545302
0.66450,-0.3953342852
0.66500,0.2150545302
0.66550,1.741026569
0.66600,1.741026569
0.66650,0.2150545302
0.66700,0.2150545302
0.66750,1.741026569
0.66800,2.351415384
0.66850,0.8254433456
0.66900,-0.09013987754
0.66950,0.5202489379
0.67000,1.741026569
0.67050,0.8254433456
0.67100,-0.09013987754
0.67150,-0.09013987754
0.67200,0.5202489379
0.67250,0.2150545302
0.67300,-0.3953342852
0.67350,-0.3953342852
0.67400,0.8254433456
0.67450,1.435832161
0.67500,0.2150545302
0.67550,-0.7005286929
0.67600,-0.3953342852
0.67650,-0.09013987754
0.67700,-0.3953342852
0.67750,-1.310917508
0.67800,-1.005723101
0.67850,-0.09013987754
0.67900,0.5202489379
0.67950,0.2150545302
0.68000,0.8254433456
0.68050,2.351415384
0.68100,3.266998607
0.68150,2.961804199
0.68200,2.656609792
0.68250,2.656609792
0.68300,2.046220976
0.68350,0.5202489379
0.68400,-0.09013987754
0.68450,0.8254433456
0.68500,1.130637753
0.68550,0.2150545302
0.68600,-0.3953342852
0.68650,0.2150545302
0.68700,1.435832161
0.68750,0.8254433456
0.68800,-1.005723101
0.68850,-0.7005286929
0.68900,1.130637753
0.68950,2.351415384
0.69000,1.130637753
0.69050,-0.09013987754
0.69100,-0.3953342852
0.69150,-0.7005286929
0.69200,-1.921306324
0.69250,-3.142083955
0.69300,-2.226500731
0.69350,-1.005723101
0.69400,-1.616111916
0.69450,-3.142083955
0.69500,-4.057667178
0.69550,-3.75247277
0.69600,-3.75247277
0.69650,-5.278444808
0.69700,-6.499222439
0.69750,-5.888833624
0.69800,-3.75247277
0.69850,-2.531695139
0.69900,-2.226500731
0.69950,-1.616111916
0.70000,-0.3953342852
0.70050,0.2150545302
0.70100,-0.09013987754
0.70150,-0.09013987754
0.70200,0.2150545302
0.70250,2.351415384
0.70300,3.572193015
0.70350,2.961804199
0.70400,2.046220976
0.70450,2.046220976
0.70500,1.741026569
0.70550,1.130637753
0.70600,0.5202489379
0.70650,1.130637753
0.70700,1.741026569
0.70750,0.5202489379
0.70800,-1.005723101
0.70850,-2.226500731
0.70900,-2.531695139
0.70950,-3.142083955
0.71000,-3.75247277
0.71050,-2.836889547
0.71100,-0.7005286929
0.71150,-0.09013987754
0.71200,-1.005723101
0.71250,-2.531695139
0.71300,-1.921306324
0.71350,-0.09013987754
0.71400,0.2150545302
0.71450,-0.7005286929
0.71500,-1.616111916
0.71550,-1.005723101
0.71600,0.2150545302
0.71650,0.2150545302
0.71700,-1.005723101
0.71750,-2.836889547
0.71800,-3.142083955
0.71850,-1.921306324
0.71900,-0.7005286929
0.71950,-0.7005286929
0.72000,-1.616111916
0.72050,-2.226500731
0.72100,-1.616111916
0.72150,-0.7005286929
0.72200,-0.3953342852
0.72250,-0.7005286929
0.72300,-0.3953342852
0.72350,0.2150545302
0.72400,0.8254433456
0.72450,0.2150545302
0.72500,0.2150545302
0.72550,0.5202489379
0.72600,0.8254433456
0.72650,0.8254433456
0.72700,0.8254433456
0.72750,1.130637753
0.72800,0.5202489379
0.72850,-0.7005286929
0.72900,-1.005723101
0.72950,-0.09013987754
0.73000,0.2150545302
0.73050,-0.09013987754
0.73100,-1.005723101
0.73150,-0.7005286929
0.73200,-0.09013987754
0.73250,-0.3953342852
0.73300,-2.531695139
0.73350,-3.142083955
0.73400,-1.921306324
0.73450,-0.09013987754
0.73500,0.2150545302
0.73550,-0.3953342852
0.73600,-1.616111916
0.73650,-1.921306324
0.73700,-1.310917508
0.73750,-0.7005286929
0.73800,-0.09013987754
0.73850,0.2150545302
0.73900,-0.09013987754
0.73950,-0.7005286929
0.74000,-0.3953342852
0.74050,0.2150545302
0.74100,1.130637753
0.74150,0.8254433456
0.74200,0.5202489379
0.74250,0.5202489379
0.74300,1.435832161
0.74350,1.741026569
0.74400,1.130637753
0.74450,-0.09013987754
0.74500,-0.09013987754
0.74550,0.5202489379
0.74600,0.8254433456
0.74650,0.5202489379
0.74700,0.5202489379
0.74750,1.130637753
0.74800,1.435832161
0.74850,0.2150545302
0.74900,-1.005723101
0.74950,-1.310917508
0.75000,-0.7005286929
0.75050,-0.3953342852
0.75100,-0.09013987754
0.75150,-0.09013987754
0.75200,0.8254433456
0.75250,2.046220976
0.75300,2.656609792
0.75350,2.046220976
0.75400,0.8254433456
0.75450,-0.3953342852
0.75500,-1.005723101
0.75550,-0.09013987754
0.75600,0.8254433456
0.75650,1.435832161
0.75700,1.130637753
0.75750,0.8254433456
0.75800,1.130637753
0.75850,1.130637753
0.75900,0.5202489379
0.75950,-0.09013987754
0.76000,-0.09013987754
0.76050,0.5202489379
0.76100,0.8254433456
0.76150,0.5202489379
0.76200,0.2150545302
0.76250,0.8254433456
0.76300,1.435832161
0.76350,0.5202489379
0.76400,-0.7005286929
0.76450,-1.005723101
0.76500,-0.09013987754
0.76550,0.2150545302
0.76600,0.2150545302
0.76650,0.2150545302
0.76700,0.2150545302
0.76750,0.2150545302
0.76800,-0.3953342852
0.76850,-1.310917508
0.76900,-1.616111916
0.76950,-1.005723101
0.77000,-0.09013987754
0.77050,1.130637753
0.77100,1.435832161
0.77150,0.8254433456
0.77200,-0.09013987754
0.77250,-0.3953342852
0.77300,-0.3953342852
0.77350,-0.3953342852
0.77400,-0.3953342852
0.77450,-1.005723101
0.77500,-1.005723101
0.77550,-1.005723101
0.77600,-0.3953342852
0.77650,-0.09013987754
0.77700,-0.09013987754
0.77750,-0.09013987754
0.77800,-0.09013987754
0.77850,-0.7005286929
0.77900,-1.616111916
0.77950,-1.616111916
0.78000,-1.005723101
0.78050,-0.09013987754
0.78100,-0.09013987754
0.78150,-1.005723101
0.78200,-1.616111916
0.78250,-1.005723101
0.78300,-0.09013987754
0.78350,-0.09013987754
0.78400,-0.7005286929
0.78450,-1.005723101
0.78500,-0.09013987754
0.78550,0.5202489379
0.78600,0.2150545302
0.78650,-0.7005286929
0.78700,-1.616111916
0.78750,-1.921306324
0.78800,-1.921306324
0.78850,-1.310917508
0.78900,-0.7005286929
0.78950,-0.3953342852
0.79000,-1.005723101
0.79050,-1.005723101
0.79100,-0.09013987754
0.79150,0.2150545302
0.79200,-0.09013987754
0.79250,-1.310917508
0.79300,-1.005723101
0.79350,0.2150545302
0.79400,1.435832161
0.79450,0.8254433456
0.79500,-0.09013987754
0.79550,-0.09013987754
0.79600,-0.09013987754
0.79650,-0.3953342852
0.79700,-0.09013987754
0.79750,1.435832161
0.79800,4.18258183
0.79850,4.792970646
0.79900,2.961804199
0.79950,0.2150545302
0.80000,-1.005723101
0.80050,-1.310917508
0.80100,-0.7005286929
0.80150,-0.3953342852
0.80200,-0.7005286929
0.80250,-0.7005286929
0.80300,-0.3953342852
0.80350,-0.09013987754
0.80400,-1.005723101
0.80450,-1.921306324
0.80500,-2.226500731
0.80550,-1.616111916
0.80600,-1.616111916
0.80650,-2.836889547
0.80700,-3.142083955
0.80750,-1.616111916
0.80800,-0.7005286929
0.80850,-1.005723101
0.80900,-1.616111916
0.80950,-1.310917508
0.81000,-0.3953342852
0.81050,-0.3953342852
0.81100,-1.005723101
0.81150,-0.3953342852
0.81200,0.2150545302
0.81250,-0.09013987754
0.81300,-1.005723101
0.81350,-2.226500731
0.81400,-1.616111916
0.81450,-0.3953342852
0.81500,0.2150545302
0.81550,0.5202489379
0.81600,0.5202489379
0.81650,0.5202489379
0.81700,0.5202489379
0.81750,0.5202489379
0.81800,0.5202489379
0.81850,0.5202489379
0.81900,0.8254433456
0.81950,0.8254433456
0.82000,0.5202489379
0.82050,0.5202489379
0.82100,1.130637753
0.82150,1.435832161
0.82200,0.2150545302
0.82250,-1.310917508
0.82300,-1.616111916
0.82350,-0.7005286929
0.82400,-0.09013987754
0.82450,-0.09013987754
0.82500,-0.09013987754
0.82550,1.130637753
0.82600,1.741026569
0.82650,0.2150545302
0.82700,-1.616111916
0.82750,-2.531695139
0.82800,-1.921306324
0.82850,-2.226500731
0.82900,-2.836889547
0.82950,-2.226500731
0.83000,-0.3953342852
0.83050,0.8254433456
0.83100,0.8254433456
0.83150,0.5202489379
0.83200,0.2150545302
0.83250,0.5202489379
0.83300,0.5202489379
0.83350,0.8254433456
0.83400,1.435832161
0.83450,1.435832161
0.83500,1.130637753
0.83550,0.8254433456
0.83600,1.130637753
0.83650,1.435832161
0.83700,1.741026569
0.83750,1.741026569
0.83800,2.046220976
0.83850,2.351415384
0.83900,1.741026569
0.83950,0.2150545302
0.84000,-0.09013987754
0.84050,0.2150545302
0.84100,0.5202489379
0.84150,0.2150545302
0.84200,-0.7005286929
0.84250,-0.7005286929
0.84300,-0.09013987754
0.84350,0.5202489379
0.84400,0.2150545302
0.84450,-0.09013987754
0.84500,0.5202489379
0.84550,1.435832161
0.84600,1.435832161
0.84650,0.8254433456
0.84700,0.2150545302
0.84750,-0.3953342852
0.84800,-0.3953342852
0.84850,-0.09013987754
0.84900,0.8254433456
0.84950,1.130637753
0.85000,1.130637753
0.85050,1.130637753
0.85100,1.130637753
0.85150,0.2150545302
0.85200,-1.005723101
0.85250,-1.310917508
0.85300,-0.09013987754
0.85350,1.130637753
0.85400,0.8254433456
0.85450,-0.3953342852
0.85500,-0.3953342852
0.85550,0.2150545302
0.85600,0.8254433456
0.85650,0.2150545302
0.85700,-0.09013987754
0.85750,-0.09013987754
0.85800,-0.09013987754
0.85850,-0.09013987754
0.85900,-0.09013987754
0.85950,0.2150545302
0.86000,0.2150545302
0.86050,-0.09013987754
0.86100,-0.09013987754
0.86150,0.2150545302
0.86200,0.2150545302
0.86250,-0.09013987754
0.86300,0.5202489379
0.86350,1.435832161
0.86400,2.046220976
0.86450,2.046220976
0.86500,2.351415384
0.86550,2.656609792
0.86600,1.741026569
0.86650,0.5202489379
0.86700,0.5202489379
0.86750,1.435832161
0.86800,1.130637753
0.86850,-0.09013987754
0.86900,-1.616111916
0.86950,-1.921306324
0.87000,-1.616111916
0.87050,-1.310917508
0.87100,-0.09013987754
0.87150,1.130637753
0.87200,1.435832161
0.87250,0.2150545302
0.87300,-1.005723101
0.87350,-0.3953342852
0.87400,1.741026569
0.87450,4.18258183
0.87500,4.792970646
0.87550,4.487776238
0.87600,3.877387423
0.87650,2.961804199
0.87700,1.435832161
0.87750,0.2150545302
0.87800,-0.3953342852
0.87850,-0.3953342852
0.87900,-1.005723101
0.87950,-1.921306324
0.88000,-2.836889547
0.88050,-3.447278362
0.88100,-3.75247277
0.88150,-3.75247277
0.88200,-4.057667178
0.88250,-3.75247277
0.88300,-3.142083955
0.88350,-2.836889547
0.88400,-3.447278362
0.88450,-4.668055993
0.88500,-5.278444808
0.88550,-4.362861585
0.88600,-2.836889547
0.88650,-1.616111916
0.88700,-1.921306324
0.88750,-2.836889547
0.88800,-3.142083955
0.88850,-2.226500731
0.88900,-1.005723101
0.88950,-0.7005286929
0.89000,-1.310917508
0.89050,-1.616111916
0.89100,-1.616111916
0.89150,-1.005723101
0.89200,-0.3953342852
0.89250,-0.09013987754
0.89300,0.2150545302
0.89350,0.5202489379
0.89400,-0.09013987754
0.89450,-1.005723101
0.89500,-1.005723101
0.89550,0.8254433456
0.89600,2.656609792
0.89650,2.046220976
0.89700,-0.09013987754
0.89750,-1.310917508
0.89800,-0.09013987754
0.89850,2.046220976
0.89900,1.741026569
0.89950,0.2150545302
0.90000,-0.09013987754
0.90050,0.8254433456
0.90100,1.435832161
0.90150,1.130637753
0.90200,0.5202489379
0.90250,-0.09013987754
0.90300,-0.3953342852
0.90350,-0.09013987754
0.90400,0.2150545302
0.90450,0.2150545302
0.90500,-0.7005286929
0.90550,-1.616111916
0.90600,-0.7005286929
0.90650,0.5202489379
0.90700,1.435832161
0.90750,1.130637753
0.90800,1.130637753
0.90850,1.741026569
0.90900,1.741026569
0.90950,1.130637753
0.91000,0.5202489379
0.91050,-0.09013987754
0.91100,-1.005723101
0.91150,-1.005723101
0.91200,0.2150545302
0.91250,1.741026569
0.91300,1.741026569
0.91350,0.2150545302
0.91400,-0.09013987754
0.91450,-0.09013987754
0.91500,0.5202489379
0.91550,0.8254433456
0.91600,1.741026569
0.91650,1.741026569
0.91700,0.5202489379
0.91750,-0.3953342852
0.91800,0.2150545302
0.91850,1.741026569
0.91900,2.046220976
0.91950,1.130637753
0.92000,0.5202489379
0.92050,0.5202489379
0.92100,0.2150545302
0.92150,-0.3953342852
0.92200,-0.09013987754
0.92250,0.5202489379
0.92300,0.5202489379
0.92350,-0.09013987754
0.92400,-0.09013987754
0.92450,0.8254433456
0.92500,1.435832161
0.92550,1.130637753
0.92600,1.130637753
0.92650,2.046220976
0.92700,2.961804199
0.92750,2.961804199
0.92800,2.656609792
0.92850,2.961804199
0.92900,2.351415384
0.92950,0.8254433456
0.93000,-0.09013987754
0.93050,-0.09013987754
0.93100,0.8254433456
0.93150,1.435832161
0.93200,0.5202489379
0.93250,0.5202489379
0.93300,2.046220976
0.93350,4.18258183
0.93400,3.572193015
0.93450,0.8254433456
0.93500,0.5202489379
0.93550,4.18258183
0.93600,7.844914723
0.93650,7.844914723
0.93700,6.013748276
0.93750,7.844914723
0.93800,12.42283084
0.93850,14.55919169
0.93900,11.50724762
0.93950,6.013748276
0.94000,2.656609792
0.94050,0.8254433456
0.94100,-0.3953342852
0.94150,-3.142083955
0.94200,-7.414805662
0.94250,-12.60311059
0.94300,-16.57063789
0.94350,-16.8758323
0.94400,-14.43427704
0.94450,-12.908305
0.94500,-14.12908263
0.94550,-16.26544349
0.94600,-17.18102671
0.94650,-16.57063789
0.94700,-15.04466585
0.94750,-12.60311059
0.94800,-10.77194415
0.94850,-10.46674974
0.94900,-10.46674974
0.94950,-8.635583293
0.95000,-5.583639216
0.95050,-3.75247277
0.95100,-4.362861585
0.95150,-4.668055993
0.95200,-3.75247277
0.95250,-1.921306324
0.95300,-1.005723101
0.95350,-0.7005286929
0.95400,-0.09013987754
0.95450,0.8254433456
0.95500,1.741026569
0.95550,2.961804199
0.95600,4.18258183
0.95650,4.792970646
0.95700,3.572193015
0.95750,2.046220976
0.95800,1.741026569
0.95850,2.351415384
0.95900,2.961804199
0.95950,2.961804199
0.96000,3.266998607
0.96050,4.487776238
0.96100,5.708553869
0.96150,4.792970646
0.96200,2.351415384
0.96250,0.8254433456
0.96300,1.741026569
0.96350,2.961804199
0.96400,2.656609792
0.96450,0.8254433456
0.96500,0.5202489379
0.96550,2.046220976
0.96600,3.266998607
0.96650,2.961804199
0.96700,2.351415384
0.96750,2.656609792
0.96800,2.351415384
0.96850,0.8254433456
0.96900,-0.3953342852
0.96950,-0.09013987754
0.97000,1.435832161
0.97050,2.656609792
0.97100,2.656609792
0.97150,2.046220976
0.97200,1.435832161
0.97250,0.8254433456
0.97300,0.8254433456
0.97350,0.8254433456
0.97400,1.130637753
0.97450,0.8254433456
0.97500,0.2150545302
0.97550,-0.09013987754
0.97600,0.5202489379
0.97650,1.130637753
0.97700,1.435832161
0.97750,1.435832161
0.97800,1.435832161
0.97850,0.8254433456
0.97900,-0.09013987754
0.97950,-1.005723101
0.98000,-1.005723101
0.98050,-0.09013987754
0.98100,0.8254433456
0.98150,0.8254433456
0.98200,0.2150545302
0.98250,0.8254433456
0.98300,1.741026569
0.98350,1.741026569
0.98400,1.435832161
0.98450,1.741026569
0.98500,2.351415384
0.98550,1.435832161
0.98600,-0.09013987754
0.98650,-0.09013987754
0.98700,0.2150545302
0.98750,0.2150545302
0.98800,-0.09013987754
0.98850,-0.09013987754
0.98900,0.8254433456
0.98950,1.130637753
0.99000,0.5202489379
0.99050,0.5202489379
0.99100,0.8254433456
0.99150,0.8254433456
0.99200,-0.09013987754
0.99250,-0.09013987754
0.99300,1.130637753
0.99350,1.435832161
0.99400,0.2150545302
0.99450,-0.09013987754
0.99500,0.2150545302
0.99550,0.2150545302
0.99600,-1.005723101
0.99650,-2.226500731
0.99700,-1.310917508
0.99750,-0.09013987754
0.99800,-0.7005286929
0.99850,-2.226500731
0.99900,-2.226500731
0.99950,-0.7005286929
1.00000,-0.09013987754
1.00050,-0.09013987754
1.00100,0.2150545302
1.00150,0.5202489379
1.00200,0.2150545302
1.00250,-0.09013987754
1.00300,0.2150545302
1.00350,1.130637753
1.00400,1.435832161
1.00450,0.5202489379
1.00500,-0.09013987754
1.00550,0.2150545302
1.00600,0.8254433456
1.00650,1.435832161
1.00700,1.435832161
1.00750,1.130637753
1.00800,0.5202489379
1.00850,-0.09013987754
1.00900,-0.3953342852
1.00950,-0.3953342852
1.01000,-0.7005286929
1.01050,-1.005723101
1.01100,-0.7005286929
1.01150,0.2150545302
1.01200,0.8254433456
1.01250,0.8254433456
1.01300,0.2150545302
1.01350,0.2150545302
1.01400,1.130637753
1.01450,1.741026569
1.01500,1.435832161
1.01550,0.5202489379
1.01600,0.8254433456
1.01650,2.656609792
1.01700,4.18258183
1.01750,3.877387423
1.01800,2.656609792
1.01850,1.435832161
1.01900,0.8254433456
1.01950,-0.09013987754
1.02000,-0.09013987754
1.02050,-0.3953342852
1.02100,-0.7005286929
1.02150,-0.7005286929
1.02200,-0.3953342852
1.02250,-0.3953342852
1.02300,-1.005723101
1.02350,-1.921306324
1.02400,-1.005723101
1.02450,0.2150545302
1.02500,1.130637753
1.02550,0.5202489379
1.02600,-0.09013987754
1.02650,-0.3953342852
1.02700,-1.310917508
1.02750,-1.921306324
1.02800,-1.005723101
1.02850,1.435832161
1.02900,2.961804199
1.02950,2.656609792
1.03000,1.130637753
1.03050,-0.7005286929
1.03100,-2.836889547
1.03150,-2.531695139
1.03200,0.2150545302
1.03250,3.266998607
1.03300,2.351415384
1.03350,-1.616111916
1.03400,-4.973250401
1.03450,-6.194028032
1.03500,-7.109611255
1.03550,-9.245972109
1.03600,-10.16155533
1.03650,-9.245972109
1.03700,-8.635583293
1.03750,-9.856360924
1.03800,-11.07713855
1.03850,-10.46674974
1.03900,-8.940777701
1.03950,-8.635583293
1.04000,-8.940777701
1.04050,-8.330388885
1.04100,-6.804416847
1.04150,-6.194028032
1.04200,-5.888833624
1.04250,-5.278444808
1.04300,-3.142083955
1.04350,-1.005723101
1.04400,1.130637753
1.04450,2.961804199
1.04500,3.266998607
1.04550,1.741026569
1.04600,-0.09013987754
1.04650,-0.09013987754
1.04700,1.435832161
1.04750,2.961804199
1.04800,2.961804199
1.04850,2.046220976
1.04900,1.435832161
1.04950,1.741026569
1.05000,1.741026569
1.05050,1.741026569
1.05100,2.351415384
1.05150,2.656609792
1.05200,2.046220976
1.05250,1.130637753
1.05300,0.5202489379
1.05350,1.130637753
1.05400,2.046220976
1.05450,2.046220976
1.05500,1.130637753
1.05550,0.5202489379
1.05600,1.130637753
1.05650,2.656609792
1.05700,3.266998607
1.05750,2.656609792
1.05800,1.741026569
1.05850,1.741026569
1.05900,2.046220976
1.05950,1.435832161
1.06000,0.2150545302
1.06050,-0.3953342852
1.06100,-0.3953342852
1.06150,0.2150545302
1.06200,0.2150545302
1.06250,-0.09013987754
1.06300,-0.3953342852
1.06350,0.5202489379
1.06400,2.656609792
1.06450,2.961804199
1.06500,0.8254433456
1.06550,-0.7005286929
1.06600,-0.09013987754
1.06650,1.741026569
1.06700,2.046220976
1.06750,-0.09013987754
1.06800,-1.005723101
1.06850,0.2150545302
1.06900,2.046220976
1.06950,1.741026569
1.07000,0.5202489379
1.07050,1.130637753
1.07100,2.656609792
1.07150,2.656609792
1.07200,0.5202489379
1.07250,-0.09013987754
1.07300,0.8254433456
1.07350,1.435832161
1.07400,0.5202489379
1.07450,-0.09013987754
1.07500,0.2150545302
1.07550,1.130637753
1.07600,0.5202489379
1.07650,-0.3953342852
1.07700,0.2150545302
1.07750,2.046220976
1.07800,2.351415384
1.07850,0.8254433456
1.07900,-0.09013987754
1.07950,1.130637753
1.08000,2.656609792
1.08050,2.961804199
1.08100,1.741026569
1.08150,0.5202489379
1.08200,0.2150545302
1.08250,0.5202489379
1.08300,0.5202489379
1.08350,0.5202489379
1.08400,0.2150545302
1.08450,0.2150545302
1.08500,0.2150545302
1.08550,0.8254433456
1.08600,1.435832161
1.08650,1.130637753
1.08700,0.2150545302
1.08750,-0.3953342852
1.08800,-0.3953342852
1.08850,-0.09013987754
1.08900,-0.09013987754
1.08950,0.2150545302
1.09000,0.2150545302
1.09050,-0.09013987754
1.09100,-0.09013987754
1.09150,-0.3953342852
1.09200,-0.09013987754
1.09250,0.2150545302
1.09300,0.5202489379
1.09350,0.5202489379
1.09400,0.2150545302
1.09450,-0.09013987754
1.09500,-0.7005286929
1.09550,-1.310917508
1.09600,-0.3953342852
1.09650,0.8254433456
1.09700,1.130637753
1.09750,0.2150545302
1.09800,-0.09013987754
1.09850,0.2150545302
1.09900,0.2150545302
1.09950,-0.09013987754
1.10000,-0.7005286929
1.10050,-1.005723101
1.10100,-0.7005286929
1.10150,-0.7005286929
1.10200,-1.005723101
1.10250,-0.7005286929
1.10300,-0.3953342852
1.10350,-0.09013987754
1.10400,-0.3953342852
1.10450,-0.7005286929
1.10500,-0.7005286929
1.10550,-0.3953342852
1.10600,-0.09013987754
1.10650,-0.09013987754
1.10700,0.8254433456
1.10750,1.435832161
1.10800,1.435832161
1.10850,0.5202489379
1.10900,-0.09013987754
1.10950,-0.3953342852
1.11000,-0.09013987754
1.11050,0.5202489379
1.11100,2.351415384
1.11150,4.18258183
1.11200,6.013748276
1.11250,7.539720315
1.11300,8.15010913
1.11350,7.539720315
1.11400,5.098165053
1.11450,2.046220976
1.11500,0.5202489379
1.11550,0.8254433456
1.11600,1.741026569
1.11650,1.435832161
1.11700,0.2150545302
1.11750,0.5202489379
1.11800,3.266998607
1.11850,6.9293315
1.11900,8.760497946
1.11950,8.455303538
1.12000,7.234525907
1.12050,5.098165053
1.12100,2.351415384
1.12150,-0.09013987754
1.12200,-1.005723101
1.12250,-0.7005286929
1.12300,-1.005723101
1.12350,-3.75247277
1.12400,-7.109611255
1.12450,-9.245972109
1.12500,-10.77194415
1.12550,-11.99272178
1.12600,-11.07713855
1.12650,-7.72000007
1.12700,-4.362861585
1.12750,-4.362861585
1.12800,-7.109611255
1.12850,-9.856360924
1.12900,-10.16155533
1.12950,-9.551166516
1.13000,-8.635583293
1.13050,-6.804416847
1.13100,-4.362861585
1.13150,-3.75247277
1.13200,-5.583639216
1.13250,-8.025194478
1.13300,-8.330388885
1.13350,-8.025194478
1.13400,-8.635583293
1.13450,-9.856360924
1.13500,-9.245972109
1.13550,-7.109611255
1.13600,-5.583639216
1.13650,-5.278444808
1.13700,-4.668055993
1.13750,-3.142083955
1.13800,-2.531695139
1.13850,-3.142083955
1.13900,-2.836889547
1.13950,-0.3953342852
1.14000,1.435832161
1.14050,1.130637753
1.14100,-0.3953342852
1.14150,-0.7005286929
1.14200,0.2150545302
1.14250,1.130637753
1.14300,0.2150545302
1.14350,-0.09013987754
1.14400,1.435832161
1.14450,3.877387423
1.14500,4.487776238
1.14550,3.266998607
1.14600,2.351415384
1.14650,3.266998607
1.14700,3.877387423
1.14750,3.877387423
1.14800,3.572193015
1.14850,4.18258183
1.14900,4.18258183
1.14950,3.572193015
1.15000,2.351415384
1.15050,1.130637753
1.15100,-0.09013987754
1.15150,-0.7005286929
1.15200,-0.09013987754
1.15250,1.130637753
1.15300,1.435832161
1.15350,0.5202489379
1.15400,-0.09013987754
1.15450,0.5202489379
1.15500,1.435832161
1.15550,1.435832161
1.15600,1.435832161
1.15650,2.046220976
1.15700,2.046220976
1.15750,0.8254433456
1.15800,0.2150545302
1.15850,1.435832161
1.15900,3.266998607
1.15950,3.572193015
1.16000,2.351415384
1.16050,1.435832161
1.16100,1.741026569
1.16150,2.046220976
1.16200,2.046220976
1.16250,1.741026569
1.16300,1.130637753
1.16350,0.8254433456
1.16400,0.5202489379
1.16450,0.5202489379
1.16500,0.8254433456
1.16550,1.130637753
1.16600,1.130637753
1.16650,0.8254433456
1.16700,-0.09013987754
1.16750,-0.7005286929
1.16800,-0.3953342852
1.16850,1.435832161
1.16900,2.656609792
1.16950,1.435832161
1.17000,-0.09013987754
1.17050,-0.09013987754
1.17100,1.435832161
1.17150,1.435832161
1.17200,-0.09013987754
1.17250,-1.310917508
1.17300,-0.7005286929
1.17350,0.2150545302
1.17400,0.5202489379
1.17450,0.2150545302
1.17500,0.2150545302
1.17550,0.5202489379
1.17600,0.5202489379
1.17650,0.5202489379
1.17700,1.435832161
1.17750,1.741026569
1.17800,0.8254433456
1.17850,-0.3953342852
1.17900,-1.005723101
1.17950,-0.3953342852
1.18000,0.5202489379
1.18050,0.5202489379
1.18100,-0.09013987754
1.18150,-0.09013987754
1.18200,1.130637753
1.18250,1.435832161
1.18300,0.5202489379
1.18350,-0.7005286929
1.18400,-0.7005286929
1.18450,0.8254433456
1.18500,2.046220976
1.18550,1.435832161
1.18600,-0.09013987754
1.18650,-1.005723101
1.18700,-0.3953342852
1.18750,-0.09013987754
1.18800,0.2150545302
1.18850,-0.09013987754
1.18900,-0.7005286929
1.18950,-0.7005286929
1.19000,-0.3953342852
1.19050,-0.09013987754
1.19100,-0.7005286929
1.19150,-1.616111916
1.19200,-1.616111916
1.19250,-0.3953342852
1.19300,0.5202489379
1.19350,0.5202489379
1.19400,-0.3953342852
1.19450,-1.616111916
1.19500,-1.005723101
1.19550,0.2150545302
1.19600,0.8254433456
1.19650,-0.09013987754
1.19700,-1.005723101
1.19750,-1.310917508
1.19800,-1.005723101
1.19850,-0.7005286929
1.19900,-0.3953342852
1.19950,-0.09013987754
1.20000,0.8254433456
1.20050,1.435832161
1.20100,1.130637753
1.20150,0.2150545302
1.20200,-0.09013987754
1.20250,0.5202489379
1.20300,1.130637753
1.20350,1.130637753
1.20400,-0.09013987754
1.20450,-0.7005286929
1.20500,-1.005723101
1.20550,-0.7005286929
1.20600,-0.3953342852
1.20650,-0.09013987754
1.20700,0.2150545302
1.20750,1.130637753
1.20800,1.130637753
1.20850,0.2150545302
1.20900,-0.09013987754
1.20950,0.2150545302
1.21000,1.130637753
1.21050,1.435832161
1.21100,0.8254433456
1.21150,0.5202489379
1.21200,1.130637753
1.21250,1.741026569
1.21300,1.130637753
1.21350,0.2150545302
1.21400,-0.09013987754
1.21450,-0.09013987754
1.21500,0.2150545302
1.21550,-0.09013987754
1.21600,-0.09013987754
1.21650,-0.3953342852
1.21700,-0.09013987754
1.21750,-0.09013987754
1.21800,-0.09013987754
1.21850,-0.3953342852
1.21900,-1.005723101
1.21950,-1.005723101
1.22000,-0.09013987754
1.22050,0.2150545302
1.22100,0.2150545302
1.22150,-0.09013987754
1.22200,0.2150545302
1.22250,0.5202489379
1.22300,0.5202489379
1.22350,-0.09013987754
1.22400,-0.7005286929
1.22450,-1.005723101
1.22500,-1.005723101
1.22550,-0.7005286929
1.22600,-0.09013987754
1.22650,0.8254433456
1.22700,1.130637753
1.22750,0.2150545302
1.22800,-0.09013987754
1.22850,-0.09013987754
1.22900,0.2150545302
1.22950,0.2150545302
1.23000,-0.3953342852
1.23050,-1.616111916
1.23100,-1.921306324
1.23150,-1.616111916
1.23200,-0.3953342852
1.23250,-0.09013987754
1.23300,-0.3953342852
1.23350,-1.310917508
1.23400,-0.7005286929
1.23450,0.8254433456
1.23500,1.435832161
1.23550,0.2150545302
1.23600,-1.616111916
1.23650,-2.226500731
1.23700,-1.616111916
1.23750,-1.616111916
1.23800,-1.921306324
1.23850,-2.531695139
1.23900,-2.836889547
1.23950,-3.142083955
1.24000,-2.226500731
1.24050,-0.09013987754
1.24100,2.351415384
1.24150,2.046220976
1.24200,0.5202489379
1.24250,-0.09013987754
1.24300,0.5202489379
1.24350,0.5202489379
1.24400,-0.09013987754
1.24450,-0.7005286929
1.24500,-0.7005286929
1.24550,-0.3953342852
1.24600,-0.7005286929
1.24650,-0.09013987754
1.24700,0.8254433456
1.24750,1.130637753
1.24800,-0.09013987754
1.24850,-1.310917508
1.24900,-1.005723101
1.24950,-0.3953342852
1.25000,-1.005723101
1.25050,-1.005723101
1.25100,-0.3953342852
1.25150,-0.09013987754
1.25200,-1.616111916
1.25250,-2.531695139
1.25300,-1.005723101
1.25350,0.5202489379
1.25400,-0.09013987754
1.25450,-1.616111916
1.25500,-1.921306324
1.25550,-0.7005286929
1.25600,-0.09013987754
1.25650,-0.7005286929
1.25700,-0.09013987754
1.25750,0.8254433456
1.25800,0.8254433456
1.25850,-0.3953342852
1.25900,-0.3953342852
1.25950,0.8254433456
1.26000,1.741026569
1.26050,0.5202489379
1.26100,-0.3953342852
1.26150,-0.09013987754
1.26200,0.5202489379
1.26250,0.2150545302
1.26300,-0.3953342852
1.26350,-0.09013987754
1.26400,1.741026569
1.26450,2.046220976
1.26500,1.130637753
1.26550,0.8254433456
1.26600,3.572193015
1.26650,6.624137092
1.26700,7.539720315
1.26750,6.624137092
1.26800,5.403359461
1.26850,5.098165053
1.26900,5.098165053
1.26950,4.18258183
1.27000,2.656609792
1.27050,1.435832161
1.27100,-0.09013987754
1.27150,-1.005723101
1.27200,-2.531695139
1.27250,-4.057667178
1.27300,-5.583639216
1.27350,-6.499222439
1.27400,-6.499222439
1.27450,-7.109611255
1.27500,-7.72000007
1.27550,-7.414805662
1.27600,-5.888833624
1.27650,-4.362861585
1.27700,-4.362861585
1.27750,-4.362861585
1.27800,-3.142083955
1.27850,-0.7005286929
1.27900,-0.09013987754
1.27950,-0.3953342852
1.28000,-0.3953342852
1.28050,0.5202489379
1.28100,0.8254433456
1.28150,-0.09013987754
1.28200,-0.7005286929
1.28250,0.2150545302
1.28300,1.741026569
1.28350,2.046220976
1.28400,0.8254433456
1.28450,-0.09013987754
1.28500,0.5202489379
1.28550,1.435832161
1.28600,2.046220976
1.28650,1.741026569
1.28700,2.046220976
1.28750,2.961804199
1.28800,4.18258183
1.28850,4.792970646
1.28900,4.792970646
1.28950,3.572193015
1.29000,2.046220976
1.29050,1.435832161
1.29100,2.046220976
1.29150,2.351415384
1.29200,2.046220976
1.29250,1.435832161
1.29300,1.130637753
1.29350,0.8254433456
1.29400,-0.09013987754
1.29450,-0.7005286929
1.29500,-0.3953342852
1.29550,-0.09013987754
1.29600,-0.09013987754
1.29650,-0.7005286929
1.29700,-1.310917508
1.29750,-1.310917508
1.29800,-1.310917508
1.29850,-1.616111916
1.29900,-1.921306324
1.29950,-1.310917508
1.30000,-1.005723101
1.30050,-1.005723101
1.30100,-1.310917508
1.30150,-1.005723101
1.30200,-0.09013987754
1.30250,-0.3953342852
1.30300,-1.310917508
1.30350,-2.531695139
1.30400,-2.531695139
1.30450,-1.616111916
1.30500,-0.3953342852
1.30550,0.2150545302
1.30600,-0.09013987754
1.30650,-0.7005286929
1.30700,-1.921306324
1.30750,-2.531695139
1.30800,-2.531695139
1.30850,-2.226500731
1.30900,-1.616111916
1.30950,-1.310917508
1.31000,-1.616111916
1.31050,-2.226500731
1.31100,-2.836889547
1.31150,-2.226500731
1.31200,-1.005723101
1.31250,-0.3953342852
1.31300,-1.005723101
1.31350,-1.921306324
1.31400,-1.616111916
1.31450,-0.09013987754
1.31500,0.8254433456
1.31550,0.5202489379
1.31600,-0.3953342852
1.31650,-1.005723101
1.31700,-0.3953342852
1.31750,-0.09013987754
1.31800,0.2150545302
1.31850,0.2150545302
1.31900,0.2150545302
1.31950,0.2150545302
1.32000,0.8254433456
1.32050,1.130637753
1.32100,1.130637753
1.32150,1.130637753
1.32200,1.435832161
1.32250,1.741026569
1.32300,1.130637753
1.32350,0.2150545302
1.32400,-0.09013987754
1.32450,-0.09013987754
1.32500,0.2150545302
1.32550,-0.3953342852
1.32600,-1.310917508
1.32650,-1.005723101
1.32700,0.2150545302
1.32750,1.130637753
1.32800,0.8254433456
1.32850,0.5202489379
1.32900,1.130637753
1.32950,2.656609792
1.33000,3.877387423
1.33050,3.266998607
1.33100,2.046220976
1.33150,0.8254433456
1.33200,0.2150545302
1.33250,0.2150545302
1.33300,0.8254433456
1.33350,0.8254433456
1.33400,0.8254433456
1.33450,0.5202489379
1.33500,0.8254433456
1.33550,1.435832161
1.33600,2.046220976
1.33650,1.741026569
1.33700,1.741026569
1.33750,1.741026569
1.33800,1.435832161
1.33850,0.2150545302
1.33900,-0.09013987754
1.33950,-0.09013987754
1.34000,-0.09013987754
1.34050,-0.7005286929
1.34100,-1.616111916
1.34150,-1.005723101
1.34200,0.5202489379
1.34250,1.435832161
1.34300,0.2150545302
1.34350,-1.310917508
1.34400,-1.921306324
1.34450,-1.310917508
1.34500,-1.310917508
1.34550,-1.921306324
1.34600,-1.310917508
1.34650,-0.09013987754
1.34700,0.5202489379
1.34750,0.5202489379
1.34800,0.5202489379
1.34850,0.2150545302
1.34900,-0.09013987754
1.34950,-0.3953342852
1.35000,-0.3953342852
1.35050,-0.09013987754
1.35100,-0.3953342852
1.35150,-0.09013987754
1.35200,0.8254433456
1.35250,2.046220976
1.35300,1.741026569
1.35350,0.2150545302
1.35400,-0.09013987754
1.35450,-0.09013987754
1.35500,-0.09013987754
1.35550,-0.09013987754
1.35600,-0.09013987754
1.35650,0.2150545302
1.35700,0.2150545302
1.35750,-0.7005286929
1.35800,-1.310917508
1.35850,-0.7005286929
1.35900,0.2150545302
1.35950,1.130637753
1.36000,1.130637753
1.36050,0.8254433456
1.36100,0.2150545302
1.36150,0.5202489379
1.36200,1.741026569
1.36250,2.656609792
1.36300,2.961804199
1.36350,3.266998607
1.36400,5.098165053
1.36450,7.234525907
1.36500,7.234525907
1.36550,5.403359461
1.36600,2.656609792
1.36650,0.8254433456
1.36700,-0.09013987754
1.36750,-0.7005286929
1.36800,-1.616111916
1.36850,-2.226500731
1.36900,-3.75247277
1.36950,-6.194028032
1.37000,-8.025194478
1.37050,-8.330388885
1.37100,-7.109611255
1.37150,-6.194028032
1.37200,-5.583639216
1.37250,-4.668055993
1.37300,-2.226500731
1.37350,-0.09013987754
1.37400,-0.09013987754
1.37450,-1.310917508
1.37500,-1.616111916
1.37550,-0.3953342852
1.37600,0.5202489379
1.37650,0.2150545302
1.37700,-1.005723101
1.37750,-1.310917508
1.37800,-1.616111916
1.37850,-1.921306324
1.37900,-2.226500731
1.37950,-1.005723101
1.38000,-0.09013987754
1.38050,-0.09013987754
1.38100,-1.616111916
1.38150,-2.226500731
1.38200,-1.310917508
1.38250,-0.09013987754
1.38300,1.130637753
1.38350,2.046220976
1.38400,2.351415384
1.38450,0.8254433456
1.38500,-1.005723101
1.38550,-2.226500731
1.38600,-1.310917508
1.38650,-0.3953342852
1.38700,-1.005723101
1.38750,-2.531695139
1.38800,-3.447278362
1.38850,-3.142083955
1.38900,-2.531695139
1.38950,-1.921306324
1.39000,-1.616111916
1.39050,-1.310917508
1.39100,-1.921306324
1.39150,-3.447278362
1.39200,-4.973250401
1.39250,-4.668055993
1.39300,-2.836889547
1.39350,-0.7005286929
1.39400,0.2150545302
1.39450,0.5202489379
1.39500,0.2150545302
1.39550,-0.09013987754
1.39600,-0.3953342852
1.39650,-0.7005286929
1.39700,-0.7005286929
1.39750,-1.310917508
1.39800,-1.921306324
1.39850,-1.616111916
1.39900,0.5202489379
1.39950,2.656609792
1.40000,2.351415384
1.40050,-0.09013987754
1.40100,-1.616111916
1.40150,-1.310917508
1.40200,-0.09013987754
1.40250,1.130637753
1.40300,1.435832161
1.40350,0.8254433456
1.40400,0.8254433456
1.40450,1.435832161
1.40500,1.741026569
1.40550,2.046220976
1.40600,1.741026569
1.40650,1.435832161
1.40700,1.435832161
1.40750,1.130637753
1.40800,-0.09013987754
1.40850,-0.09013987754
1.40900,0.2150545302
1.40950,1.130637753
1.41000,1.435832161
1.41050,0.8254433456
1.41100,0.8254433456
1.41150,0.8254433456
1.41200,0.2150545302
1.41250,-0.3953342852
1.41300,-1.005723101
1.41350,-0.7005286929
1.41400,-0.7005286929
1.41450,-0.7005286929
1.41500,-0.09013987754
1.41550,0.8254433456
1.41600,0.5202489379
1.41650,-0.09013987754
1.41700,0.5202489379
1.41750,1.741026569
1.41800,1.435832161
1.41850,-0.09013987754
1.41900,-1.005723101
1.41950,-0.09013987754
1.42000,0.2150545302
1.42050,-0.09013987754
1.42100,-0.7005286929
1.42150,-0.09013987754
1.42200,1.130637753
1.42250,1.435832161
1.42300,2.046220976
1.42350,2.656609792
1.42400,2.656609792
1.42450,0.5202489379
1.42500,-0.7005286929
1.42550,0.2150545302
1.42600,2.046220976
1.42650,2.046220976
1.42700,0.5202489379
1.42750,0.5202489379
1.42800,2.046220976
1.42850,2.656609792
1.42900,1.435832161
1.42950,0.5202489379
1.43000,0.8254433456
1.43050,1.435832161
1.43100,1.435832161
1.43150,1.130637753
1.43200,1.130637753
1.43250,0.8254433456
1.43300,0.5202489379
1.43350,0.5202489379
1.43400,1.130637753
1.43450,1.130637753
1.43500,0.5202489379
1.43550,0.5202489379
1.43600,1.741026569
1.43650,2.046220976
1.43700,0.5202489379
1.43750,-0.7005286929
1.43800,-0.09013987754
1.43850,2.351415384
1.43900,4.18258183
1.43950,3.877387423
1.44000,2.961804199
1.44050,3.266998607
1.44100,3.877387423
1.44150,4.18258183
1.44200,3.572193015
1.44250,2.961804199
1.44300,2.656609792
1.44350,2.046220976
1.44400,1.130637753
1.44450,0.2150545302
1.44500,-0.09013987754
1.44550,-0.09013987754
1.44600,-0.09013987754
1.44650,-0.7005286929
1.44700,-1.616111916
1.44750,-2.226500731
1.44800,-3.142083955
1.44850,-3.75247277
1.44900,-4.362861585
1.44950,-4.362861585
1.45000,-4.362861585
1.45050,-4.057667178
1.45100,-3.447278362
1.45150,-3.75247277
1.45200,-4.973250401
1.45250,-5.583639216
1.45300,-4.973250401
1.45350,-3.142083955
1.45400,-1.616111916
1.45450,-1.310917508
1.45500,-1.616111916
1.45550,-1.921306324
1.45600,-1.921306324
1.45650,-1.616111916
1.45700,-1.616111916
1.45750,-1.921306324
1.45800,-1.616111916
1.45850,-1.005723101
1.45900,-0.3953342852
1.45950,-0.7005286929
1.46000,-1.310917508
1.46050,-1.310917508
1.46100,-0.09013987754
1.46150,1.130637753
1.46200,1.435832161
1.46250,1.130637753
1.46300,0.8254433456
1.46350,0.8254433456
1.46400,1.130637753
1.46450,1.130637753
1.46500,1.130637753
1.46550,0.5202489379
1.46600,0.2150545302
1.46650,0.8254433456
1.46700,1.130637753
1.46750,-0.09013987754
1.46800,-1.310917508
1.46850,-1.616111916
1.46900,-0.09013987754
1.46950,1.435832161
1.47000,0.8254433456
1.47050,-0.09013987754
1.47100,-0.09013987754
1.47150,0.5202489379
1.47200,0.2150545302
1.47250,-0.7005286929
1.47300,-1.005723101
1.47350,-0.09013987754
1.47400,-0.09013987754
1.47450,-1.005723101
1.47500,-1.921306324
1.47550,-1.921306324
1.47600,-0.7005286929
1.47650,-0.09013987754
1.47700,-0.09013987754
1.47750,-0.09013987754
1.47800,-0.3953342852
1.47850,-0.3953342852
1.47900,-0.09013987754
1.47950,0.8254433456
1.48000,1.435832161
1.48050,1.130637753
1.48100,0.2150545302
1.48150,0.2150545302
1.48200,1.130637753
1.48250,1.741026569
1.48300,1.435832161
1.48350,0.8254433456
1.48400,0.5202489379
1.48450,-0.09013987754
1.48500,-0.09013987754
1.48550,0.2150545302
1.48600,1.435832161
1.48650,1.435832161
1.48700,0.5202489379
1.48750,-0.09013987754
1.48800,0.5202489379
1.48850,1.741026569
1.48900,1.741026569
1.48950,1.741026569
1.49000,2.046220976
1.49050,2.961804199
1.49100,3.266998607
1.49150,2.351415384
1.49200,2.351415384
1.49250,2.656609792
1.49300,2.656609792
1.49350,1.435832161
1.49400,-0.09013987754
1.49450,-0.3953342852
1.49500,-0.3953342852
1.49550,-1.005723101
1.49600,-1.921306324
1.49650,-2.531695139
1.49700,-1.005723101
1.49750,0.5202489379
1.49800,1.130637753
1.49850,-0.09013987754
1.49900,-1.310917508
1.49950,-0.3953342852
1.50000,0.8254433456
1.50050,1.435832161
1.50100,0.8254433456
1.50150,0.5202489379
1.50200,0.2150545302
1.50250,-0.7005286929
1.50300,-3.447278362
1.50350,-4.668055993
1.50400,-2.531695139
1.50450,0.2150545302
1.50500,1.130637753
1.50550,-0.09013987754
1.50600,-0.7005286929
1.50650,-0.7005286929
1.50700,-0.3953342852
1.50750,-0.7005286929
1.50800,-0.7005286929
1.50850,-1.005723101
1.50900,-1.616111916
1.50950,-2.531695139
1.51000,-2.836889547
1.51050,-2.836889547
1.51100,-3.142083955
1.51150,-3.447278362
1.51200,-3.142083955
1.51250,-2.531695139
1.51300,-2.226500731
1.51350,-1.616111916
1.51400,-1.005723101
1.51450,-1.310917508
1.51500,-2.836889547
1.51550,-3.75247277
1.51600,-2.836889547
1.51650,-1.616111916
1.51700,-0.7005286929
1.51750,-0.3953342852
1.51800,0.5202489379
1.51850,1.741026569
1.51900,1.741026569
1.51950,0.8254433456
1.52000,0.8254433456
1.52050,1.130637753
1.52100,0.8254433456
1.52150,0.2150545302
1.52200,0.8254433456
1.52250,2.351415384
1.52300,2.656609792
1.52350,1.741026569
1.52400,1.741026569
1.52450,2.656609792
1.52500,3.266998607
1.52550,3.572193015
1.52600,4.18258183
1.52650,4.487776238
1.52700,3.266998607
1.52750,1.435832161
1.52800,2.351415384
1.52850,5.403359461
1.52900,7.539720315
1.52950,7.539720315
1.53000,6.9293315
1.53050,7.234525907
1.53100,7.844914723
1.53150,7.844914723
1.53200,7.844914723
1.53250,7.844914723
1.53300,6.9293315
1.53350,5.098165053
1.53400,3.572193015
1.53450,2.046220976
1.53500,-0.09013987754
1.53550,-2.226500731
1.53600,-2.226500731
1.53650,-0.09013987754
1.53700,0.8254433456
1.53750,-1.310917508
1.53800,-5.278444808
1.53850,-7.72000007
1.53900,-8.940777701
1.53950,-10.77194415
1.54000,-13.51869382
1.54050,-15.65505467
1.54100,-16.26544349
1.54150,-15.65505467
1.54200,-15.04466585
1.54250,-14.73947145
1.54300,-14.73947145
1.54350,-14.12908263
1.54400,-11.38233296
1.54450,-7.414805662
1.54500,-4.057667178
1.54550,-2.836889547
1.54600,-1.921306324
1.54650,-1.005723101
1.54700,-0.3953342852
1.54750,-1.005723101
1.54800,-0.3953342852
1.54850,1.435832161
1.54900,3.572193015
1.54950,2.656609792
1.55000,0.5202489379
1.55050,-0.09013987754
1.55100,0.5202489379
1.55150,1.741026569
1.55200,3.877387423
1.55250,6.9293315
1.55300,9.981275577
1.55350,10.59166439
1.55400,8.760497946
1.55450,6.9293315
1.55500,6.624137092
1.55550,7.234525907
1.55600,7.844914723
1.55650,8.15010913
1.55700,7.234525907
1.55750,5.403359461
1.55800,4.18258183
1.55850,4.487776238
1.55900,5.098165053
1.55950,4.487776238
1.56000,2.656609792
1.56050,1.130637753
1.56100,-0.09013987754
1.56150,-1.616111916
1.56200,-4.362861585
1.56250,-5.583639216
1.56300,-4.973250401
1.56350,-4.057667178
1.56400,-4.362861585
1.56450,-6.194028032
1.56500,-8.025194478
1.56550,-8.025194478
1.56600,-6.804416847
1.56650,-5.278444808
1.56700,-4.668055993
1.56750,-4.668055993
1.56800,-4.057667178
1.56850,-3.142083955
1.56900,-2.531695139
1.56950,-1.921306324
1.57000,-1.005723101
1.57050,-0.09013987754
1.57100,-1.005723101
1.57150,-2.836889547
1.57200,-4.362861585
1.57250,-3.447278362
1.57300,-1.310917508
1.57350,-0.09013987754
1.57400,0.5202489379
1.57450,1.435832161
1.57500,2.656609792
1.57550,2.046220976
1.57600,0.5202489379
1.57650,-0.09013987754
1.57700,-0.09013987754
1.57750,1.130637753
1.57800,1.741026569
1.57850,1.741026569
1.57900,2.046220976
1.57950,2.046220976
1.58000,1.435832161
1.58050,1.435832161
1.58100,2.351415384
1.58150,2.656609792
1.58200,1.435832161
1.58250,0.5202489379
1.58300,0.8254433456
1.58350,1.741026569
1.58400,1.130637753
1.58450,0.2150545302
1.58500,1.435832161
1.58550,5.098165053
1.58600,6.624137092
1.58650,4.18258183
1.58700,1.435832161
1.58750,2.046220976
1.58800,4.792970646
1.58850,5.403359461
1.58900,3.572193015
1.58950,3.877387423
1.59000,9.065692354
1.59050,14.8643861
1.59100,16.08516373
1.59150,13.33841406
1.59200,10.59166439
1.59250,10.28646998
1.59300,11.50724762
1.59350,10.8968588
1.59400,7.539720315
1.59450,3.266998607
1.59500,0.2150545302
1.59550,-0.3953342852
1.59600,-0.09013987754
1.59650,-0.7005286929
1.59700,-2.531695139
1.59750,-5.278444808
1.59800,-8.330388885
1.59850,-11.07713855
1.59900,-12.60311059
1.59950,-12.29791619
1.60000,-11.68752737
1.60050,-12.29791619
1.60100,-13.21349941
1.60150,-11.68752737
1.60200,-8.940777701
1.60250,-7.72000007
1.60300,-8.330388885
1.60350,-7.109611255
1.60400,-2.836889547
1.60450,0.8254433456
1.60500,1.741026569
1.60550,1.130637753
1.60600,1.741026569
1.60650,2.961804199
1.60700,2.961804199
1.60750,3.266998607
1.60800,6.318942684
1.60850,10.28646998
1.60900,10.59166439
1.60950,6.013748276
1.61000,0.8254433456
1.61050,-1.005723101
1.61100,0.8254433456
1.61150,4.792970646
1.61200,7.539720315
1.61250,6.624137092
1.61300,3.572193015
1.61350,0.2150545302
1.61400,-1.921306324
1.61450,-4.973250401
1.61500,-9.245972109
1.61550,-13.21349941
1.61600,-15.04466585
1.61650,-15.65505467
1.61700,-16.26544349
1.61750,-16.57063789
1.61800,-16.57063789
1.61850,-16.26544349
1.61900,-15.96024908
1.61950,-13.82388822
1.62000,-8.940777701
1.62050,-4.057667178
1.62100,-2.226500731
1.62150,-2.226500731
1.62200,-0.7005286929
1.62250,3.266998607
1.62300,6.318942684
1.62350,6.013748276
1.62400,3.572193015
1.62450,1.741026569
1.62500,1.741026569
1.62550,1.435832161
1.62600,-0.09013987754
1.62650,-1.310917508
1.62700,-1.921306324
1.62750,-2.226500731
1.62800,-2.836889547
1.62850,-4.057667178
1.62900,-4.668055993
1.62950,-4.668055993
1.63000,-4.362861585
1.63050,-4.362861585
1.63100,-4.057667178
1.63150,-2.836889547
1.63200,-1.005723101
1.63250,0.2150545302
1.63300,0.8254433456
1.63350,1.130637753
1.63400,1.741026569
1.63450,2.351415384
1.63500,2.656609792
1.63550,2.656609792
1.63600,2.961804199
1.63650,3.266998607
1.63700,3.572193015
1.63750,2.961804199
1.63800,2.351415384
1.63850,2.351415384
1.63900,3.266998607
1.63950,4.792970646
1.64000,5.098165053
1.64050,4.487776238
1.64100,3.572193015
1.64150,3.266998607
1.64200,2.961804199
1.64250,2.351415384
1.64300,1.435832161
1.64350,0.2150545302
1.64400,-0.3953342852
1.64450,-0.09013987754
1.64500,0.8254433456
1.64550,2.351415384
1.64600,2.656609792
1.64650,1.741026569
1.64700,1.130637753
1.64750,0.8254433456
1.64800,0.5202489379
1.64850,0.2150545302
1.64900,0.2150545302
1.64950,1.130637753
1.65000,1.741026569
1.65050,1.130637753
1.65100,0.2150545302
1.65150,0.8254433456
1.65200,2.656609792
1.65250,3.877387423
1.65300,3.266998607
1.65350,2.046220976
1.65400,1.741026569
1.65450,2.046220976
1.65500,1.435832161
1.65550,0.5202489379
1.65600,0.5202489379
1.65650,1.435832161
1.65700,1.741026569
1.65750,0.8254433456
1.65800,0.2150545302
1.65850,0.5202489379
1.65900,1.130637753
1.65950,1.435832161
1.66000,1.741026569
1.66050,1.741026569
1.66100,1.741026569
1.66150,2.351415384
1.66200,3.572193015
1.66250,6.013748276
1.66300,7.539720315
1.66350,7.844914723
1.66400,6.9293315
1.66450,6.318942684
1.66500,5.708553869
1.66550,4.792970646
1.66600,3.877387423
1.66650,2.656609792
1.66700,1.741026569
1.66750,2.046220976
1.66800,3.266998607
1.66850,3.572193015
1.66900,2.046220976
1.66950,-0.09013987754
1.67000,-0.3953342852
1.67050,0.5202489379
1.67100,1.435832161
1.67150,0.5202489379
1.67200,-1.005723101
1.67250,-2.531695139
1.67300,-3.142083955
1.67350,-3.75247277
1.67400,-4.057667178
1.67450,-4.057667178
1.67500,-4.057667178
1.67550,-4.362861585
1.67600,-5.583639216
1.67650,-7.109611255
1.67700,-7.72000007
1.67750,-7.109611255
1.67800,-6.194028032
1.67850,-5.583639216
1.67900,-5.888833624
1.67950,-6.499222439
1.68000,-6.804416847
1.68050,-6.804416847
1.68100,-5.278444808
1.68150,-1.616111916
1.68200,2.046220976
1.68250,3.877387423
1.68300,2.656609792
1.68350,1.741026569
1.68400,2.046220976
1.68450,1.741026569
1.68500,-0.3953342852
1.68550,-2.531695139
1.68600,-1.616111916
1.68650,0.8254433456
1.68700,2.351415384
1.68750,2.351415384
1.68800,3.266998607
1.68850,4.18258183
1.68900,3.572193015
1.68950,1.741026569
1.69000,1.130637753
1.69050,3.266998607
1.69100,5.708553869
1.69150,6.624137092
1.69200,6.9293315
1.69250,8.15010913
1.69300,8.760497946
1.69350,7.844914723
1.69400,6.318942684
1.69450,6.624137092
1.69500,6.9293315
1.69550,5.708553869
1.69600,3.266998607
1.69650,1.741026569
1.69700,1.741026569
1.69750,0.5202489379
1.69800,-1.921306324
1.69850,-4.668055993
1.69900,-6.194028032
1.69950,-7.414805662
1.70000,-9.245972109
1.70050,-11.07713855
1.70100,-11.99272178
1.70150,-11.99272178
1.70200,-11.68752737
1.70250,-12.29791619
1.70300,-13.21349941
1.70350,-13.82388822
1.70400,-13.21349941
1.70450,-11.38233296
1.70500,-9.856360924
1.70550,-8.940777701
1.70600,-8.025194478
1.70650,-6.499222439
1.70700,-4.057667178
1.70750,-1.921306324
1.70800,-0.09013987754
1.70850,1.130637753
1.70900,2.961804199
1.70950,4.792970646
1.71000,5.098165053
1.71050,3.877387423
1.71100,1.741026569
1.71150,0.5202489379
1.71200,0.8254433456
1.71250,2.046220976
1.71300,3.266998607
1.71350,2.961804199
1.71400,2.351415384
1.71450,2.046220976
1.71500,2.351415384
1.71550,2.656609792
1.71600,2.656609792
1.71650,2.046220976
1.71700,1.741026569
1.71750,1.130637753
1.71800,0.5202489379
1.71850,0.8254433456
1.71900,1.741026569
1.71950,1.741026569
1.72000,1.741026569
1.72050,2.046220976
1.72100,2.351415384
1.72150,1.741026569
1.72200,0.2150545302
1.72250,-0.09013987754
1.72300,0.5202489379
1.72350,1.435832161
1.72400,1.435832161
1.72450,0.8254433456
1.72500,1.130637753
1.72550,1.741026569
1.72600,1.435832161
1.72650,0.2150545302
1.72700,-0.09013987754
1.72750,0.2150545302
1.72800,0.8254433456
1.72850,1.435832161
1.72900,1.435832161
1.72950,1.130637753
1.73000,0.2150545302
1.73050,-0.09013987754
1.73100,-0.09013987754
1.73150,0.5202489379
1.73200,0.8254433456
1.73250,1.435832161
1.73300,2.656609792
1.73350,3.266998607
1.73400,2.046220976
1.73450,0.5202489379
1.73500,0.2150545302
1.73550,1.130637753
1.73600,1.435832161
1.73650,0.2150545302
1.73700,-0.09013987754
1.73750,0.5202489379
1.73800,1.741026569
1.73850,1.130637753
1.73900,-0.09013987754
1.73950,-0.7005286929
1.74000,0.2150545302
1.74050,1.435832161
1.74100,1.435832161
1.74150,1.130637753
1.74200,1.741026569
1.74250,2.351415384
1.74300,2.351415384
1.74350,2.656609792
1.74400,4.18258183
1.74450,5.403359461
1.74500,4.792970646
1.74550,2.961804199
1.74600,2.961804199
1.74650,5.098165053
1.74700,6.013748276
1.74750,3.877387423
1.74800,1.130637753
1.74850,2.656609792
1.74900,7.539720315
1.74950,12.11763643
1.75000,13.03321965
1.75050,10.59166439
1.75100,6.9293315
1.75150,2.961804199
1.75200,0.2150545302
1.75250,-0.09013987754
1.75300,0.2150545302
1.75350,0.5202489379
1.75400,-0.09013987754
1.75450,-1.310917508
1.75500,-3.142083955
1.75550,-4.973250401
1.75600,-6.194028032
1.75650,-5.583639216
1.75700,-4.362861585
1.75750,-4.973250401
1.75800,-8.330388885
1.75850,-11.38233296
1.75900,-11.68752737
1.75950,-11.38233296
1.76000,-11.99272178
1.76050,-13.51869382
1.76100,-13.21349941
1.76150,-10.46674974
1.76200,-8.330388885
1.76250,-7.72000007
1.76300,-7.72000007
1.76350,-7.72000007
1.76400,-8.330388885
1.76450,-9.551166516
1.76500,-9.551166516
1.76550,-7.109611255
1.76600,-4.057667178
1.76650,-1.616111916
1.76700,0.8254433456
1.76750,5.403359461
1.76800,9.676081169
1.76850,10.59166439
1.76900,9.065692354
1.76950,6.624137092
1.77000,4.792970646
1.77050,3.572193015
1.77100,2.351415384
1.77150,2.351415384
1.77200,2.351415384
1.77250,1.741026569
1.77300,0.8254433456
1.77350,0.2150545302
1.77400,-0.09013987754
1.77450,-2.226500731
1.77500,-4.362861585
1.77550,-4.973250401
1.77600,-3.75247277
1.77650,-2.836889547
1.77700,-3.142083955
1.77750,-2.836889547
1.77800,-1.005723101
1.77850,-0.09013987754
1.77900,-0.7005286929
1.77950,-1.921306324
1.78000,-1.310917508
1.78050,-0.09013987754
1.78100,0.5202489379
1.78150,-0.09013987754
1.78200,-0.3953342852
1.78250,0.2150545302
1.78300,1.130637753
1.78350,1.130637753
1.78400,0.2150545302
1.78450,0.5202489379
1.78500,3.266998607
1.78550,6.318942684
1.78600,7.234525907
1.78650,5.708553869
1.78700,3.877387423
1.78750,2.961804199
1.78800,2.351415384
1.78850,0.8254433456
1.78900,-1.310917508
1.78950,-3.75247277
1.79000,-5.278444808
1.79050,-6.804416847
1.79100,-7.72000007
1.79150,-8.330388885
1.79200,-9.245972109
1.79250,-9.551166516
1.79300,-8.940777701
1.79350,-7.109611255
1.79400,-6.194028032
1.79450,-5.888833624
1.79500,-5.278444808
1.79550,-2.531695139
1.79600,-0.09013987754
1.79650,1.435832161
1.79700,1.741026569
1.79750,2.046220976
1.79800,3.572193015
1.79850,4.792970646
1.79900,3.877387423
1.79950,1.741026569
1.80000,0.5202489379
1.80050,1.435832161
1.80100,2.656609792
1.80150,3.266998607
1.80200,2.961804199
1.80250,2.656609792
1.80300,3.572193015
1.80350,4.487776238
1.80400,4.487776238
1.80450,3.877387423
1.80500,3.266998607
1.80550,2.351415384
1.80600,1.130637753
1.80650,0.8254433456
1.80700,1.435832161
1.80750,1.741026569
1.80800,1.435832161
1.80850,0.8254433456
1.80900,0.5202489379
1.80950,0.5202489379
1.81000,0.2150545302
1.81050,0.2150545302
1.81100,1.741026569
1.81150,2.961804199
1.81200,2.656609792
1.81250,2.046220976
1.81300,2.351415384
1.81350,2.656609792
1.81400,1.435832161
1.81450,-0.3953342852
1.81500,-0.7005286929
1.81550,0.2150545302
1.81600,0.8254433456
1.81650,0.2150545302
1.81700,-0.09013987754
1.81750,-0.3953342852
1.81800,-0.7005286929
1.81850,-0.7005286929
1.81900,-0.09013987754
1.81950,-0.09013987754
1.82000,-0.09013987754
1.82050,-0.09013987754
1.82100,1.435832161
1.82150,1.741026569
1.82200,-0.09013987754
1.82250,-0.3953342852
1.82300,3.572193015
1.82350,11.20205321
1.82400,15.77996932
1.82450,15.47477492
1.82500,14.25399728
1.82550,15.77996932
1.82600,18.52671899
1.82650,19.13710781
1.82700,17.30594136
1.82750,15.77996932
1.82800,14.25399728
1.82850,10.59166439
1.82900,4.18258183
1.82950,-0.09013987754
1.83000,2.351415384
1.83050,9.981275577
1.83100,15.77996932
1.83150,14.25399728
1.83200,7.844914723
1.83250,2.961804199
1.83300,0.8254433456
1.83350,-1.310917508
1.83400,-6.194028032
1.83450,-11.38233296
1.83500,-13.82388822
1.83550,-15.34986026
1.83600,-18.09660993
1.83650,-22.06413723
1.83700,-25.42127572
1.83750,-27.25244216
1.83800,-28.47321979
1.83850,-28.16802539
1.83900,-26.64205335
1.83950,-25.11608131
1.84000,-24.8108869
1.84050,-23.28491486
1.84100,-19.62258197
1.84150,-14.43427704
1.84200,-9.856360924
1.84250,-4.668055993
1.84300,2.351415384
1.84350,8.760497946
1.84400,10.8968588
1.84450,7.844914723
1.84500,4.18258183
1.84550,3.266998607
1.84600,5.098165053
1.84650,6.9293315
1.84700,6.318942684
1.84750,3.572193015
1.84800,-0.09013987754
1.84850,-2.226500731
1.84900,-1.616111916
1.84950,1.130637753
1.85000,3.572193015
1.85050,2.656609792
1.85100,-0.3953342852
1.85150,-2.836889547
1.85200,-3.142083955
1.85250,-3.142083955
1.85300,-4.973250401
1.85350,-5.583639216
1.85400,-2.836889547
1.85450,0.5202489379
1.85500,1.741026569
1.85550,0.8254433456
1.85600,1.741026569
1.85650,4.487776238
1.85700,5.708553869
1.85750,4.18258183
1.85800,2.656609792
1.85850,1.741026569
1.85900,-0.7005286929
1.85950,-4.668055993
1.86000,-5.888833624
1.86050,-3.447278362
1.86100,-1.921306324
1.86150,-5.583639216
1.86200,-10.77194415
1.86250,-13.21349941
1.86300,-13.21349941
1.86350,-14.73947145
1.86400,-17.18102671
1.86450,-17.18102671
1.86500,-13.82388822
1.86550,-9.856360924
1.86600,-7.72000007
1.86650,-8.025194478
1.86700,-9.856360924
1.86750,-11.38233296
1.86800,-10.46674974
1.86850,-6.499222439
1.86900,-2.531695139
1.86950,-1.310917508
1.87000,-1.616111916
1.87050,-0.09013987754
1.87100,3.572193015
1.87150,6.013748276
1.87200,6.318942684
1.87250,6.624137092
1.87300,7.844914723
1.87350,8.455303538
1.87400,8.15010913
1.87450,7.844914723
1.87500,7.844914723
1.87550,7.234525907
1.87600,6.318942684
1.87650,6.318942684
1.87700,7.234525907
1.87750,7.234525907
1.87800,4.792970646
1.87850,1.741026569
1.87900,1.130637753
1.87950,2.961804199
1.88000,4.487776238
1.88050,4.487776238
1.88100,3.877387423
1.88150,4.18258183
1.88200,4.487776238
1.88250,4.18258183
1.88300,3.877387423
1.88350,3.877387423
1.88400,2.961804199
1.88450,1.741026569
1.88500,1.130637753
1.88550,2.351415384
1.88600,3.877387423
1.88650,4.487776238
1.88700,4.18258183
1.88750,4.18258183
1.88800,3.877387423
1.88850,3.266998607
1.88900,2.351415384
1.88950,2.656609792
1.89000,3.572193015
1.89050,3.877387423
1.89100,3.572193015
1.89150,3.266998607
1.89200,2.656609792
1.89250,1.741026569
1.89300,1.130637753
1.89350,1.741026569
1.89400,2.656609792
1.89450,2.656609792
1.89500,2.046220976
1.89550,2.046220976
1.89600,2.961804199
1.89650,3.572193015
1.89700,3.266998607
1.89750,2.961804199
1.89800,2.961804199
1.89850,2.961804199
1.89900,2.656609792
1.89950,2.656609792
1.90000,2.656609792
1.90050,2.351415384
1.90100,1.435832161
1.90150,1.130637753
1.90200,1.130637753
1.90250,0.8254433456
1.90300,0.2150545302
1.90350,1.741026569
1.90400,4.792970646
1.90450,7.539720315
1.90500,7.539720315
1.90550,5.708553869
1.90600,5.403359461
1.90650,7.234525907
1.90700,9.065692354
1.90750,10.59166439
1.90800,15.16958051
1.90850,22.7994407
1.90900,28.90332885
1.90950,28.29294004
1.91000,21.57866307
1.91050,13.94880288
1.91100,7.844914723
1.91150,3.266998607
1.91200,0.8254433456
1.91250,0.8254433456
1.91300,1.741026569
1.91350,-0.09013987754
1.91400,-4.057667178
1.91450,-6.804416847
1.91500,-6.499222439
1.91550,-6.499222439
1.91600,-8.635583293
1.91650,-9.856360924
1.91700,-8.330388885
1.91750,-5.888833624
1.91800,-6.499222439
1.91850,-9.245972109
1.91900,-10.77194415
1.91950,-11.07713855
1.92000,-11.38233296
1.92050,-11.38233296
1.92100,-10.46674974
1.92150,-10.16155533
1.92200,-11.07713855
1.92250,-12.29791619
1.92300,-12.60311059
1.92350,-14.73947145
1.92400,-19.62258197
1.92450,-22.67452605
1.92500,-18.09660993
1.92550,-6.194028032
1.92600,5.098165053
1.92650,10.28646998
1.92700,9.676081169
1.92750,7.844914723
1.92800,6.624137092
1.92850,6.9293315
1.92900,6.318942684
1.92950,2.961804199
1.93000,-1.921306324
1.93050,-6.804416847
1.93100,-8.940777701
1.93150,-10.16155533
1.93200,-12.29791619
1.93250,-14.12908263
1.93300,-13.21349941
1.93350,-11.07713855
1.93400,-10.46674974
1.93450,-10.77194415
1.93500,-8.025194478
1.93550,-2.836889547
1.93600,0.5202489379
1.93650,2.656609792
1.93700,6.624137092
1.93750,13.03321965
1.93800,15.47477492
1.93850,10.59166439
1.93900,3.877387423
1.93950,2.046220976
1.94000,3.877387423
1.94050,4.18258183
1.94100,1.435832161
1.94150,-0.3953342852
1.94200,-0.3953342852
1.94250,-0.3953342852
1.94300,-1.921306324
1.94350,-3.447278362
1.94400,-3.75247277
1.94450,-3.447278362
1.94500,-3.447278362
1.94550,-3.142083955
1.94600,-1.616111916
1.94650,1.435832161
1.94700,4.487776238
1.94750,5.098165053
1.94800,3.572193015
1.94850,0.8254433456
1.94900,-0.7005286929
1.94950,-0.7005286929
1.95000,-0.3953342852
1.95050,-2.226500731
1.95100,-6.499222439
1.95150,-10.77194415
1.95200,-11.99272178
1.95250,-11.07713855
1.95300,-10.46674974
1.95350,-11.99272178
1.95400,-14.12908263
1.95450,-13.51869382
1.95500,-11.07713855
1.95550,-8.940777701
1.95600,-7.414805662
1.95650,-5.583639216
1.95700,-3.142083955
1.95750,-1.616111916
1.95800,-1.616111916
1.95850,-1.921306324
1.95900,-1.616111916
1.95950,-1.310917508
1.96000,-1.005723101
1.96050,-0.09013987754
1.96100,2.046220976
1.96150,3.877387423
1.96200,4.18258183
1.96250,3.572193015
1.96300,3.572193015
1.96350,3.572193015
1.96400,2.656609792
1.96450,2.046220976
1.96500,3.572193015
1.96550,6.318942684
1.96600,7.539720315
1.96650,6.624137092
1.96700,5.708553869
1.96750,5.403359461
1.96800,4.18258183
1.96850,2.961804199
1.96900,3.266998607
1.96950,5.098165053
1.97000,6.624137092
1.97050,6.318942684
1.97100,5.098165053
1.97150,4.792970646
1.97200,4.487776238
1.97250,3.572193015
1.97300,2.656609792
1.97350,2.961804199
1.97400,4.487776238
1.97450,5.098165053
1.97500,4.487776238
1.97550,3.266998607
1.97600,2.656609792
1.97650,2.656609792
1.97700,3.266998607
1.97750,3.572193015
1.97800,3.266998607
1.97850,2.961804199
1.97900,2.351415384
1.97950,1.741026569
1.98000,0.8254433456
1.98050,-0.09013987754
1.98100,0.2150545302
1.98150,1.130637753
1.98200,1.435832161
1.98250,1.130637753
1.98300,1.130637753
1.98350,2.046220976
1.98400,2.351415384
1.98450,0.8254433456
1.98500,-0.09013987754
1.98550,0.5202489379
1.98600,2.046220976
1.98650,2.046220976
1.98700,0.8254433456
1.98750,0.5202489379
1.98800,1.130637753
1.98850,1.130637753
1.98900,0.2150545302
1.98950,-0.09013987754
1.99000,0.5202489379
1.99050,1.435832161
1.99100,1.435832161
1.99150,0.5202489379
1.99200,0.2150545302
1.99250,-0.09013987754
1.99300,-0.3953342852
1.99350,-0.3953342852
1.99400,0.2150545302
1.99450,1.435832161
1.99500,1.435832161
1.99550,2.046220976
1.99600,4.487776238
1.99650,8.455303538
1.99700,11.81244202
1.99750,12.72802525
1.99800,13.03321965
1.99850,12.72802525
1.99900,11.81244202
1.99950,8.455303538
2.00000,4.792970646
2.00050,3.266998607
2.00100,6.013748276
2.00150,10.59166439
2.00200,11.81244202
2.00250,8.15010913
2.00300,2.351415384
2.00350,-0.3953342852
2.00400,-1.310917508
2.00450,-3.142083955
2.00500,-6.804416847
2.00550,-8.940777701
2.00600,-8.330388885
2.00650,-7.72000007
2.00700,-9.551166516
2.00750,-12.29791619
2.00800,-12.908305
2.00850,-11.38233296
2.00900,-10.46674974
2.00950,-11.07713855
2.01000,-11.99272178
2.01050,-11.38233296
2.01100,-10.46674974
2.01150,-10.16155533
2.01200,-9.551166516
2.01250,-8.940777701
2.01300,-8.025194478
2.01350,-7.414805662
2.01400,-6.804416847
2.01450,-5.583639216
2.01500,-4.362861585
2.01550,-4.057667178
2.01600,-4.057667178
2.01650,-2.836889547
2.01700,-0.09013987754
2.01750,3.877387423
2.01800,7.844914723
2.01850,12.72802525
2.01900,18.8319134
2.01950,24.32541274
2.02000,25.24099596
2.02050,19.74749662
2.02100,12.11763643
2.02150,8.455303538
2.02200,9.676081169
2.02250,11.50724762
2.02300,9.981275577
2.02350,6.318942684
2.02400,2.656609792
2.02450,-0.09013987754
2.02500,-1.616111916
2.02550,-4.057667178
2.02600,-6.804416847
2.02650,-10.16155533
2.02700,-11.99272178
2.02750,-10.16155533
2.02800,-5.278444808
2.02850,-1.310917508
2.02900,-1.921306324
2.02950,-5.278444808
2.03000,-8.330388885
2.03050,-8.635583293
2.03100,-6.499222439
2.03150,-3.75247277
2.03200,-1.616111916
2.03250,-1.616111916
2.03300,-3.447278362
2.03350,-5.583639216
2.03400,-6.804416847
2.03450,-8.025194478
2.03500,-10.46674974
2.03550,-12.60311059
2.03600,-11.99272178
2.03650,-8.025194478
2.03700,-2.836889547
2.03750,1.435832161
2.03800,3.266998607
2.03850,1.741026569
2.03900,-0.09013987754
2.03950,-0.3953342852
2.04000,0.8254433456
2.04050,1.130637753
2.04100,-0.09013987754
2.04150,0.5202489379
2.04200,4.487776238
2.04250,7.234525907
2.04300,4.487776238
2.04350,-2.531695139
2.04400,-7.72000007
2.04450,-8.330388885
2.04500,-8.025194478
2.04550,-8.635583293
2.04600,-10.16155533
2.04650,-11.68752737
2.04700,-13.21349941
2.04750,-14.43427704
2.04800,-12.908305
2.04850,-8.330388885
2.04900,-3.75247277
2.04950,-0.7005286929
2.05000,2.961804199
2.05050,8.455303538
2.05100,11.50724762
2.05150,8.455303538
2.05200,2.046220976
2.05250,-1.616111916
2.05300,-0.3953342852
2.05350,2.656609792
2.05400,4.18258183
2.05450,3.572193015
2.05500,2.656609792
2.05550,1.741026569
2.05600,-0.09013987754
2.05650,-3.447278362
2.05700,-8.635583293
2.05750,-12.60311059
2.05800,-13.51869382
2.05850,-12.60311059
2.05900,-11.38233296
2.05950,-11.07713855
2.06000,-10.77194415
2.06050,-9.551166516
2.06100,-8.025194478
2.06150,-7.414805662
2.06200,-5.583639216
2.06250,-2.226500731
2.06300,1.130637753
2.06350,2.351415384
2.06400,1.741026569
2.06450,1.435832161
2.06500,3.266998607
2.06550,7.234525907
2.06600,11.50724762
2.06650,14.55919169
2.06700,14.25399728
2.06750,12.11763643
2.06800,13.33841406
2.06850,19.74749662
2.06900,26.46177359
2.06950,27.07216241
2.07000,20.35788544
2.07050,12.42283084
2.07100,7.234525907
2.07150,4.18258183
2.07200,1.435832161
2.07250,-0.3953342852
2.07300,-2.226500731
2.07350,-4.362861585
2.07400,-5.888833624
2.07450,-3.75247277
2.07500,1.741026569
2.07550,7.539720315
2.07600,9.676081169
2.07650,7.234525907
2.07700,2.961804199
2.07750,-0.3953342852
2.07800,-2.531695139
2.07850,-2.836889547
2.07900,-2.226500731
2.07950,-1.921306324
2.08000,-1.921306324
2.08050,-1.310917508
2.08100,-0.09013987754
2.08150,1.435832161
2.08200,2.351415384
2.08250,3.572193015
2.08300,3.877387423
2.08350,2.961804199
2.08400,3.877387423
2.08450,10.59166439
2.08500,22.7994407
2.08550,31.95527293
2.08600,32.56566175
2.08650,27.07216241
2.08700,23.10463511
2.08750,23.40982952
2.08800,23.71502392
2.08850,19.13710781
2.08900,10.28646998
2.08950,-0.09013987754
2.09000,-10.16155533
2.09050,-21.45374842
2.09100,-33.66152472
2.09150,-43.12255136
2.09200,-46.17449544
2.09250,-43.73294018
2.09300,-41.90177373
2.09350,-43.73294018
2.09400,-47.09007866
2.09450,-46.47968985
2.09500,-40.37580169
2.09550,-32.13555269
2.09600,-25.11608131
2.09650,-19.62258197
2.09700,-13.21349941
2.09750,-4.057667178
2.09800,4.487776238
2.09850,8.15010913
2.09900,4.487776238
2.09950,-0.7005286929
2.10000,-2.226500731
2.10050,0.8254433456
2.10100,3.266998607
2.10150,2.961804199
2.10200,2.961804199
2.10250,5.708553869
2.10300,9.065692354
2.10350,9.981275577
2.10400,7.844914723
2.10450,4.18258183
2.10500,1.741026569
2.10550,2.656609792
2.10600,7.539720315
2.10650,13.64360847
2.10700,16.08516373
2.10750,13.94880288
2.10800,9.981275577
2.10850,6.9293315
2.10900,3.572193015
2.10950,-0.3953342852
2.11000,-1.616111916
2.11050,1.741026569
2.11100,8.760497946
2.11150,14.8643861
2.11200,18.52671899
2.11250,19.74749662
2.11300,18.52671899
2.11350,14.8643861
2.11400,12.42283084
2.11450,11.50724762
2.11500,10.8968588
2.11550,8.455303538
2.11600,5.098165053
2.11650,2.656609792
2.11700,-0.09013987754
2.11750,-4.362861585
2.11800,-8.635583293
2.11850,-10.77194415
2.11900,-11.68752737
2.11950,-14.12908263
2.12000,-16.26544349
2.12050,-15.34986026
2.12100,-13.21349941
2.12150,-13.82388822
2.12200,-17.48622112
2.12250,-18.40180434
2.12300,-14.73947145
2.12350,-11.07713855
2.12400,-10.46674974
2.12450,-10.77194415
2.12500,-7.72000007
2.12550,-1.616111916
2.12600,4.487776238
2.12650,10.59166439
2.12700,15.77996932
2.12750,17.00074695
2.12800,13.03321965
2.12850,9.065692354
2.12900,9.065692354
2.12950,10.59166439
2.13000,9.370886761
2.13050,7.844914723
2.13100,8.15010913
2.13150,7.234525907
2.13200,1.741026569
2.13250,-1.921306324
2.13300,3.266998607
2.13350,13.94880288
2.13400,19.13710781
2.13450,17.91633018
2.13500,19.44230222
2.13550,27.07216241
2.13600,30.7344953
2.13650,24.93580155
2.13700,16.39035814
2.13750,11.50724762
2.13800,7.539720315
2.13850,1.130637753
2.13900,-1.310917508
2.13950,4.18258183
2.14000,12.72802525
2.14050,13.33841406
2.14100,5.403359461
2.14150,-2.836889547
2.14200,-7.109611255
2.14250,-9.551166516
2.14300,-11.68752737
2.14350,-13.82388822
2.14400,-16.57063789
2.14450,-20.8433596
2.14500,-26.03166453
2.14550,-29.69399742
2.14600,-32.13555269
2.14650,-33.35633032
2.14700,-33.05113591
2.14750,-31.83035828
2.14800,-32.13555269
2.14850,-34.88230236
2.14900,-37.01866321
2.14950,-35.79788558
2.15000,-32.13555269
2.15050,-27.55763657
2.15100,-21.45374842
2.15150,-14.43427704
2.15200,-7.72000007
2.15250,-2.836889547
2.15300,1.741026569
2.15350,7.234525907
2.15400,10.59166439
2.15450,11.20205321
2.15500,12.42283084
2.15550,17.00074695
2.15600,22.18905188
2.15650,23.71502392
2.15700,21.57866307
2.15750,18.22152458
2.15800,14.25399728
2.15850,10.28646998
2.15900,8.455303538
2.15950,9.676081169
2.16000,11.81244202
2.16050,11.81244202
2.16100,10.59166439
2.16150,9.065692354
2.16200,6.624137092
2.16250,2.656609792
2.16300,0.5202489379
2.16350,2.046220976
2.16400,6.318942684
2.16450,8.760497946
2.16500,8.15010913
2.16550,6.318942684
2.16600,3.877387423
2.16650,1.435832161
2.16700,0.5202489379
2.16750,2.351415384
2.16800,5.403359461
2.16850,6.318942684
2.16900,4.487776238
2.16950,2.046220976
2.17000,0.2150545302
2.17050,-0.3953342852
2.17100,-1.921306324
2.17150,-3.75247277
2.17200,-5.583639216
2.17250,-6.194028032
2.17300,-5.278444808
2.17350,-4.973250401
2.17400,-6.804416847
2.17450,-9.245972109
2.17500,-10.16155533
2.17550,-9.551166516
2.17600,-8.940777701
2.17650,-8.025194478
2.17700,-5.583639216
2.17750,-2.531695139
2.17800,-1.310917508
2.17850,-1.616111916
2.17900,-1.005723101
2.17950,0.5202489379
2.18000,2.351415384
2.18050,3.572193015
2.18100,5.098165053
2.18150,7.234525907
2.18200,7.844914723
2.18250,7.539720315
2.18300,6.624137092
2.18350,4.487776238
2.18400,1.435832161
2.18450,1.130637753
2.18500,6.318942684
2.18550,15.16958051
2.18600,20.66307985
2.18650,20.35788544
2.18700,16.69555255
2.18750,13.33841406
2.18800,12.42283084
2.18850,15.16958051
2.18900,20.35788544
2.18950,24.02021833
2.19000,22.18905188
2.19050,15.47477492
2.19100,7.539720315
2.19150,2.351415384
2.19200,4.18258183
2.19250,12.11763643
2.19300,17.61113577
2.19350,11.20205321
2.19400,-1.310917508
2.19450,-4.668055993
2.19500,6.318942684
2.19550,17.61113577
2.19600,14.8643861
2.19650,4.18258183
2.19700,-1.310917508
2.19750,-1.921306324
2.19800,-4.973250401
2.19850,-9.856360924
2.19900,-12.29791619
2.19950,-15.04466585
2.20000,-22.97972046
2.20050,-27.55763657
2.20100,-19.31738756
2.20150,-5.888833624
2.20200,-2.531695139
2.20250,-8.940777701
2.20300,-11.68752737
2.20350,-8.025194478
2.20400,-6.499222439
2.20450,-9.245972109
2.20500,-6.499222439
2.20550,2.656609792
2.20600,6.624137092
2.20650,-0.09013987754
2.20700,-9.856360924
2.20750,-13.82388822
2.20800,-14.12908263
2.20850,-16.57063789
2.20900,-19.01219316
2.20950,-17.18102671
2.21000,-13.82388822
2.21050,-11.99272178
2.21100,-10.46674974
2.21150,-7.414805662
2.21200,-4.362861585
2.21250,-3.142083955
2.21300,-1.616111916
2.21350,-0.09013987754
2.21400,0.8254433456
2.21450,1.435832161
2.21500,4.487776238
2.21550,9.370886761
2.21600,12.11763643
2.21650,11.20205321
2.21700,9.981275577
2.21750,9.676081169
2.21800,9.370886761
2.21850,8.15010913
2.21900,9.065692354
2.21950,13.33841406
2.22000,16.69555255
2.22050,17.30594136
2.22100,17.30594136
2.22150,17.00074695
2.22200,13.03321965
2.22250,3.572193015
2.22300,-7.414805662
2.22350,-15.04466585
2.22400,-20.23297079
2.22450,-25.42127572
2.22500,-30.91477506
2.22550,-33.35633032
2.22600,-33.05113591
2.22650,-32.13555269
2.22700,-31.52516387
2.22750,-29.69399742
2.22800,-25.11608131
2.22850,-19.31738756
2.22900,-13.51869382
2.22950,-8.635583293
2.23000,-4.057667178
2.23050,-0.3953342852
2.23100,1.741026569
2.23150,2.351415384
2.23200,1.435832161
2.23250,0.2150545302
2.23300,0.8254433456
2.23350,1.741026569
2.23400,0.8254433456
2.23450,-1.616111916
2.23500,-2.531695139
2.23550,0.5202489379
2.23600,6.318942684
2.23650,10.59166439
2.23700,12.42283084
2.23750,12.72802525
2.23800,12.72802525
2.23850,11.81244202
2.23900,10.28646998
2.23950,9.065692354
2.24000,7.539720315
2.24050,7.234525907
2.24100,6.9293315
2.24150,6.318942684
2.24200,3.266998607
2.24250,-0.09013987754
2.24300,-1.310917508
2.24350,-0.7005286929
2.24400,-1.005723101
2.24450,-3.447278362
2.24500,-4.057667178
2.24550,-1.921306324
2.24600,0.2150545302
2.24650,-0.09013987754
2.24700,-0.3953342852
2.24750,0.2150545302
2.24800,1.130637753
2.24850,0.2150545302
2.24900,0.5202489379
2.24950,3.572193015
2.25000,6.9293315
2.25050,7.539720315
2.25100,6.624137092
2.25150,6.624137092
2.25200,6.624137092
2.25250,5.708553869
2.25300,5.708553869
2.25350,8.760497946
2.25400,12.11763643
2.25450,12.42283084
2.25500,10.28646998
2.25550,9.065692354
2.25600,8.760497946
2.25650,7.844914723
2.25700,6.624137092
2.25750,5.708553869
2.25800,4.18258183
2.25850,0.2150545302
2.25900,-3.447278362
2.25950,-4.057667178
2.26000,-2.531695139
2.26050,-1.921306324
2.26100,-2.226500731
2.26150,-0.7005286929
2.26200,2.046220976
2.26250,2.961804199
2.26300,1.741026569
2.26350,0.8254433456
2.26400,0.5202489379
2.26450,-0.7005286929
2.26500,-2.531695139
2.26550,-1.616111916
2.26600,3.572193015
2.26650,9.981275577
2.26700,14.25399728
2.26750,15.16958051
2.26800,11.50724762
2.26850,6.318942684
2.26900,5.403359461
2.26950,13.33841406
2.27000,25.24099596
2.27050,29.20852326
2.27100,22.7994407
2.27150,14.25399728
2.27200,11.50724762
2.27250,12.72802525
2.27300,10.28646998
2.27350,2.046220976
2.27400,-5.278444808
2.27450,-7.72000007
2.27500,-4.973250401
2.27550,-3.75247277
2.27600,-8.940777701
2.27650,-17.18102671
2.27700,-19.62258197
2.27750,-11.38233296
2.27800,0.5202489379
2.27850,4.792970646
2.27900,-1.921306324
2.27950,-12.60311059
2.28000,-17.18102671
2.28050,-15.96024908
2.28100,-16.57063789
2.28150,-21.45374842
2.28200,-26.64205335
2.28250,-26.94724776
2.28300,-22.36933164
2.28350,-16.8758323
2.28400,-13.82388822
2.28450,-13.21349941
2.28500,-12.60311059
2.28550,-9.856360924
2.28600,-5.888833624
2.28650,-4.057667178
2.28700,-4.057667178
2.28750,-2.531695139
2.28800,2.961804199
2.28850,8.760497946
2.28900,7.539720315
2.28950,-1.005723101
2.29000,-10.16155533
2.29050,-14.12908263
2.29100,-13.82388822
2.29150,-13.51869382
2.29200,-14.73947145
2.29250,-13.82388822
2.29300,-11.68752737
2.29350,-10.77194415
2.29400,-12.908305
2.29450,-15.65505467
2.29500,-16.57063789
2.29550,-15.04466585
2.29600,-11.07713855
2.29650,-4.973250401
2.29700,0.5202489379
2.29750,2.961804199
2.29800,3.877387423
2.29850,6.013748276
2.29900,10.59166439
2.29950,14.8643861
2.30000,17.30594136
2.30050,19.74749662
2.30100,21.57866307
2.30150,19.74749662
2.30200,13.03321965
2.30250,6.013748276
2.30300,2.351415384
2.30350,2.351415384
2.30400,1.435832161
2.30450,-0.7005286929
2.30500,-2.531695139
2.30550,-2.836889547
2.30600,-3.142083955
2.30650,-4.668055993
2.30700,-5.278444808
2.30750,-4.057667178
2.30800,-2.226500731
2.30850,-1.005723101
2.30900,-0.09013987754
2.30950,2.046220976
2.31000,3.877387423
2.31050,4.487776238
2.31100,3.572193015
2.31150,3.877387423
2.31200,5.708553869
2.31250,7.844914723
2.31300,8.15010913
2.31350,7.234525907
2.31400,6.624137092
2.31450,6.624137092
2.31500,6.318942684
2.31550,6.013748276
2.31600,5.098165053
2.31650,3.266998607
2.31700,0.2150545302
2.31750,-0.7005286929
2.31800,1.130637753
2.31850,4.18258183
2.31900,3.266998607
2.31950,-2.531695139
2.32000,-7.72000007
2.32050,-7.72000007
2.32100,-4.668055993
2.32150,-3.142083955
2.32200,-2.836889547
2.32250,-0.7005286929
2.32300,2.656609792
2.32350,3.877387423
2.32400,2.656609792
2.32450,4.18258183
2.32500,9.676081169
2.32550,13.94880288
2.32600,13.94880288
2.32650,15.47477492
2.32700,24.93580155
2.32750,36.22799464
2.32800,38.05916109
2.32850,28.29294004
2.32900,18.22152458
2.32950,16.39035814
2.33000,18.22152458
2.33050,14.8643861
2.33100,5.403359461
2.33150,-4.362861585
2.33200,-9.856360924
2.33250,-12.29791619
2.33300,-15.34986026
2.33350,-21.14855401
2.33400,-28.16802539
2.33450,-33.05113591
2.33500,-32.44074709
2.33550,-27.55763657
2.33600,-24.20049809
2.33650,-24.8108869
2.33700,-25.42127572
2.33750,-22.06413723
2.33800,-15.65505467
2.33850,-9.245972109
2.33900,-5.278444808
2.33950,-3.75247277
2.34000,-4.362861585
2.34050,-5.278444808
2.34100,-6.499222439
2.34150,-8.025194478
2.34200,-8.940777701
2.34250,-8.635583293
2.34300,-7.414805662
2.34350,-8.635583293
2.34400,-12.60311059
2.34450,-15.34986026
2.34500,-12.60311059
2.34550,-9.551166516
2.34600,-11.07713855
2.34650,-11.07713855
2.34700,-0.09013987754
2.34750,19.13710781
2.34800,33.17605056
2.34850,36.53318905
2.34900,38.05916109
2.34950,44.16304924
2.35000,45.68902128
2.35050,35.61760582
2.35100,22.49424629
2.35150,16.69555255
2.35200,14.8643861
2.35250,6.9293315
2.35300,-5.888833624
2.35350,-15.65505467
2.35400,-20.23297079
2.35450,-23.89530368
2.35500,-26.94724776
2.35550,-25.11608131
2.35600,-19.31738756
2.35650,-15.34986026
2.35700,-13.51869382
2.35750,-8.330388885
2.35800,0.2150545302
2.35850,8.15010913
2.35900,10.8968588
2.35950,11.81244202
2.36000,12.11763643
2.36050,11.20205321
2.36100,8.455303538
2.36150,5.403359461
2.36200,2.351415384
2.36250,-2.226500731
2.36300,-8.635583293
2.36350,-13.82388822
2.36400,-16.8758323
2.36450,-19.31738756
2.36500,-20.23297079
2.36550,-18.09660993
2.36600,-14.43427704
2.36650,-11.07713855
2.36700,-7.109611255
2.36750,0.2150545302
2.36800,9.676081169
2.36850,14.55919169
2.36900,12.42283084
2.36950,9.370886761
2.37000,9.676081169
2.37050,11.50724762
2.37100,10.8968588
2.37150,7.844914723
2.37200,6.9293315
2.37250,9.676081169
2.37300,12.72802525
2.37350,12.11763643
2.37400,7.844914723
2.37450,3.877387423
2.37500,2.656609792
2.37550,3.572193015
2.37600,4.487776238
2.37650,3.266998607
2.37700,-0.7005286929
2.37750,-5.583639216
2.37800,-7.72000007
2.37850,-7.414805662
2.37900,-7.414805662
2.37950,-10.46674974
2.38000,-13.51869382
2.38050,-12.908305
2.38100,-10.77194415
2.38150,-12.60311059
2.38200,-16.8758323
2.38250,-18.09660993
2.38300,-14.73947145
2.38350,-11.68752737
2.38400,-9.245972109
2.38450,-0.09013987754
2.38500,17.61113577
2.38550,32.87085615
2.38600,34.7020226
2.38650,27.68255122
2.38700,24.02021833
2.38750,25.54619037
2.38800,24.63060715
2.38850,19.13710781
2.38900,14.25399728
2.38950,11.50724762
2.39000,6.9293315
2.39050,-0.3953342852
2.39100,-7.72000007
2.39150,-11.99272178
2.39200,-15.65505467
2.39250,-18.40180434
2.39300,-16.57063789
2.39350,-8.940777701
2.39400,-1.005723101
2.39450,0.5202489379
2.39500,-2.836889547
2.39550,-4.973250401
2.39600,-0.3953342852
2.39650,7.234525907
2.39700,11.81244202
2.39750,9.981275577
2.39800,4.487776238
2.39850,-1.921306324
2.39900,-9.551166516
2.39950,-16.26544349
2.40000,-19.01219316
2.40050,-19.31738756
2.40100,-22.06413723
2.40150,-26.33685894
2.40200,-22.36933164
2.40250,-7.109611255
2.40300,6.9293315
2.40350,7.844914723
2.40400,1.130637753
2.40450,0.5202489379
2.40500,8.455303538
2.40550,14.8643861
2.40600,15.16958051
2.40650,14.8643861
2.40700,16.39035814
2.40750,14.55919169
2.40800,7.234525907
2.40850,-0.09013987754
2.40900,-3.75247277
2.40950,-7.72000007
2.41000,-12.908305
2.41050,-16.57063789
2.41100,-18.40180434
2.41150,-21.45374842
2.41200,-26.33685894
2.41250,-27.25244216
2.41300,-23.89530368
2.41350,-21.14855401
2.41400,-21.14855401
2.41450,-20.23297079
2.41500,-15.96024908
2.41550,-11.68752737
2.41600,-8.940777701
2.41650,-5.888833624
2.41700,-1.310917508
2.41750,2.351415384
2.41800,4.18258183
2.41850,5.403359461
2.41900,6.013748276
2.41950,3.877387423
2.42000,0.5202489379
2.42050,1.741026569
2.42100,10.59166439
2.42150,24.02021833
2.42200,37.75396668
2.42250,50.26693739
2.42300,57.59160318
2.42350,56.06563114
2.42400,46.90979891
2.42450,37.44877227
2.42500,31.65007852
2.42550,27.07216241
2.42600,19.13710781
2.42650,9.065692354
2.42700,2.046220976
2.42750,-0.7005286929
2.42800,-3.75247277
2.42850,-11.07713855
2.42900,-21.75894282
2.42950,-29.38880302
2.43000,-29.69399742
2.43050,-25.42127572
2.43100,-22.36933164
2.43150,-23.59010927
2.43200,-25.11608131
2.43250,-22.06413723
2.43300,-15.96024908
2.43350,-11.07713855
2.43400,-8.635583293
2.43450,-6.499222439
2.43500,-3.447278362
2.43550,-1.310917508
2.43600,-1.310917508
2.43650,-2.531695139
2.43700,-3.142083955
2.43750,-3.447278362
2.43800,-4.057667178
2.43850,-4.362861585
2.43900,-0.7005286929
2.43950,9.370886761
2.44000,22.49424629
2.44050,29.51371767
2.44100,25.54619037
2.44150,16.69555255
2.44200,9.981275577
2.44250,5.708553869
2.44300,0.5202489379
2.44350,-3.75247277
2.44400,-4.057667178
2.44450,-2.531695139
2.44500,-3.75247277
2.44550,-6.804416847
2.44600,-6.804416847
2.44650,-6.194028032
2.44700,-9.245972109
2.44750,-11.68752737
2.44800,-4.668055993
2.44850,8.455303538
2.44900,15.77996932
2.44950,13.64360847
2.45000,14.55919169
2.45050,24.63060715
2.45100,32.56566175
2.45150,29.20852326
2.45200,23.71502392
2.45250,30.12410648
2.45300,40.80591075
2.45350,35.92280023
2.45400,11.81244202
2.45450,-12.908305
2.45500,-24.20049809
2.45550,-26.64205335
2.45600,-33.05113591
2.45650,-43.73294018
2.45700,-49.83682833
2.45750,-48.92124511
2.45800,-44.6485234
2.45850,-39.76541288
2.45900,-34.88230236
2.45950,-31.21996946
2.46000,-29.69399742
2.46050,-28.47321979
2.46100,-23.89530368
2.46150,-17.48622112
2.46200,-11.99272178
2.46250,-7.109611255
2.46300,-0.09013987754
2.46350,6.9293315
2.46400,6.9293315
2.46450,1.435832161
2.46500,-1.005723101
2.46550,2.351415384
2.46600,6.013748276
2.46650,6.318942684
2.46700,10.59166439
2.46750,24.63060715
2.46800,41.11110516
2.46850,48.13057654
2.46900,41.72149398
2.46950,29.81891208
2.47000,19.74749662
2.47050,16.08516373
2.47100,20.35788544
2.47150,30.12410648
2.47200,36.22799464
2.47250,30.7344953
2.47300,16.69555255
2.47350,2.046220976
2.47400,-8.330388885
2.47450,-14.12908263
2.47500,-14.73947145
2.47550,-12.908305
2.47600,-15.65505467
2.47650,-25.72647012
2.47700,-35.49269117
2.47750,-35.79788558
2.47800,-28.7784142
2.47850,-22.67452605
2.47900,-19.31738756
2.47950,-16.26544349
2.48000,-14.73947145
2.48050,-16.26544349
2.48100,-18.09660993
2.48150,-15.96024908
2.48200,-11.68752737
2.48250,-9.245972109
2.48300,-6.499222439
2.48350,1.435832161
2.48400,12.72802525
2.48450,19.74749662
2.48500,20.66307985
2.48550,20.66307985
2.48600,22.7994407
2.48650,24.93580155
2.48700,26.15657918
2.48750,26.46177359
2.48800,23.71502392
2.48850,15.47477492
2.48900,5.098165053
2.48950,-2.531695139
2.49000,-6.499222439
2.49050,-9.856360924
2.49100,-13.51869382
2.49150,-15.04466585
2.49200,-15.04466585
2.49250,-16.8758323
2.49300,-18.09660993
2.49350,-10.77194415
2.49400,5.708553869
2.49450,21.88385748
2.49500,27.07216241
2.49550,24.93580155
2.49600,27.37735682
2.49650,36.83838345
2.49700,43.24746602
2.49750,38.97474431
2.49800,27.68255122
2.49850,16.69555255
2.49900,7.539720315
2.49950,-2.836889547
2.50000,-13.82388822
2.50050,-23.28491486
2.50100,-32.13555269
2.50150,-43.42774577
2.50200,-54.10955004
2.50250,-57.77188293
2.50300,-54.71993886
2.50350,-51.05760596
2.50400,-48.92124511
2.50450,-42.51216255
2.50500,-26.64205335
2.50550,-6.499222439
2.50600,7.234525907
2.50650,10.8968588
2.50700,9.981275577
2.50750,10.8968588
2.50800,15.16958051
2.50850,19.13710781
2.50900,20.35788544
2.50950,21.88385748
2.51000,27.07216241
2.51050,37.14357786
2.51100,48.43577095
2.51150,56.98121436
2.51200,61.55913048
2.51250,62.4747137
2.51300,58.5071864
2.51350,47.82538213
2.51400,30.7344953
2.51450,11.50724762
2.51500,-5.278444808
2.51550,-20.53816519
2.51600,-35.79788558
2.51650,-51.05760596
2.51700,-62.34979905
2.51750,-66.92771516
2.51800,-66.01213194
2.51850,-63.57057668
2.51900,-59.29785497
2.51950,-49.22643952
2.52000,-35.18749676
2.52050,-23.28491486
2.52100,-13.21349941
2.52150,0.8254433456
2.52200,19.44230222
2.52250,32.87085615
2.52300,35.31241142
2.52350,34.09163379
2.52400,38.05916109
2.52450,42.02668839
2.52500,37.14357786
2.52550,25.54619037
2.52600,17.91633018
2.52650,16.39035814
2.52700,14.25399728
2.52750,9.676081169
2.52800,6.318942684
2.52850,3.572193015
2.52900,-1.310917508
2.52950,-7.414805662
2.53000,-10.77194415
2.53050,-16.57063789
2.53100,-27.86283098
2.53150,-33.66152472
2.53200,-20.53816519
2.53250,2.046220976
2.53300,11.50724762
2.53350,2.351415384
2.53400,-7.414805662
2.53450,-6.499222439
2.53500,-2.531695139
2.53550,-4.973250401
2.53600,-10.46674974
2.53650,-13.21349941
2.53700,-17.48622112
2.53750,-25.72647012
2.53800,-29.99919183
2.53850,-26.33685894
2.53900,-21.45374842
2.53950,-19.01219316
2.54000,-15.65505467
2.54050,-9.856360924
2.54100,-8.330388885
2.54150,-12.908305
2.54200,-13.51869382
2.54250,-6.804416847
2.54300,-0.09013987754
2.54350,1.435832161
2.54400,3.572193015
2.54450,7.844914723
2.54500,7.539720315
2.54550,2.656609792
2.54600,7.234525907
2.54650,27.68255122
2.54700,47.21499332
2.54750,48.74096535
2.54800,38.05916109
2.54850,31.65007852
2.54900,33.78643938
2.54950,36.22799464
2.55000,35.31241142
2.55050,33.78643938
2.55100,31.95527293
2.55150,28.59813445
2.55200,24.93580155
2.55250,19.44230222
2.55300,7.234525907
2.55350,-4.668055993
2.55400,0.5202489379
2.55450,28.59813445
2.55500,55.76043673
2.55550,56.98121436
2.55600,38.6695499
2.55650,25.54619037
2.55700,25.85138478
2.55750,26.766968
2.55800,18.22152458
2.55850,6.9293315
2.55900,-1.310917508
2.55950,-11.68752737
2.56000,-27.25244216
2.56050,-43.73294018
2.56100,-57.16149412
2.56150,-69.97965924
2.56200,-83.71340759
2.56250,-94.39521186
2.56300,-97.44715593
2.56350,-92.86923982
2.56400,-82.18743555
2.56450,-68.4536872
2.56500,-54.71993886
2.56550,-40.37580169
2.56600,-17.79141552
2.56650,16.08516373
2.56700,50.5721318
2.56750,67.96821304
2.56800,66.74743541
2.56850,62.16951929
2.56900,62.77990811
2.56950,61.55913048
2.57000,53.01368706
2.57050,40.80591075
2.57100,29.81891208
2.57150,15.47477492
2.57200,-2.531695139
2.57250,-16.8758323
2.57300,-24.20049809
2.57350,-33.05113591
2.57400,-45.56410663
2.57450,-44.6485234
2.57500,-15.04466585
2.57550,26.15657918
2.57600,46.6046045
2.57650,38.36435549
2.57700,26.46177359
2.57750,31.03968971
2.57800,44.46824365
2.57850,47.21499332
2.57900,36.22799464
2.57950,22.49424629
2.58000,10.59166439
2.58050,-4.057667178
2.58100,-23.59010927
2.58150,-44.95371781
2.58200,-65.09654872
2.58250,-82.49262996
2.58300,-91.9536566
2.58350,-91.64846219
2.58400,-85.84976844
2.58450,-81.27185233
2.58500,-76.0835474
2.58550,-64.4861599
2.58600,-48.92124511
2.58650,-37.01866321
2.58700,-29.69399742
2.58750,-20.53816519
2.58800,-7.414805662
2.58850,4.487776238
2.58900,12.11763643
2.58950,17.61113577
2.59000,22.49424629
2.59050,25.24099596
2.59100,26.46177359
2.59150,27.68255122
2.59200,28.90332885
2.59250,27.68255122
2.59300,25.24099596
2.59350,24.63060715
2.59400,22.7994407
2.59450,16.08516373
2.59500,7.539720315
2.59550,6.013748276
2.59600,11.20205321
2.59650,13.64360847
2.59700,9.370886761
2.59750,6.624137092
2.59800,9.981275577
2.59850,13.64360847
2.59900,11.81244202
2.59950,9.676081169
2.60000,15.16958051
2.60050,25.85138478
2.60100,31.95527293
2.60150,30.7344953
2.60200,27.68255122
2.60250,26.766968
2.60300,27.98774563
2.60350,29.51371767
2.60400,29.81891208
2.60450,27.98774563
2.60500,25.24099596
2.60550,24.63060715
2.60600,26.46177359
2.60650,25.24099596
2.60700,17.30594136
2.60750,5.708553869
2.60800,-2.836889547
2.60850,-8.635583293
2.60900,-15.04466585
2.60950,-23.59010927
2.61000,-31.21996946
2.61050,-33.96671913
2.61100,-31.83035828
2.61150,-29.08360861
2.61200,-27.25244216
2.61250,-22.97972046
2.61300,-12.60311059
2.61350,1.130637753
2.61400,12.11763643
2.61450,17.61113577
2.61500,22.49424629
2.61550,31.03968971
2.61600,38.05916109
2.61650,36.22799464
2.61700,28.90332885
2.61750,25.54619037
2.61800,28.90332885
2.61850,29.81891208
2.61900,23.40982952
2.61950,13.03321965
2.62000,2.351415384
2.62050,-9.856360924
2.62100,-22.36933164
2.62150,-26.03166453
2.62200,-14.43427704
2.62250,1.741026569
2.62300,8.760497946
2.62350,4.18258183
2.62400,-0.3953342852
2.62450,1.435832161
2.62500,3.572193015
2.62550,-0.09013987754
2.62600,-4.668055993
2.62650,-6.499222439
2.62700,-9.551166516
2.62750,-19.92777638
2.62800,-34.57710795
2.62850,-44.03813459
2.62900,-47.70046748
2.62950,-51.97318919
2.63000,-59.29785497
2.63050,-63.87577109
2.63100,-61.43421583
2.63150,-52.27838359
2.63200,-41.59657932
2.63250,-34.27191354
2.63300,-31.83035828
2.63350,-30.60958065
2.63400,-23.89530368
2.63450,-9.856360924
2.63500,2.961804199
2.63550,8.15010913
2.63600,7.539720315
2.63650,7.234525907
2.63700,6.318942684
2.63750,1.130637753
2.63800,-5.583639216
2.63850,-6.499222439
2.63900,-1.616111916
2.63950,1.435832161
2.64000,-0.3953342852
2.64050,-1.616111916
2.64100,2.351415384
2.64150,9.981275577
2.64200,17.00074695
2.64250,23.40982952
2.64300,28.59813445
2.64350,29.51371767
2.64400,27.68255122
2.64450,30.42930089
2.64500,41.11110516
2.64550,52.70849265
2.64600,56.37082555
2.64650,52.09810384
2.64700,46.29941009
2.64750,42.94227161
2.64800,40.19552194
2.64850,35.31241142
2.64900,27.07216241
2.64950,15.16958051
2.65000,0.8254433456
2.65050,-11.99272178
2.65100,-21.75894282
2.65150,-29.38880302
2.65200,-37.01866321
2.65250,-43.12255136
2.65300,-44.95371781
2.65350,-42.51216255
2.65400,-37.62905202
2.65450,-28.16802539
2.65500,-12.29791619
2.65550,4.487776238
2.65600,12.42283084
2.65650,7.539720315
2.65700,-0.09013987754
2.65750,-1.310917508
2.65800,2.046220976
2.65850,0.2150545302
2.65900,-7.72000007
2.65950,-11.68752737
2.66000,-5.888833624
2.66050,-0.09013987754
2.66100,-3.142083955
2.66150,-11.07713855
2.66200,-10.77194415
2.66250,-1.616111916
2.66300,6.318942684
2.66350,8.455303538
2.66400,9.370886761
2.66450,12.11763643
2.66500,12.72802525
2.66550,7.844914723
2.66600,0.8254433456
2.66650,-4.668055993
2.66700,-11.68752737
2.66750,-20.53816519
2.66800,-25.72647012
2.66850,-23.28491486
2.66900,-17.48622112
2.66950,-13.21349941
2.67000,-11.07713855
2.67050,-7.72000007
2.67100,-2.226500731
2.67150,3.572193015
2.67200,9.676081169
2.67250,13.64360847
2.67300,13.03321965
2.67350,9.370886761
2.67400,8.455303538
2.67450,12.42283084
2.67500,15.47477492
2.67550,14.55919169
2.67600,12.72802525
2.67650,14.25399728
2.67700,17.30594136
2.67750,19.74749662
2.67800,22.7994407
2.67850,29.81891208
2.67900,37.14357786
2.67950,40.50071635
2.68000,38.05916109
2.68050,33.78643938
2.68100,27.37735682
2.68150,17.00074695
2.68200,2.961804199
2.68250,-11.38233296
2.68300,-23.28491486
2.68350,-33.66152472
2.68400,-44.03813459
2.68450,-53.80435563
2.68500,-57.16149412
2.68550,-51.05760596
2.68600,-37.01866321
2.68650,-19.31738756
2.68700,-2.836889547
2.68750,9.065692354
2.68800,14.8643861
2.68850,16.08516373
2.68900,17.61113577
2.68950,21.57866307
2.69000,24.02021833
2.69050,17.30594136
2.69100,2.656609792
2.69150,-10.77194415
2.69200,-17.18102671
2.69250,-19.92777638
2.69300,-25.11608131
2.69350,-30.30438624
2.69400,-29.69399742
2.69450,-21.75894282
2.69500,-12.60311059
2.69550,-6.194028032
2.69600,-1.921306324
2.69650,3.572193015
2.69700,13.03321965
2.69750,24.32541274
2.69800,32.87085615
2.69850,35.31241142
2.69900,31.95527293
2.69950,25.24099596
2.70000,16.39035814
2.70050,4.487776238
2.70100,-7.72000007
2.70150,-16.57063789
2.70200,-21.14855401
2.70250,-26.64205335
2.70300,-35.49269117
2.70350,-42.51216255
2.70400,-40.6809961
2.70450,-30.60958065
2.70500,-19.01219316
2.70550,-11.07713855
2.70600,-7.109611255
2.70650,-5.583639216
2.70700,-4.973250401
2.70750,-2.836889547
2.70800,2.656609792
2.70850,11.20205321
2.70900,19.74749662
2.70950,24.93580155
2.71000,25.54619037
2.71050,21.88385748
2.71100,17.61113577
2.71150,16.69555255
2.71200,19.44230222
2.71250,20.96827425
2.71300,17.91633018
2.71350,12.72802525
2.71400,10.28646998
2.71450,8.455303538
2.71500,3.877387423
2.71550,-3.142083955
2.71600,-8.025194478
2.71650,-8.330388885
2.71700,-7.72000007
2.71750,-9.245972109
2.71800,-11.38233296
2.71850,-11.38233296
2.71900,-8.330388885
2.71950,-4.057667178
2.72000,-1.616111916
2.72050,-2.531695139
2.72100,-5.278444808
2.72150,-5.888833624
2.72200,-3.142083955
2.72250,-1.616111916
2.72300,-4.668055993
2.72350,-8.940777701
2.72400,-8.330388885
2.72450,-4.057667178
2.72500,-1.005723101
2.72550,-0.7005286929
2.72600,1.435832161
2.72650,5.098165053
2.72700,5.708553869
2.72750,2.961804199
2.72800,2.351415384
2.72850,6.013748276
2.72900,9.981275577
2.72950,10.59166439
2.73000,10.59166439
2.73050,10.8968588
2.73100,10.59166439
2.73150,10.8968588
2.73200,15.77996932
2.73250,25.24099596
2.73300,33.48124497
2.73350,38.6695499
2.73400,44.77343805
2.73450,53.92927029
2.73500,60.33835285
2.73550,61.55913048
2.73600,62.16951929
2.73650,64.91626896
2.73700,64.00068574
2.73750,53.01368706
2.73800,33.17605056
2.73850,11.50724762
2.73900,-9.856360924
2.73950,-30.91477506
2.74000,-49.22643952
2.74050,-64.4861599
2.74100,-78.52510266
2.74150,-91.64846219
2.74200,-96.83676712
2.74250,-87.37574048
2.74300,-67.23290957
2.74350,-45.86930103
2.74400,-30.30438624
2.74450,-21.14855401
2.74500,-16.26544349
2.74550,-9.245972109
2.74600,5.708553869
2.74650,26.15657918
2.74700,37.14357786
2.74750,29.20852326
2.74800,11.50724762
2.74850,0.2150545302
2.74900,-2.531695139
2.74950,-9.551166516
2.75000,-25.72647012
2.75050,-42.51216255
2.75100,-50.14202274
2.75150,-48.6160507
2.75200,-44.34332899
2.75250,-40.6809961
2.75300,-35.49269117
2.75350,-26.94724776
2.75400,-15.04466585
2.75450,-3.447278362
2.75500,3.266998607
2.75550,3.572193015
2.75600,1.741026569
2.75650,4.487776238
2.75700,12.11763643
2.75750,18.22152458
2.75800,19.44230222
2.75850,19.74749662
2.75900,22.18905188
2.75950,24.63060715
2.76000,23.10463511
2.76050,17.61113577
2.76100,11.50724762
2.76150,7.234525907
2.76200,2.656609792
2.76250,-2.226500731
2.76300,-7.72000007
2.76350,-11.68752737
2.76400,-14.43427704
2.76450,-15.96024908
2.76500,-15.65505467
2.76550,-11.68752737
2.76600,-4.668055993
2.76650,0.5202489379
2.76700,1.435832161
2.76750,-0.09013987754
2.76800,-0.09013987754
2.76850,2.961804199
2.76900,8.760497946
2.76950,15.47477492
2.77000,22.7994407
2.77050,28.59813445
2.77100,31.03968971
2.77150,28.90332885
2.77200,25.24099596
2.77250,23.71502392
2.77300,24.93580155
2.77350,26.15657918
2.77400,22.7994407
2.77450,15.77996932
2.77500,7.844914723
2.77550,3.266998607
2.77600,4.487776238
2.77650,11.20205321
2.77700,20.66307985
2.77750,26.46177359
2.77800,25.54619037
2.77850,22.18905188
2.77900,24.32541274
2.77950,30.42930089
2.78000,28.29294004
2.78050,12.72802525
2.78100,-7.109611255
2.78150,-20.23297079
2.78200,-28.16802539
2.78250,-39.15502406
2.78300,-49.53163393
2.78350,-50.14202274
2.78400,-44.03813459
2.78450,-42.81735696
2.78500,-47.09007866
2.78550,-43.42774577
2.78600,-26.33685894
2.78650,-7.72000007
2.78700,1.130637753
2.78750,6.9293315
2.78800,17.30594136
2.78850,26.46177359
2.78900,25.24099596
2.78950,16.69555255
2.79000,12.72802525
2.79050,13.94880288
2.79100,11.50724762
2.79150,2.961804199
2.79200,-2.531695139
2.79250,-1.310917508
2.79300,0.8254433456
2.79350,-1.616111916
2.79400,-8.025194478
2.79450,-12.60311059
2.79500,-13.51869382
2.79550,-12.29791619
2.79600,-9.551166516
2.79650,-7.72000007
2.79700,-8.635583293
2.79750,-12.908305
2.79800,-16.57063789
2.79850,-17.79141552
2.79900,-16.57063789
2.79950,-14.73947145
2.80000,-13.21349941
2.80050,-13.21349941
2.80100,-14.12908263
2.80150,-11.38233296
2.80200,-1.921306324
2.80250,9.370886761
2.80300,15.47477492
2.80350,14.8643861
2.80400,16.08516373
2.80450,23.10463511
2.80500,28.29294004
2.80550,24.02021833
2.80600,13.64360847
2.80650,5.708553869
2.80700,-0.3953342852
2.80750,-11.07713855
2.80800,-24.8108869
2.80850,-31.52516387
2.80900,-27.25244216
2.80950,-20.23297079
2.81000,-17.18102671
2.81050,-15.96024908
2.81100,-11.38233296
2.81150,-5.278444808
2.81200,-1.310917508
2.81250,0.5202489379
2.81300,3.877387423
2.81350,6.013748276
2.81400,4.18258183
2.81450,1.741026569
2.81500,6.013748276
2.81550,17.91633018
2.81600,30.7344953
2.81650,35.61760582
2.81700,30.42930089
2.81750,20.66307985
2.81800,15.47477492
2.81850,17.61113577
2.81900,19.44230222
2.81950,12.11763643
2.82000,-3.142083955
2.82050,-15.04466585
2.82100,-15.96024908
2.82150,-8.940777701
2.82200,-2.226500731
2.82250,1.741026569
2.82300,4.487776238
2.82350,5.098165053
2.82400,3.266998607
2.82450,2.046220976
2.82500,3.877387423
2.82550,5.708553869
2.82600,6.013748276
2.82650,6.318942684
2.82700,7.234525907
2.82750,2.656609792
2.82800,-8.940777701
2.82850,-19.92777638
2.82900,-20.53816519
2.82950,-12.29791619
2.83000,-4.668055993
2.83050,-2.531695139
2.83100,-3.142083955
2.83150,-3.447278362
2.83200,-3.447278362
2.83250,-2.836889547
2.83300,-1.310917508
2.83350,-1.921306324
2.83400,-7.414805662
2.83450,-13.82388822
2.83500,-14.12908263
2.83550,-7.109611255
2.83600,0.2150545302
2.83650,3.266998607
2.83700,2.656609792
2.83750,2.351415384
2.83800,3.572193015
2.83850,4.487776238
2.83900,5.708553869
2.83950,9.370886761
2.84000,15.77996932
2.84050,21.27346866
2.84100,21.57866307
2.84150,16.08516373
2.84200,12.11763643
2.84250,16.08516373
2.84300,23.40982952
2.84350,24.02021833
2.84400,15.77996932
2.84450,6.318942684
2.84500,2.961804199
2.84550,1.741026569
2.84600,-4.668055993
2.84650,-16.26544349
2.84700,-24.50569249
2.84750,-25.42127572
2.84800,-22.97972046
2.84850,-22.36933164
2.84900,-23.59010927
2.84950,-24.8108869
2.85000,-25.42127572
2.85050,-25.11608131
2.85100,-23.28491486
2.85150,-20.8433596
2.85200,-17.79141552
2.85250,-12.908305
2.85300,-5.583639216
2.85350,1.130637753
2.85400,3.266998607
2.85450,1.435832161
2.85500,3.266998607
2.85550,13.03321965
2.85600,24.63060715
2.85650,30.42930089
2.85700,30.7344953
2.85750,33.17605056
2.85800,39.89032753
2.85850,45.38382687
2.85900,45.68902128
2.85950,41.41629957
2.86000,35.31241142
2.86050,27.68255122
2.86100,20.35788544
2.86150,14.55919169
2.86200,10.28646998
2.86250,5.708553869
2.86300,1.435832161
2.86350,-2.836889547
2.86400,-10.46674974
2.86450,-21.75894282
2.86500,-32.7459415
2.86550,-38.54463525
2.86600,-40.98619051
2.86650,-43.42774577
2.86700,-44.03813459
2.86750,-40.07060729
2.86800,-36.40827439
2.86850,-38.23944084
2.86900,-40.6809961
2.86950,-33.05113591
2.87000,-17.18102671
2.87050,-8.025194478
2.87100,-11.68752737
2.87150,-16.57063789
2.87200,-12.29791619
2.87250,-7.414805662
2.87300,-14.73947145
2.87350,-29.08360861
2.87400,-32.44074709
2.87450,-22.36933164
2.87500,-13.21349941
2.87550,-13.51869382
2.87600,-14.12908263
2.87650,-4.668055993
2.87700,9.676081169
2.87750,18.22152458
2.87800,20.66307985
2.87850,26.46177359
2.87900,37.14357786
2.87950,42.94227161
2.88000,40.19552194
2.88050,36.53318905
2.88100,38.05916109
2.88150,39.27993872
2.88200,32.56566175
2.88250,20.66307985
2.88300,10.8968588
