type,name,time_units,begin_time,frequency,count,units
signal,"Noraxon Ultium-RT LAT. TRICEPS","s",0.00000,2000,53200,"uV"

time,value
0.00000,2.49463255
0.00050,3.105021365
0.00100,2.49463255
0.00150,1.273854919
0.00200,-0.2521171194
0.00250,-1.47289475
0.00300,-1.778089158
0.00350,-1.47289475
0.00400,-1.47289475
0.00450,-2.388477973
0.00500,-4.21964442
0.00550,-5.745616458
0.00600,-6.966394089
0.00650,-7.271588497
0.00700,-6.966394089
0.00750,-6.356005273
0.00800,-6.356005273
0.00850,-7.271588497
0.00900,-8.18717172
0.00950,-7.576782904
0.01000,-5.44042205
0.01050,-3.304061196
0.01100,-1.778089158
0.01150,-0.5573115271
0.01200,1.273854919
0.01250,3.105021365
0.01300,4.630993404
0.01350,5.546576627
0.01400,6.156965442
0.01450,6.767354258
0.01500,7.072548665
0.01550,8.293326296
0.01600,9.819298335
0.01650,10.12449274
0.01700,8.293326296
0.01750,5.851771035
0.01800,4.936187812
0.01850,6.46215985
0.01900,7.682937481
0.01950,7.377743073
0.02000,6.156965442
0.02050,4.325798996
0.02100,2.799826958
0.02150,0.6634661037
0.02200,-0.2521171194
0.02250,0.6634661037
0.02300,2.49463255
0.02350,3.105021365
0.02400,2.799826958
0.02450,2.799826958
0.02500,4.630993404
0.02550,6.46215985
0.02600,6.767354258
0.02650,5.851771035
0.02700,5.546576627
0.02750,6.156965442
0.02800,6.46215985
0.02850,4.936187812
0.02900,2.799826958
0.02950,1.579049327
0.03000,0.9686605114
0.03050,0.6634661037
0.03100,-0.2521171194
0.03150,-0.8625059348
0.03200,-1.778089158
0.03250,-2.083283566
0.03300,-2.083283566
0.03350,-1.778089158
0.03400,-1.47289475
0.03450,-1.47289475
0.03500,-1.778089158
0.03550,-2.388477973
0.03600,-2.693672381
0.03650,-1.47289475
0.03700,-0.2521171194
0.03750,-0.2521171194
0.03800,-0.5573115271
0.03850,-1.778089158
0.03900,-1.47289475
0.03950,-0.2521171194
0.04000,0.358271696
0.04050,0.6634661037
0.04100,1.273854919
0.04150,2.49463255
0.04200,3.105021365
0.04250,3.105021365
0.04300,3.715410181
0.04350,4.936187812
0.04400,5.546576627
0.04450,4.020604588
0.04500,2.189438142
0.04550,1.579049327
0.04600,2.189438142
0.04650,1.884243735
0.04700,0.6634661037
0.04750,-0.2521171194
0.04800,-0.5573115271
0.04850,-0.5573115271
0.04900,-0.5573115271
0.04950,-0.5573115271
0.05000,-0.5573115271
0.05050,-0.2521171194
0.05100,0.0530772883
0.05150,1.579049327
0.05200,2.799826958
0.05250,2.49463255
0.05300,0.9686605114
0.05350,0.0530772883
0.05400,-0.2521171194
0.05450,-0.2521171194
0.05500,-0.8625059348
0.05550,-2.083283566
0.05600,-3.609255604
0.05650,-4.830033235
0.05700,-4.830033235
0.05750,-4.21964442
0.05800,-3.609255604
0.05850,-3.609255604
0.05900,-3.609255604
0.05950,-2.083283566
0.06000,0.0530772883
0.06050,1.273854919
0.06100,0.6634661037
0.06150,0.0530772883
0.06200,-0.2521171194
0.06250,-0.5573115271
0.06300,-2.693672381
0.06350,-4.830033235
0.06400,-5.44042205
0.06450,-5.44042205
0.06500,-5.745616458
0.06550,-6.661199681
0.06600,-6.966394089
0.06650,-6.356005273
0.06700,-6.661199681
0.06750,-7.881977312
0.06800,-7.881977312
0.06850,-6.661199681
0.06900,-5.44042205
0.06950,-5.135227643
0.07000,-5.44042205
0.07050,-4.524838827
0.07100,-3.609255604
0.07150,-2.998866789
0.07200,-2.083283566
0.07250,-0.2521171194
0.07300,0.9686605114
0.07350,1.273854919
0.07400,0.6634661037
0.07450,0.358271696
0.07500,1.579049327
0.07550,2.799826958
0.07600,3.410215773
0.07650,3.715410181
0.07700,3.715410181
0.07750,3.410215773
0.07800,3.410215773
0.07850,4.630993404
0.07900,6.767354258
0.07950,8.293326296
0.08000,7.682937481
0.08050,7.072548665
0.08100,7.072548665
0.08150,7.377743073
0.08200,6.767354258
0.08250,5.241382219
0.08300,4.630993404
0.08350,4.630993404
0.08400,4.325798996
0.08450,3.715410181
0.08500,3.105021365
0.08550,1.884243735
0.08600,1.273854919
0.08650,0.9686605114
0.08700,0.6634661037
0.08750,0.358271696
0.08800,-0.8625059348
0.08850,-2.083283566
0.08900,-2.388477973
0.08950,-2.083283566
0.09000,-1.47289475
0.09050,-2.083283566
0.09100,-3.609255604
0.09150,-5.44042205
0.09200,-6.356005273
0.09250,-5.745616458
0.09300,-5.135227643
0.09350,-4.524838827
0.09400,-3.304061196
0.09450,-1.47289475
0.09500,-0.2521171194
0.09550,0.0530772883
0.09600,0.0530772883
0.09650,0.358271696
0.09700,0.6634661037
0.09750,0.6634661037
0.09800,1.273854919
0.09850,2.49463255
0.09900,4.020604588
0.09950,5.241382219
0.10000,5.851771035
0.10050,7.072548665
0.10100,8.293326296
0.10150,8.903715112
0.10200,9.208909519
0.10250,9.208909519
0.10300,8.293326296
0.10350,7.072548665
0.10400,5.241382219
0.10450,3.410215773
0.10500,1.884243735
0.10550,0.9686605114
0.10600,1.273854919
0.10650,2.189438142
0.10700,2.49463255
0.10750,2.189438142
0.10800,2.189438142
0.10850,3.105021365
0.10900,4.020604588
0.10950,3.410215773
0.11000,2.799826958
0.11050,2.799826958
0.11100,3.715410181
0.11150,3.105021365
0.11200,0.9686605114
0.11250,-1.778089158
0.11300,-4.830033235
0.11350,-6.966394089
0.11400,-8.492366127
0.11450,-9.40794935
0.11500,-10.32353257
0.11550,-11.84950461
0.11600,-13.68067106
0.11650,-15.5118375
0.11700,-17.03780954
0.11750,-18.56378158
0.11800,-18.86897599
0.11850,-16.73261514
0.11900,-13.37547665
0.11950,-10.93392139
0.12000,-10.32353257
0.12050,-10.01833817
0.12100,-9.102754943
0.12150,-8.492366127
0.12200,-8.797560535
0.12250,-10.01833817
0.12300,-10.62872698
0.12350,-10.32353257
0.12400,-9.713143758
0.12450,-9.713143758
0.12500,-10.32353257
0.12550,-10.93392139
0.12600,-10.93392139
0.12650,-9.713143758
0.12700,-7.881977312
0.12750,-6.661199681
0.12800,-6.661199681
0.12850,-5.745616458
0.12900,-4.21964442
0.12950,-2.998866789
0.13000,-3.304061196
0.13050,-3.304061196
0.13100,-2.388477973
0.13150,-1.778089158
0.13200,-2.693672381
0.13250,-3.914450012
0.13300,-3.304061196
0.13350,-1.778089158
0.13400,-0.8625059348
0.13450,-0.8625059348
0.13500,0.358271696
0.13550,3.715410181
0.13600,5.851771035
0.13650,5.851771035
0.13700,5.851771035
0.13750,6.767354258
0.13800,7.377743073
0.13850,6.46215985
0.13900,5.241382219
0.13950,5.546576627
0.14000,5.851771035
0.14050,4.020604588
0.14100,1.579049327
0.14150,0.9686605114
0.14200,1.273854919
0.14250,0.6634661037
0.14300,0.9686605114
0.14350,3.105021365
0.14400,5.546576627
0.14450,4.630993404
0.14500,0.9686605114
0.14550,0.0530772883
0.14600,2.799826958
0.14650,4.325798996
0.14700,2.189438142
0.14750,-1.167700343
0.14800,-1.778089158
0.14850,-0.8625059348
0.14900,-1.167700343
0.14950,-2.693672381
0.15000,-3.304061196
0.15050,-3.609255604
0.15100,-4.21964442
0.15150,-4.21964442
0.15200,-2.998866789
0.15250,-1.47289475
0.15300,-0.8625059348
0.15350,-0.2521171194
0.15400,2.799826958
0.15450,5.851771035
0.15500,6.767354258
0.15550,6.767354258
0.15600,7.988131889
0.15650,9.514103927
0.15700,9.819298335
0.15750,9.514103927
0.15800,10.12449274
0.15850,9.514103927
0.15900,6.767354258
0.15950,3.410215773
0.16000,2.799826958
0.16050,4.325798996
0.16100,4.936187812
0.16150,4.936187812
0.16200,7.072548665
0.16250,9.514103927
0.16300,10.12449274
0.16350,8.903715112
0.16400,8.598520704
0.16450,8.903715112
0.16500,7.377743073
0.16550,5.241382219
0.16600,4.936187812
0.16650,7.072548665
0.16700,8.293326296
0.16750,7.682937481
0.16800,7.072548665
0.16850,6.46215985
0.16900,4.630993404
0.16950,1.273854919
0.17000,-0.2521171194
0.17050,1.273854919
0.17100,3.105021365
0.17150,2.799826958
0.17200,1.884243735
0.17250,1.884243735
0.17300,2.49463255
0.17350,2.49463255
0.17400,1.884243735
0.17450,0.9686605114
0.17500,-0.2521171194
0.17550,-1.167700343
0.17600,-1.47289475
0.17650,-0.2521171194
0.17700,0.358271696
0.17750,-0.2521171194
0.17800,-1.778089158
0.17850,-2.998866789
0.17900,-3.304061196
0.17950,-3.304061196
0.18000,-3.304061196
0.18050,-2.998866789
0.18100,-2.693672381
0.18150,-2.998866789
0.18200,-3.609255604
0.18250,-3.609255604
0.18300,-2.998866789
0.18350,-2.083283566
0.18400,-1.778089158
0.18450,-2.388477973
0.18500,-2.998866789
0.18550,-2.388477973
0.18600,-1.167700343
0.18650,-0.2521171194
0.18700,-0.8625059348
0.18750,-1.47289475
0.18800,-1.47289475
0.18850,-1.778089158
0.18900,-3.304061196
0.18950,-4.21964442
0.19000,-3.609255604
0.19050,-2.693672381
0.19100,-2.388477973
0.19150,-2.693672381
0.19200,-2.388477973
0.19250,-1.778089158
0.19300,-2.388477973
0.19350,-3.304061196
0.19400,-2.083283566
0.19450,-0.2521171194
0.19500,0.358271696
0.19550,-0.8625059348
0.19600,-2.388477973
0.19650,-2.693672381
0.19700,-3.304061196
0.19750,-4.21964442
0.19800,-3.304061196
0.19850,-0.5573115271
0.19900,0.6634661037
0.19950,0.358271696
0.20000,-0.2521171194
0.20050,0.358271696
0.20100,1.884243735
0.20150,1.884243735
0.20200,0.9686605114
0.20250,0.0530772883
0.20300,-0.5573115271
0.20350,-1.778089158
0.20400,-3.304061196
0.20450,-3.609255604
0.20500,-3.304061196
0.20550,-2.998866789
0.20600,-2.998866789
0.20650,-3.609255604
0.20700,-3.304061196
0.20750,-2.693672381
0.20800,-1.778089158
0.20850,-1.47289475
0.20900,-1.778089158
0.20950,-1.778089158
0.21000,-0.5573115271
0.21050,2.49463255
0.21100,6.46215985
0.21150,7.682937481
0.21200,5.851771035
0.21250,2.799826958
0.21300,1.273854919
0.21350,2.189438142
0.21400,3.105021365
0.21450,2.49463255
0.21500,1.273854919
0.21550,0.9686605114
0.21600,2.189438142
0.21650,3.105021365
0.21700,2.799826958
0.21750,3.410215773
0.21800,4.630993404
0.21850,5.546576627
0.21900,4.630993404
0.21950,3.715410181
0.22000,4.325798996
0.22050,5.546576627
0.22100,5.851771035
0.22150,4.936187812
0.22200,4.020604588
0.22250,4.325798996
0.22300,4.630993404
0.22350,4.325798996
0.22400,3.715410181
0.22450,2.799826958
0.22500,2.189438142
0.22550,0.9686605114
0.22600,-0.5573115271
0.22650,-1.778089158
0.22700,-1.778089158
0.22750,-0.2521171194
0.22800,1.884243735
0.22850,3.715410181
0.22900,3.410215773
0.22950,2.189438142
0.23000,0.6634661037
0.23050,-0.2521171194
0.23100,-0.2521171194
0.23150,-0.8625059348
0.23200,-1.47289475
0.23250,-2.083283566
0.23300,-2.998866789
0.23350,-3.914450012
0.23400,-4.830033235
0.23450,-6.050810866
0.23500,-7.271588497
0.23550,-8.18717172
0.23600,-8.797560535
0.23650,-8.492366127
0.23700,-7.576782904
0.23750,-5.745616458
0.23800,-2.998866789
0.23850,-1.167700343
0.23900,-1.167700343
0.23950,-1.47289475
0.24000,-0.8625059348
0.24050,0.358271696
0.24100,0.9686605114
0.24150,-0.5573115271
0.24200,-3.609255604
0.24250,-5.44042205
0.24300,-6.356005273
0.24350,-6.966394089
0.24400,-7.881977312
0.24450,-8.18717172
0.24500,-7.271588497
0.24550,-6.050810866
0.24600,-5.135227643
0.24650,-5.135227643
0.24700,-5.44042205
0.24750,-5.745616458
0.24800,-6.356005273
0.24850,-6.966394089
0.24900,-6.966394089
0.24950,-6.661199681
0.25000,-6.661199681
0.25050,-6.966394089
0.25100,-7.271588497
0.25150,-6.661199681
0.25200,-5.745616458
0.25250,-5.135227643
0.25300,-4.21964442
0.25350,-1.778089158
0.25400,1.273854919
0.25450,2.799826958
0.25500,2.799826958
0.25550,2.799826958
0.25600,4.936187812
0.25650,6.156965442
0.25700,5.241382219
0.25750,3.105021365
0.25800,2.799826958
0.25850,3.715410181
0.25900,3.410215773
0.25950,1.579049327
0.26000,0.0530772883
0.26050,0.0530772883
0.26100,0.0530772883
0.26150,-0.5573115271
0.26200,-2.083283566
0.26250,-2.693672381
0.26300,-2.388477973
0.26350,-1.47289475
0.26400,-0.2521171194
0.26450,0.358271696
0.26500,0.0530772883
0.26550,-0.2521171194
0.26600,-0.2521171194
0.26650,0.9686605114
0.26700,1.884243735
0.26750,0.9686605114
0.26800,0.0530772883
0.26850,-0.2521171194
0.26900,0.6634661037
0.26950,1.579049327
0.27000,1.884243735
0.27050,1.579049327
0.27100,0.358271696
0.27150,-0.5573115271
0.27200,-0.8625059348
0.27250,-0.2521171194
0.27300,0.6634661037
0.27350,0.6634661037
0.27400,0.358271696
0.27450,0.6634661037
0.27500,0.9686605114
0.27550,0.358271696
0.27600,-0.2521171194
0.27650,-0.2521171194
0.27700,-0.2521171194
0.27750,0.358271696
0.27800,0.6634661037
0.27850,0.9686605114
0.27900,0.9686605114
0.27950,0.358271696
0.28000,0.0530772883
0.28050,0.358271696
0.28100,0.6634661037
0.28150,0.358271696
0.28200,0.0530772883
0.28250,-0.2521171194
0.28300,-0.2521171194
0.28350,-1.778089158
0.28400,-2.998866789
0.28450,-3.304061196
0.28500,-2.998866789
0.28550,-3.304061196
0.28600,-3.609255604
0.28650,-3.304061196
0.28700,-2.388477973
0.28750,-1.47289475
0.28800,-1.778089158
0.28850,-2.388477973
0.28900,-2.083283566
0.28950,-1.167700343
0.29000,0.6634661037
0.29050,3.410215773
0.29100,5.851771035
0.29150,6.156965442
0.29200,5.241382219
0.29250,4.936187812
0.29300,5.241382219
0.29350,5.241382219
0.29400,4.020604588
0.29450,2.799826958
0.29500,2.49463255
0.29550,3.410215773
0.29600,4.020604588
0.29650,4.936187812
0.29700,5.851771035
0.29750,6.156965442
0.29800,5.241382219
0.29850,3.715410181
0.29900,1.884243735
0.29950,1.273854919
0.30000,1.579049327
0.30050,1.884243735
0.30100,1.579049327
0.30150,0.6634661037
0.30200,0.358271696
0.30250,0.9686605114
0.30300,1.273854919
0.30350,0.0530772883
0.30400,-1.778089158
0.30450,-2.693672381
0.30500,-1.47289475
0.30550,0.6634661037
0.30600,2.799826958
0.30650,3.410215773
0.30700,3.105021365
0.30750,1.884243735
0.30800,0.358271696
0.30850,-0.5573115271
0.30900,-1.47289475
0.30950,-1.47289475
0.31000,-0.8625059348
0.31050,-0.5573115271
0.31100,-0.5573115271
0.31150,-0.5573115271
0.31200,-0.5573115271
0.31250,0.0530772883
0.31300,0.9686605114
0.31350,1.273854919
0.31400,1.579049327
0.31450,1.273854919
0.31500,1.273854919
0.31550,0.358271696
0.31600,-1.167700343
0.31650,-2.693672381
0.31700,-3.609255604
0.31750,-2.693672381
0.31800,-1.778089158
0.31850,-2.083283566
0.31900,-3.609255604
0.31950,-5.135227643
0.32000,-6.050810866
0.32050,-6.356005273
0.32100,-5.745616458
0.32150,-3.609255604
0.32200,-0.2521171194
0.32250,2.189438142
0.32300,4.020604588
0.32350,4.630993404
0.32400,4.936187812
0.32450,4.325798996
0.32500,2.799826958
0.32550,1.579049327
0.32600,1.579049327
0.32650,0.9686605114
0.32700,-0.5573115271
0.32750,-1.778089158
0.32800,-1.47289475
0.32850,-1.47289475
0.32900,-3.304061196
0.32950,-5.135227643
0.33000,-4.524838827
0.33050,-1.778089158
0.33100,-0.5573115271
0.33150,-1.778089158
0.33200,-2.388477973
0.33250,-0.8625059348
0.33300,0.0530772883
0.33350,0.0530772883
0.33400,0.358271696
0.33450,1.273854919
0.33500,1.884243735
0.33550,0.9686605114
0.33600,0.358271696
0.33650,0.9686605114
0.33700,0.9686605114
0.33750,-0.8625059348
0.33800,-3.609255604
0.33850,-4.21964442
0.33900,-3.609255604
0.33950,-2.998866789
0.34000,-2.998866789
0.34050,-2.693672381
0.34100,-2.083283566
0.34150,-2.388477973
0.34200,-2.998866789
0.34250,-2.693672381
0.34300,-1.778089158
0.34350,-0.8625059348
0.34400,-1.167700343
0.34450,-1.167700343
0.34500,-0.8625059348
0.34550,-0.8625059348
0.34600,-1.778089158
0.34650,-2.998866789
0.34700,-2.998866789
0.34750,-1.778089158
0.34800,0.0530772883
0.34850,1.884243735
0.34900,3.105021365
0.34950,3.715410181
0.35000,3.105021365
0.35050,1.884243735
0.35100,0.6634661037
0.35150,0.0530772883
0.35200,-0.2521171194
0.35250,0.0530772883
0.35300,0.6634661037
0.35350,1.579049327
0.35400,2.49463255
0.35450,1.884243735
0.35500,0.358271696
0.35550,-0.5573115271
0.35600,-0.2521171194
0.35650,-0.2521171194
0.35700,-1.47289475
0.35750,-3.609255604
0.35800,-4.21964442
0.35850,-3.609255604
0.35900,-3.304061196
0.35950,-3.304061196
0.36000,-2.693672381
0.36050,-2.083283566
0.36100,-2.388477973
0.36150,-2.998866789
0.36200,-3.304061196
0.36250,-2.388477973
0.36300,-1.167700343
0.36350,-0.2521171194
0.36400,-0.8625059348
0.36450,-2.998866789
0.36500,-4.830033235
0.36550,-4.830033235
0.36600,-1.778089158
0.36650,1.579049327
0.36700,3.410215773
0.36750,2.799826958
0.36800,2.189438142
0.36850,3.105021365
0.36900,4.325798996
0.36950,4.936187812
0.37000,4.325798996
0.37050,3.410215773
0.37100,3.105021365
0.37150,3.410215773
0.37200,3.715410181
0.37250,2.189438142
0.37300,-0.5573115271
0.37350,-3.609255604
0.37400,-4.524838827
0.37450,-3.609255604
0.37500,-2.388477973
0.37550,-1.778089158
0.37600,-1.167700343
0.37650,-0.2521171194
0.37700,-0.2521171194
0.37750,0.0530772883
0.37800,0.0530772883
0.37850,0.0530772883
0.37900,-0.5573115271
0.37950,-2.083283566
0.38000,-3.609255604
0.38050,-4.21964442
0.38100,-4.21964442
0.38150,-3.609255604
0.38200,-3.304061196
0.38250,-3.304061196
0.38300,-3.304061196
0.38350,-2.998866789
0.38400,-1.47289475
0.38450,-0.8625059348
0.38500,-0.8625059348
0.38550,-1.47289475
0.38600,-2.388477973
0.38650,-3.609255604
0.38700,-5.135227643
0.38750,-5.135227643
0.38800,-3.304061196
0.38850,-2.693672381
0.38900,-3.914450012
0.38950,-4.830033235
0.39000,-3.304061196
0.39050,-1.167700343
0.39100,-0.5573115271
0.39150,-1.47289475
0.39200,-2.083283566
0.39250,-0.8625059348
0.39300,-0.5573115271
0.39350,-1.778089158
0.39400,-3.304061196
0.39450,-3.304061196
0.39500,-2.388477973
0.39550,-2.388477973
0.39600,-3.304061196
0.39650,-3.304061196
0.39700,-2.388477973
0.39750,-1.47289475
0.39800,-1.47289475
0.39850,-1.47289475
0.39900,-0.8625059348
0.39950,0.358271696
0.40000,1.273854919
0.40050,1.579049327
0.40100,1.884243735
0.40150,1.884243735
0.40200,1.273854919
0.40250,1.273854919
0.40300,1.884243735
0.40350,2.799826958
0.40400,2.49463255
0.40450,0.9686605114
0.40500,-0.2521171194
0.40550,0.0530772883
0.40600,0.358271696
0.40650,0.358271696
0.40700,0.0530772883
0.40750,1.273854919
0.40800,2.49463255
0.40850,2.49463255
0.40900,0.9686605114
0.40950,-0.2521171194
0.41000,-0.2521171194
0.41050,0.0530772883
0.41100,0.9686605114
0.41150,1.579049327
0.41200,1.273854919
0.41250,0.6634661037
0.41300,0.358271696
0.41350,0.9686605114
0.41400,1.579049327
0.41450,0.9686605114
0.41500,-0.2521171194
0.41550,-1.47289475
0.41600,-1.167700343
0.41650,-0.2521171194
0.41700,0.358271696
0.41750,0.358271696
0.41800,0.6634661037
0.41850,0.6634661037
0.41900,0.6634661037
0.41950,0.6634661037
0.42000,0.6634661037
0.42050,0.6634661037
0.42100,-0.2521171194
0.42150,-1.167700343
0.42200,-1.778089158
0.42250,-1.167700343
0.42300,-0.2521171194
0.42350,-0.2521171194
0.42400,-1.167700343
0.42450,-2.083283566
0.42500,-2.998866789
0.42550,-2.998866789
0.42600,-1.778089158
0.42650,-0.2521171194
0.42700,-0.2521171194
0.42750,-0.2521171194
0.42800,-0.2521171194
0.42850,0.358271696
0.42900,0.6634661037
0.42950,0.0530772883
0.43000,0.358271696
0.43050,0.6634661037
0.43100,0.358271696
0.43150,-0.2521171194
0.43200,-0.2521171194
0.43250,0.358271696
0.43300,0.358271696
0.43350,-0.2521171194
0.43400,-0.8625059348
0.43450,-0.5573115271
0.43500,-0.5573115271
0.43550,-1.778089158
0.43600,-2.693672381
0.43650,-2.388477973
0.43700,-1.778089158
0.43750,-1.167700343
0.43800,-0.2521171194
0.43850,1.579049327
0.43900,3.105021365
0.43950,3.105021365
0.44000,1.579049327
0.44050,0.9686605114
0.44100,1.884243735
0.44150,2.49463255
0.44200,1.884243735
0.44250,0.0530772883
0.44300,-1.167700343
0.44350,-1.778089158
0.44400,-1.47289475
0.44450,-1.47289475
0.44500,-1.778089158
0.44550,-1.47289475
0.44600,-0.5573115271
0.44650,0.358271696
0.44700,0.9686605114
0.44750,1.273854919
0.44800,2.189438142
0.44850,3.105021365
0.44900,4.936187812
0.44950,6.767354258
0.45000,8.598520704
0.45050,9.208909519
0.45100,8.598520704
0.45150,8.598520704
0.45200,8.903715112
0.45250,8.293326296
0.45300,6.46215985
0.45350,4.325798996
0.45400,4.020604588
0.45450,4.325798996
0.45500,4.325798996
0.45550,2.799826958
0.45600,0.6634661037
0.45650,-0.2521171194
0.45700,-0.8625059348
0.45750,-1.47289475
0.45800,-2.693672381
0.45850,-4.21964442
0.45900,-6.050810866
0.45950,-7.576782904
0.46000,-8.492366127
0.46050,-7.881977312
0.46100,-6.966394089
0.46150,-6.050810866
0.46200,-5.135227643
0.46250,-4.21964442
0.46300,-3.914450012
0.46350,-4.830033235
0.46400,-5.745616458
0.46450,-5.745616458
0.46500,-4.830033235
0.46550,-4.524838827
0.46600,-5.135227643
0.46650,-5.44042205
0.46700,-5.135227643
0.46750,-5.135227643
0.46800,-5.44042205
0.46850,-5.745616458
0.46900,-4.830033235
0.46950,-2.388477973
0.47000,-0.2521171194
0.47050,0.0530772883
0.47100,-0.2521171194
0.47150,-0.2521171194
0.47200,-0.2521171194
0.47250,-0.2521171194
0.47300,-0.5573115271
0.47350,-1.778089158
0.47400,-2.693672381
0.47450,-2.388477973
0.47500,-0.8625059348
0.47550,0.358271696
0.47600,0.9686605114
0.47650,0.9686605114
0.47700,1.273854919
0.47750,2.49463255
0.47800,3.410215773
0.47850,3.410215773
0.47900,2.799826958
0.47950,2.189438142
0.48000,1.884243735
0.48050,1.273854919
0.48100,-0.2521171194
0.48150,-0.5573115271
0.48200,-0.2521171194
0.48250,1.273854919
0.48300,1.884243735
0.48350,2.189438142
0.48400,3.105021365
0.48450,4.020604588
0.48500,4.325798996
0.48550,3.105021365
0.48600,1.884243735
0.48650,1.884243735
0.48700,1.884243735
0.48750,0.9686605114
0.48800,0.358271696
0.48850,0.358271696
0.48900,0.358271696
0.48950,-0.5573115271
0.49000,-1.778089158
0.49050,-1.167700343
0.49100,1.579049327
0.49150,4.630993404
0.49200,5.546576627
0.49250,4.630993404
0.49300,2.799826958
0.49350,1.884243735
0.49400,1.579049327
0.49450,2.189438142
0.49500,2.49463255
0.49550,2.49463255
0.49600,2.189438142
0.49650,2.189438142
0.49700,2.189438142
0.49750,1.273854919
0.49800,-0.2521171194
0.49850,-1.167700343
0.49900,-1.778089158
0.49950,-1.778089158
0.50000,-0.8625059348
0.50050,-0.2521171194
0.50100,1.579049327
0.50150,2.799826958
0.50200,3.410215773
0.50250,2.799826958
0.50300,2.189438142
0.50350,2.189438142
0.50400,2.189438142
0.50450,2.49463255
0.50500,2.49463255
0.50550,2.799826958
0.50600,3.410215773
0.50650,3.715410181
0.50700,3.105021365
0.50750,1.273854919
0.50800,-0.2521171194
0.50850,-0.5573115271
0.50900,0.0530772883
0.50950,1.273854919
0.51000,1.884243735
0.51050,2.189438142
0.51100,2.189438142
0.51150,1.884243735
0.51200,1.884243735
0.51250,1.884243735
0.51300,2.49463255
0.51350,2.799826958
0.51400,2.49463255
0.51450,3.105021365
0.51500,5.851771035
0.51550,9.819298335
0.51600,12.566048
0.51650,13.78682563
0.51700,14.09202004
0.51750,14.09202004
0.51800,14.09202004
0.51850,13.48163123
0.51900,12.87124241
0.51950,11.95565919
0.52000,10.73488156
0.52050,10.12449274
0.52100,10.42968715
0.52150,10.42968715
0.52200,9.514103927
0.52250,7.377743073
0.52300,5.546576627
0.52350,3.715410181
0.52400,0.9686605114
0.52450,-2.388477973
0.52500,-5.135227643
0.52550,-6.356005273
0.52600,-7.881977312
0.52650,-10.62872698
0.52700,-14.29105987
0.52750,-17.95339277
0.52800,-20.39494803
0.52850,-22.22611447
0.52900,-22.83650329
0.52950,-22.22611447
0.53000,-20.39494803
0.53050,-17.34300395
0.53100,-14.29105987
0.53150,-12.45989343
0.53200,-11.84950461
0.53250,-11.5443102
0.53300,-10.62872698
0.53350,-9.102754943
0.53400,-8.492366127
0.53450,-8.492366127
0.53500,-8.18717172
0.53550,-7.576782904
0.53600,-6.966394089
0.53650,-6.356005273
0.53700,-6.050810866
0.53750,-5.44042205
0.53800,-5.44042205
0.53850,-5.135227643
0.53900,-4.21964442
0.53950,-3.304061196
0.54000,-2.693672381
0.54050,-1.778089158
0.54100,-0.2521171194
0.54150,1.884243735
0.54200,2.49463255
0.54250,2.189438142
0.54300,2.189438142
0.54350,3.410215773
0.54400,4.325798996
0.54450,4.325798996
0.54500,3.715410181
0.54550,3.410215773
0.54600,3.410215773
0.54650,3.410215773
0.54700,3.410215773
0.54750,3.410215773
0.54800,3.410215773
0.54850,3.410215773
0.54900,3.105021365
0.54950,3.410215773
0.55000,3.410215773
0.55050,3.105021365
0.55100,1.884243735
0.55150,0.0530772883
0.55200,-0.5573115271
0.55250,-0.5573115271
0.55300,0.6634661037
0.55350,1.884243735
0.55400,1.579049327
0.55450,0.358271696
0.55500,-0.2521171194
0.55550,-0.2521171194
0.55600,-0.2521171194
0.55650,-1.167700343
0.55700,-2.083283566
0.55750,-2.998866789
0.55800,-3.304061196
0.55850,-2.083283566
0.55900,-0.2521171194
0.55950,1.579049327
0.56000,2.189438142
0.56050,1.579049327
0.56100,1.273854919
0.56150,3.105021365
0.56200,5.851771035
0.56250,7.988131889
0.56300,7.682937481
0.56350,5.546576627
0.56400,3.105021365
0.56450,2.49463255
0.56500,2.799826958
0.56550,3.410215773
0.56600,3.715410181
0.56650,4.020604588
0.56700,4.325798996
0.56750,3.105021365
0.56800,0.9686605114
0.56850,-0.5573115271
0.56900,-1.167700343
0.56950,-0.8625059348
0.57000,-0.8625059348
0.57050,-1.167700343
0.57100,-1.47289475
0.57150,-1.167700343
0.57200,-1.47289475
0.57250,-2.083283566
0.57300,-2.083283566
0.57350,-1.778089158
0.57400,-1.167700343
0.57450,-1.167700343
0.57500,-1.778089158
0.57550,-1.47289475
0.57600,-0.2521171194
0.57650,1.273854919
0.57700,1.273854919
0.57750,0.358271696
0.57800,-0.2521171194
0.57850,0.0530772883
0.57900,0.358271696
0.57950,-0.2521171194
0.58000,-1.47289475
0.58050,-2.083283566
0.58100,-2.083283566
0.58150,-2.083283566
0.58200,-2.083283566
0.58250,-1.778089158
0.58300,-1.778089158
0.58350,-2.388477973
0.58400,-3.304061196
0.58450,-3.304061196
0.58500,-2.693672381
0.58550,-2.083283566
0.58600,-1.778089158
0.58650,-1.778089158
0.58700,-1.47289475
0.58750,-0.5573115271
0.58800,0.6634661037
0.58850,2.189438142
0.58900,3.410215773
0.58950,4.325798996
0.59000,4.936187812
0.59050,4.630993404
0.59100,3.715410181
0.59150,3.410215773
0.59200,3.715410181
0.59250,3.105021365
0.59300,1.273854919
0.59350,-0.2521171194
0.59400,-0.2521171194
0.59450,0.0530772883
0.59500,-0.2521171194
0.59550,-1.778089158
0.59600,-2.083283566
0.59650,-0.8625059348
0.59700,0.358271696
0.59750,0.6634661037
0.59800,0.0530772883
0.59850,0.358271696
0.59900,1.273854919
0.59950,1.579049327
0.60000,1.273854919
0.60050,0.0530772883
0.60100,-1.167700343
0.60150,-3.304061196
0.60200,-4.524838827
0.60250,-3.914450012
0.60300,-1.47289475
0.60350,0.6634661037
0.60400,2.189438142
0.60450,3.105021365
0.60500,2.49463255
0.60550,0.6634661037
0.60600,-1.47289475
0.60650,-2.388477973
0.60700,-1.778089158
0.60750,-0.8625059348
0.60800,-1.47289475
0.60850,-2.388477973
0.60900,-1.778089158
0.60950,-0.5573115271
0.61000,-0.2521171194
0.61050,-0.2521171194
0.61100,0.358271696
0.61150,1.273854919
0.61200,1.579049327
0.61250,0.358271696
0.61300,-0.5573115271
0.61350,-1.47289475
0.61400,-2.083283566
0.61450,-2.388477973
0.61500,-1.778089158
0.61550,-0.8625059348
0.61600,-0.5573115271
0.61650,-0.8625059348
0.61700,-0.2521171194
0.61750,2.49463255
0.61800,4.936187812
0.61850,4.936187812
0.61900,3.715410181
0.61950,3.715410181
0.62000,5.241382219
0.62050,5.851771035
0.62100,4.325798996
0.62150,3.105021365
0.62200,3.715410181
0.62250,4.936187812
0.62300,3.715410181
0.62350,0.0530772883
0.62400,-2.998866789
0.62450,-4.524838827
0.62500,-6.050810866
0.62550,-9.102754943
0.62600,-13.68067106
0.62650,-16.73261514
0.62700,-18.56378158
0.62750,-19.78455921
0.62800,-21.31053125
0.62850,-23.1416977
0.62900,-24.36247533
0.62950,-25.27805855
0.63000,-25.58325296
0.63050,-24.97286414
0.63100,-24.05728092
0.63150,-23.1416977
0.63200,-21.61572566
0.63250,-18.56378158
0.63300,-13.98586547
0.63350,-9.713143758
0.63400,-6.966394089
0.63450,-5.44042205
0.63500,-4.21964442
0.63550,-3.914450012
0.63600,-4.524838827
0.63650,-5.44042205
0.63700,-5.745616458
0.63750,-5.745616458
0.63800,-5.44042205
0.63850,-4.830033235
0.63900,-3.304061196
0.63950,-2.083283566
0.64000,-0.8625059348
0.64050,-0.2521171194
0.64100,1.273854919
0.64150,1.579049327
0.64200,0.6634661037
0.64250,0.358271696
0.64300,1.579049327
0.64350,2.799826958
0.64400,1.579049327
0.64450,-1.167700343
0.64500,-2.388477973
0.64550,-0.8625059348
0.64600,0.358271696
0.64650,-0.2521171194
0.64700,-1.47289475
0.64750,-0.8625059348
0.64800,0.358271696
0.64850,0.358271696
0.64900,-1.167700343
0.64950,-2.083283566
0.65000,-0.8625059348
0.65050,0.9686605114
0.65100,1.273854919
0.65150,1.273854919
0.65200,1.579049327
0.65250,2.189438142
0.65300,2.189438142
0.65350,2.49463255
0.65400,4.020604588
0.65450,5.546576627
0.65500,5.851771035
0.65550,5.241382219
0.65600,5.546576627
0.65650,7.377743073
0.65700,9.208909519
0.65750,8.903715112
0.65800,7.377743073
0.65850,6.156965442
0.65900,5.546576627
0.65950,5.546576627
0.66000,5.546576627
0.66050,6.767354258
0.66100,8.293326296
0.66150,7.377743073
0.66200,4.325798996
0.66250,1.579049327
0.66300,0.9686605114
0.66350,0.9686605114
0.66400,0.358271696
0.66450,-0.2521171194
0.66500,1.273854919
0.66550,4.020604588
0.66600,5.546576627
0.66650,4.936187812
0.66700,4.936187812
0.66750,6.46215985
0.66800,7.988131889
0.66850,8.598520704
0.66900,8.903715112
0.66950,9.514103927
0.67000,9.514103927
0.67050,7.682937481
0.67100,6.156965442
0.67150,6.46215985
0.67200,7.072548665
0.67250,6.156965442
0.67300,4.630993404
0.67350,4.020604588
0.67400,4.325798996
0.67450,3.715410181
0.67500,1.884243735
0.67550,1.273854919
0.67600,2.189438142
0.67650,3.105021365
0.67700,2.49463255
0.67750,1.273854919
0.67800,0.9686605114
0.67850,2.49463255
0.67900,4.630993404
0.67950,5.546576627
0.68000,4.020604588
0.68050,0.6634661037
0.68100,-0.8625059348
0.68150,-0.2521171194
0.68200,1.884243735
0.68250,1.884243735
0.68300,0.6634661037
0.68350,0.0530772883
0.68400,1.273854919
0.68450,1.884243735
0.68500,0.6634661037
0.68550,0.0530772883
0.68600,0.9686605114
0.68650,2.49463255
0.68700,2.189438142
0.68750,1.579049327
0.68800,2.49463255
0.68850,4.325798996
0.68900,4.936187812
0.68950,4.936187812
0.69000,6.156965442
0.69050,7.988131889
0.69100,8.598520704
0.69150,7.988131889
0.69200,7.072548665
0.69250,7.072548665
0.69300,6.46215985
0.69350,5.546576627
0.69400,4.936187812
0.69450,4.936187812
0.69500,3.715410181
0.69550,1.579049327
0.69600,0.9686605114
0.69650,2.49463255
0.69700,3.715410181
0.69750,4.020604588
0.69800,3.715410181
0.69850,4.020604588
0.69900,2.799826958
0.69950,-0.2521171194
0.70000,-2.693672381
0.70050,-3.609255604
0.70100,-3.304061196
0.70150,-4.524838827
0.70200,-5.44042205
0.70250,-4.524838827
0.70300,-2.998866789
0.70350,-2.998866789
0.70400,-3.914450012
0.70450,-2.998866789
0.70500,-0.8625059348
0.70550,-0.8625059348
0.70600,-3.304061196
0.70650,-4.524838827
0.70700,-3.609255604
0.70750,-2.388477973
0.70800,-2.388477973
0.70850,-2.693672381
0.70900,-1.47289475
0.70950,0.0530772883
0.71000,0.0530772883
0.71050,0.0530772883
0.71100,0.6634661037
0.71150,1.579049327
0.71200,1.579049327
0.71250,1.884243735
0.71300,2.799826958
0.71350,3.410215773
0.71400,2.49463255
0.71450,1.273854919
0.71500,1.579049327
0.71550,2.49463255
0.71600,1.273854919
0.71650,-0.8625059348
0.71700,-2.388477973
0.71750,-1.778089158
0.71800,-0.8625059348
0.71850,-0.8625059348
0.71900,-1.167700343
0.71950,-0.8625059348
0.72000,-0.8625059348
0.72050,-1.167700343
0.72100,-1.778089158
0.72150,-1.778089158
0.72200,-2.388477973
0.72250,-3.914450012
0.72300,-5.135227643
0.72350,-4.524838827
0.72400,-2.998866789
0.72450,-2.998866789
0.72500,-3.914450012
0.72550,-3.914450012
0.72600,-2.693672381
0.72650,-2.388477973
0.72700,-2.693672381
0.72750,-2.998866789
0.72800,-1.778089158
0.72850,-1.47289475
0.72900,-2.388477973
0.72950,-3.304061196
0.73000,-1.778089158
0.73050,0.0530772883
0.73100,0.9686605114
0.73150,0.0530772883
0.73200,-1.167700343
0.73250,-2.693672381
0.73300,-4.830033235
0.73350,-6.050810866
0.73400,-5.135227643
0.73450,-3.304061196
0.73500,-2.998866789
0.73550,-4.830033235
0.73600,-6.661199681
0.73650,-6.661199681
0.73700,-6.050810866
0.73750,-5.44042205
0.73800,-5.44042205
0.73850,-6.050810866
0.73900,-7.576782904
0.73950,-8.797560535
0.74000,-8.18717172
0.74050,-6.050810866
0.74100,-4.524838827
0.74150,-4.830033235
0.74200,-5.135227643
0.74250,-4.524838827
0.74300,-3.914450012
0.74350,-3.609255604
0.74400,-3.914450012
0.74450,-4.524838827
0.74500,-4.524838827
0.74550,-3.914450012
0.74600,-3.609255604
0.74650,-3.914450012
0.74700,-4.830033235
0.74750,-4.830033235
0.74800,-4.21964442
0.74850,-3.914450012
0.74900,-4.524838827
0.74950,-4.830033235
0.75000,-3.914450012
0.75050,-1.778089158
0.75100,-1.167700343
0.75150,-2.388477973
0.75200,-4.21964442
0.75250,-4.830033235
0.75300,-4.524838827
0.75350,-3.609255604
0.75400,-2.998866789
0.75450,-2.693672381
0.75500,-2.083283566
0.75550,-0.8625059348
0.75600,-0.2521171194
0.75650,-0.2521171194
0.75700,-0.2521171194
0.75750,0.9686605114
0.75800,2.49463255
0.75850,3.410215773
0.75900,3.410215773
0.75950,3.410215773
0.76000,3.715410181
0.76050,3.410215773
0.76100,3.105021365
0.76150,2.799826958
0.76200,2.49463255
0.76250,1.579049327
0.76300,0.358271696
0.76350,0.0530772883
0.76400,1.273854919
0.76450,2.799826958
0.76500,3.410215773
0.76550,3.410215773
0.76600,3.105021365
0.76650,2.49463255
0.76700,1.884243735
0.76750,1.273854919
0.76800,1.579049327
0.76850,1.579049327
0.76900,1.273854919
0.76950,0.6634661037
0.77000,0.358271696
0.77050,0.9686605114
0.77100,2.189438142
0.77150,3.410215773
0.77200,4.325798996
0.77250,4.325798996
0.77300,4.325798996
0.77350,4.325798996
0.77400,4.936187812
0.77450,5.241382219
0.77500,4.630993404
0.77550,3.715410181
0.77600,2.799826958
0.77650,2.799826958
0.77700,3.105021365
0.77750,3.105021365
0.77800,1.884243735
0.77850,0.9686605114
0.77900,1.273854919
0.77950,2.189438142
0.78000,2.49463255
0.78050,1.273854919
0.78100,0.6634661037
0.78150,0.9686605114
0.78200,0.9686605114
0.78250,-0.2521171194
0.78300,-1.778089158
0.78350,-1.778089158
0.78400,-1.167700343
0.78450,-1.778089158
0.78500,-2.083283566
0.78550,-0.5573115271
0.78600,1.579049327
0.78650,2.49463255
0.78700,1.579049327
0.78750,0.6634661037
0.78800,0.358271696
0.78850,-0.2521171194
0.78900,-1.167700343
0.78950,-1.167700343
0.79000,-0.5573115271
0.79050,-1.167700343
0.79100,-2.388477973
0.79150,-2.083283566
0.79200,-0.5573115271
0.79250,-0.5573115271
0.79300,-2.083283566
0.79350,-2.998866789
0.79400,-1.778089158
0.79450,-1.167700343
0.79500,-2.693672381
0.79550,-3.609255604
0.79600,-2.083283566
0.79650,0.6634661037
0.79700,1.884243735
0.79750,1.273854919
0.79800,0.9686605114
0.79850,1.273854919
0.79900,2.189438142
0.79950,3.410215773
0.80000,5.241382219
0.80050,6.46215985
0.80100,6.46215985
0.80150,5.241382219
0.80200,4.325798996
0.80250,3.410215773
0.80300,2.189438142
0.80350,1.579049327
0.80400,2.799826958
0.80450,4.630993404
0.80500,4.936187812
0.80550,4.020604588
0.80600,3.410215773
0.80650,4.020604588
0.80700,4.630993404
0.80750,4.325798996
0.80800,3.410215773
0.80850,2.49463255
0.80900,1.579049327
0.80950,0.358271696
0.81000,-0.2521171194
0.81050,0.358271696
0.81100,0.6634661037
0.81150,0.0530772883
0.81200,-0.5573115271
0.81250,-0.8625059348
0.81300,-0.8625059348
0.81350,-2.388477973
0.81400,-4.21964442
0.81450,-4.21964442
0.81500,-2.693672381
0.81550,-2.083283566
0.81600,-2.998866789
0.81650,-4.21964442
0.81700,-4.524838827
0.81750,-4.830033235
0.81800,-5.745616458
0.81850,-5.44042205
0.81900,-3.304061196
0.81950,-0.2521171194
0.82000,0.358271696
0.82050,0.0530772883
0.82100,-0.2521171194
0.82150,-0.2521171194
0.82200,-0.2521171194
0.82250,-0.8625059348
0.82300,-1.167700343
0.82350,-0.2521171194
0.82400,0.6634661037
0.82450,0.9686605114
0.82500,0.9686605114
0.82550,0.6634661037
0.82600,0.6634661037
0.82650,0.9686605114
0.82700,0.9686605114
0.82750,0.6634661037
0.82800,-0.2521171194
0.82850,-1.167700343
0.82900,-1.47289475
0.82950,-1.47289475
0.83000,-2.083283566
0.83050,-2.998866789
0.83100,-3.304061196
0.83150,-2.998866789
0.83200,-3.304061196
0.83250,-4.830033235
0.83300,-5.745616458
0.83350,-6.356005273
0.83400,-7.271588497
0.83450,-8.492366127
0.83500,-8.492366127
0.83550,-6.966394089
0.83600,-5.745616458
0.83650,-6.050810866
0.83700,-6.050810866
0.83750,-4.524838827
0.83800,-2.998866789
0.83850,-3.609255604
0.83900,-4.830033235
0.83950,-3.914450012
0.84000,-1.47289475
0.84050,-0.2521171194
0.84100,-0.5573115271
0.84150,-1.778089158
0.84200,-2.083283566
0.84250,-2.083283566
0.84300,-2.693672381
0.84350,-3.304061196
0.84400,-2.998866789
0.84450,-2.693672381
0.84500,-3.609255604
0.84550,-4.21964442
0.84600,-3.304061196
0.84650,-1.778089158
0.84700,-0.8625059348
0.84750,-2.083283566
0.84800,-3.914450012
0.84850,-4.21964442
0.84900,-2.693672381
0.84950,-0.2521171194
0.85000,1.273854919
0.85050,0.9686605114
0.85100,0.6634661037
0.85150,1.579049327
0.85200,3.715410181
0.85250,5.851771035
0.85300,6.46215985
0.85350,6.156965442
0.85400,5.851771035
0.85450,6.156965442
0.85500,6.767354258
0.85550,6.46215985
0.85600,5.241382219
0.85650,3.410215773
0.85700,2.189438142
0.85750,1.579049327
0.85800,1.273854919
0.85850,0.6634661037
0.85900,0.0530772883
0.85950,0.358271696
0.86000,1.273854919
0.86050,1.884243735
0.86100,0.9686605114
0.86150,0.0530772883
0.86200,-0.2521171194
0.86250,-0.2521171194
0.86300,-1.167700343
0.86350,-2.388477973
0.86400,-2.083283566
0.86450,-1.167700343
0.86500,-0.8625059348
0.86550,-1.778089158
0.86600,-2.388477973
0.86650,-2.388477973
0.86700,-2.388477973
0.86750,-2.998866789
0.86800,-3.914450012
0.86850,-4.21964442
0.86900,-4.21964442
0.86950,-3.914450012
0.87000,-3.609255604
0.87050,-2.388477973
0.87100,-1.47289475
0.87150,-0.5573115271
0.87200,0.0530772883
0.87250,0.9686605114
0.87300,1.884243735
0.87350,2.799826958
0.87400,4.020604588
0.87450,5.241382219
0.87500,5.546576627
0.87550,4.630993404
0.87600,3.410215773
0.87650,1.884243735
0.87700,0.9686605114
0.87750,0.0530772883
0.87800,0.0530772883
0.87850,0.9686605114
0.87900,1.884243735
0.87950,2.49463255
0.88000,1.884243735
0.88050,0.9686605114
0.88100,0.6634661037
0.88150,1.884243735
0.88200,3.410215773
0.88250,4.325798996
0.88300,4.630993404
0.88350,4.325798996
0.88400,4.020604588
0.88450,3.410215773
0.88500,2.799826958
0.88550,2.799826958
0.88600,3.715410181
0.88650,5.241382219
0.88700,6.46215985
0.88750,7.682937481
0.88800,7.988131889
0.88850,5.851771035
0.88900,2.799826958
0.88950,1.273854919
0.89000,2.189438142
0.89050,3.715410181
0.89100,3.715410181
0.89150,1.884243735
0.89200,1.273854919
0.89250,0.9686605114
0.89300,0.0530772883
0.89350,-1.47289475
0.89400,-2.083283566
0.89450,-1.167700343
0.89500,-0.2521171194
0.89550,-1.47289475
0.89600,-3.304061196
0.89650,-4.21964442
0.89700,-5.135227643
0.89750,-6.050810866
0.89800,-6.356005273
0.89850,-5.44042205
0.89900,-3.914450012
0.89950,-3.304061196
0.90000,-2.998866789
0.90050,-2.083283566
0.90100,-1.47289475
0.90150,-2.388477973
0.90200,-2.998866789
0.90250,-2.388477973
0.90300,-1.47289475
0.90350,-1.47289475
0.90400,-2.388477973
0.90450,-2.693672381
0.90500,-1.778089158
0.90550,-1.47289475
0.90600,-2.388477973
0.90650,-2.998866789
0.90700,-2.998866789
0.90750,-2.693672381
0.90800,-2.693672381
0.90850,-2.388477973
0.90900,-1.167700343
0.90950,-0.5573115271
0.91000,-1.167700343
0.91050,-1.167700343
0.91100,-0.5573115271
0.91150,-0.2521171194
0.91200,-0.8625059348
0.91250,-1.167700343
0.91300,-0.8625059348
0.91350,-0.5573115271
0.91400,-1.47289475
0.91450,-1.778089158
0.91500,-1.47289475
0.91550,-1.778089158
0.91600,-3.609255604
0.91650,-5.135227643
0.91700,-4.524838827
0.91750,-2.388477973
0.91800,-1.47289475
0.91850,-2.388477973
0.91900,-3.304061196
0.91950,-2.998866789
0.92000,-2.388477973
0.92050,-2.693672381
0.92100,-4.21964442
0.92150,-5.745616458
0.92200,-5.745616458
0.92250,-3.914450012
0.92300,-2.693672381
0.92350,-2.998866789
0.92400,-4.524838827
0.92450,-5.135227643
0.92500,-3.609255604
0.92550,-1.167700343
0.92600,0.0530772883
0.92650,0.358271696
0.92700,0.0530772883
0.92750,-0.2521171194
0.92800,-0.5573115271
0.92850,0.0530772883
0.92900,2.189438142
0.92950,3.715410181
0.93000,3.715410181
0.93050,2.189438142
0.93100,0.9686605114
0.93150,0.6634661037
0.93200,1.273854919
0.93250,1.579049327
0.93300,2.189438142
0.93350,3.105021365
0.93400,4.325798996
0.93450,4.936187812
0.93500,4.630993404
0.93550,4.630993404
0.93600,6.156965442
0.93650,8.293326296
0.93700,10.42968715
0.93750,11.95565919
0.93800,13.48163123
0.93850,15.00760327
0.93900,15.00760327
0.93950,13.17643682
0.94000,10.42968715
0.94050,7.682937481
0.94100,5.851771035
0.94150,4.630993404
0.94200,4.630993404
0.94250,5.546576627
0.94300,6.46215985
0.94350,7.072548665
0.94400,7.072548665
0.94450,6.46215985
0.94500,4.630993404
0.94550,2.189438142
0.94600,0.6634661037
0.94650,0.9686605114
0.94700,0.6634661037
0.94750,-0.5573115271
0.94800,-1.167700343
0.94850,-0.2521171194
0.94900,0.6634661037
0.94950,-1.47289475
0.95000,-5.745616458
0.95050,-8.18717172
0.95100,-8.18717172
0.95150,-9.40794935
0.95200,-12.15469902
0.95250,-14.29105987
0.95300,-13.98586547
0.95350,-13.68067106
0.95400,-15.5118375
0.95450,-18.25858717
0.95500,-19.1741704
0.95550,-18.86897599
0.95600,-18.86897599
0.95650,-18.56378158
0.95700,-17.95339277
0.95750,-16.12222632
0.95800,-14.29105987
0.95850,-12.45989343
0.95900,-10.62872698
0.95950,-9.713143758
0.96000,-10.62872698
0.96050,-11.5443102
0.96100,-10.01833817
0.96150,-7.271588497
0.96200,-5.44042205
0.96250,-4.830033235
0.96300,-3.609255604
0.96350,-1.778089158
0.96400,-1.167700343
0.96450,-2.388477973
0.96500,-2.693672381
0.96550,-1.167700343
0.96600,1.273854919
0.96650,3.105021365
0.96700,3.410215773
0.96750,3.410215773
0.96800,2.799826958
0.96850,2.189438142
0.96900,1.579049327
0.96950,1.884243735
0.97000,2.49463255
0.97050,2.49463255
0.97100,1.579049327
0.97150,0.9686605114
0.97200,2.189438142
0.97250,4.020604588
0.97300,4.630993404
0.97350,3.410215773
0.97400,2.189438142
0.97450,1.884243735
0.97500,2.49463255
0.97550,2.799826958
0.97600,2.49463255
0.97650,1.579049327
0.97700,-0.2521171194
0.97750,-0.8625059348
0.97800,-0.2521171194
0.97850,0.9686605114
0.97900,0.9686605114
0.97950,-0.2521171194
0.98000,-0.8625059348
0.98050,0.358271696
0.98100,1.273854919
0.98150,0.358271696
0.98200,-0.2521171194
0.98250,0.9686605114
0.98300,3.410215773
0.98350,4.020604588
0.98400,2.49463255
0.98450,1.884243735
0.98500,2.189438142
0.98550,2.189438142
0.98600,1.579049327
0.98650,1.273854919
0.98700,1.884243735
0.98750,2.189438142
0.98800,1.579049327
0.98850,2.189438142
0.98900,3.715410181
0.98950,5.241382219
0.99000,4.936187812
0.99050,3.715410181
0.99100,3.105021365
0.99150,2.799826958
0.99200,1.884243735
0.99250,1.579049327
0.99300,1.884243735
0.99350,2.49463255
0.99400,2.49463255
0.99450,1.884243735
0.99500,1.884243735
0.99550,2.189438142
0.99600,1.884243735
0.99650,1.273854919
0.99700,0.9686605114
0.99750,0.9686605114
0.99800,1.884243735
0.99850,3.105021365
0.99900,3.715410181
0.99950,2.49463255
1.00000,0.9686605114
1.00050,0.358271696
1.00100,0.6634661037
1.00150,0.9686605114
1.00200,0.0530772883
1.00250,-0.5573115271
1.00300,-0.2521171194
1.00350,0.0530772883
1.00400,-0.2521171194
1.00450,-0.2521171194
1.00500,0.0530772883
1.00550,1.579049327
1.00600,2.189438142
1.00650,0.9686605114
1.00700,0.358271696
1.00750,0.9686605114
1.00800,2.799826958
1.00850,4.325798996
1.00900,4.630993404
1.00950,4.325798996
1.01000,3.410215773
1.01050,2.189438142
1.01100,1.273854919
1.01150,1.273854919
1.01200,1.579049327
1.01250,1.579049327
1.01300,0.9686605114
1.01350,0.358271696
1.01400,0.6634661037
1.01450,0.9686605114
1.01500,0.6634661037
1.01550,0.0530772883
1.01600,-0.2521171194
1.01650,-0.2521171194
1.01700,0.6634661037
1.01750,2.799826958
1.01800,4.936187812
1.01850,6.767354258
1.01900,7.377743073
1.01950,7.377743073
1.02000,8.293326296
1.02050,9.819298335
1.02100,10.73488156
1.02150,10.12449274
1.02200,8.903715112
1.02250,7.682937481
1.02300,6.46215985
1.02350,5.241382219
1.02400,4.020604588
1.02450,4.325798996
1.02500,5.241382219
1.02550,4.936187812
1.02600,3.105021365
1.02650,2.189438142
1.02700,3.105021365
1.02750,3.715410181
1.02800,3.715410181
1.02850,3.410215773
1.02900,4.020604588
1.02950,4.020604588
1.03000,3.105021365
1.03050,2.189438142
1.03100,3.105021365
1.03150,3.715410181
1.03200,2.49463255
1.03250,-0.2521171194
1.03300,-1.778089158
1.03350,-2.693672381
1.03400,-3.304061196
1.03450,-4.21964442
1.03500,-5.135227643
1.03550,-6.050810866
1.03600,-6.661199681
1.03650,-7.271588497
1.03700,-8.18717172
1.03750,-9.713143758
1.03800,-11.2391158
1.03850,-10.62872698
1.03900,-8.492366127
1.03950,-7.576782904
1.04000,-8.492366127
1.04050,-8.797560535
1.04100,-7.576782904
1.04150,-6.050810866
1.04200,-5.44042205
1.04250,-4.524838827
1.04300,-3.304061196
1.04350,-3.304061196
1.04400,-4.830033235
1.04450,-5.44042205
1.04500,-4.524838827
1.04550,-4.524838827
1.04600,-6.966394089
1.04650,-9.713143758
1.04700,-8.492366127
1.04750,-5.135227643
1.04800,-3.304061196
1.04850,-3.914450012
1.04900,-4.21964442
1.04950,-3.609255604
1.05000,-4.21964442
1.05050,-6.050810866
1.05100,-6.661199681
1.05150,-5.135227643
1.05200,-3.609255604
1.05250,-3.609255604
1.05300,-3.609255604
1.05350,-2.998866789
1.05400,-1.778089158
1.05450,-1.778089158
1.05500,-2.083283566
1.05550,-2.388477973
1.05600,-1.778089158
1.05650,-1.47289475
1.05700,-1.47289475
1.05750,-1.47289475
1.05800,-1.778089158
1.05850,-2.083283566
1.05900,-2.693672381
1.05950,-2.998866789
1.06000,-2.388477973
1.06050,-1.167700343
1.06100,0.358271696
1.06150,1.579049327
1.06200,2.799826958
1.06250,4.020604588
1.06300,4.325798996
1.06350,3.410215773
1.06400,1.579049327
1.06450,0.9686605114
1.06500,1.884243735
1.06550,3.105021365
1.06600,3.715410181
1.06650,4.020604588
1.06700,4.325798996
1.06750,4.630993404
1.06800,4.325798996
1.06850,4.020604588
1.06900,3.715410181
1.06950,2.799826958
1.07000,1.884243735
1.07050,1.579049327
1.07100,0.9686605114
1.07150,0.358271696
1.07200,0.0530772883
1.07250,0.9686605114
1.07300,2.189438142
1.07350,2.189438142
1.07400,1.579049327
1.07450,1.273854919
1.07500,2.189438142
1.07550,2.799826958
1.07600,2.189438142
1.07650,1.273854919
1.07700,0.9686605114
1.07750,1.579049327
1.07800,1.579049327
1.07850,0.6634661037
1.07900,-0.5573115271
1.07950,-1.47289475
1.08000,-1.47289475
1.08050,-1.47289475
1.08100,-1.778089158
1.08150,-1.778089158
1.08200,-1.47289475
1.08250,-0.2521171194
1.08300,0.6634661037
1.08350,1.273854919
1.08400,1.273854919
1.08450,0.9686605114
1.08500,0.358271696
1.08550,-0.2521171194
1.08600,0.0530772883
1.08650,0.358271696
1.08700,0.6634661037
1.08750,0.0530772883
1.08800,-0.5573115271
1.08850,-1.47289475
1.08900,-1.47289475
1.08950,-0.2521171194
1.09000,0.6634661037
1.09050,0.9686605114
1.09100,0.0530772883
1.09150,-0.2521171194
1.09200,0.0530772883
1.09250,0.6634661037
1.09300,0.0530772883
1.09350,-0.5573115271
1.09400,-1.167700343
1.09450,-1.47289475
1.09500,-1.778089158
1.09550,-1.47289475
1.09600,-0.2521171194
1.09650,0.6634661037
1.09700,-0.2521171194
1.09750,-1.167700343
1.09800,-1.47289475
1.09850,-0.2521171194
1.09900,0.0530772883
1.09950,-0.2521171194
1.10000,-0.2521171194
1.10050,0.358271696
1.10100,0.9686605114
1.10150,0.0530772883
1.10200,-0.8625059348
1.10250,-0.5573115271
1.10300,0.6634661037
1.10350,1.884243735
1.10400,1.273854919
1.10450,0.0530772883
1.10500,-1.167700343
1.10550,-2.083283566
1.10600,-2.998866789
1.10650,-3.304061196
1.10700,-2.998866789
1.10750,-3.304061196
1.10800,-4.21964442
1.10850,-5.745616458
1.10900,-5.44042205
1.10950,-3.914450012
1.11000,-2.388477973
1.11050,-2.388477973
1.11100,-2.388477973
1.11150,-0.5573115271
1.11200,2.189438142
1.11250,4.020604588
1.11300,3.715410181
1.11350,2.799826958
1.11400,2.799826958
1.11450,3.410215773
1.11500,4.630993404
1.11550,5.851771035
1.11600,7.682937481
1.11650,9.514103927
1.11700,10.73488156
1.11750,11.04007597
1.11800,10.73488156
1.11850,9.819298335
1.11900,8.903715112
1.11950,8.293326296
1.12000,7.682937481
1.12050,7.072548665
1.12100,6.156965442
1.12150,5.241382219
1.12200,5.241382219
1.12250,5.546576627
1.12300,6.156965442
1.12350,6.767354258
1.12400,6.767354258
1.12450,6.156965442
1.12500,4.936187812
1.12550,4.020604588
1.12600,4.020604588
1.12650,4.325798996
1.12700,4.630993404
1.12750,5.546576627
1.12800,7.072548665
1.12850,7.988131889
1.12900,6.767354258
1.12950,4.020604588
1.13000,1.273854919
1.13050,-0.5573115271
1.13100,-2.693672381
1.13150,-5.745616458
1.13200,-8.492366127
1.13250,-11.2391158
1.13300,-13.37547665
1.13350,-15.2066431
1.13400,-15.2066431
1.13450,-12.76508784
1.13500,-9.102754943
1.13550,-6.661199681
1.13600,-5.745616458
1.13650,-5.135227643
1.13700,-3.914450012
1.13750,-2.693672381
1.13800,-2.388477973
1.13850,-2.998866789
1.13900,-3.609255604
1.13950,-3.914450012
1.14000,-4.830033235
1.14050,-6.050810866
1.14100,-6.050810866
1.14150,-3.914450012
1.14200,-1.47289475
1.14250,-0.2521171194
1.14300,-0.2521171194
1.14350,-0.8625059348
1.14400,-1.47289475
1.14450,-2.388477973
1.14500,-3.914450012
1.14550,-6.356005273
1.14600,-9.102754943
1.14650,-11.5443102
1.14700,-13.68067106
1.14750,-15.2066431
1.14800,-15.81703191
1.14850,-16.12222632
1.14900,-16.42742073
1.14950,-16.73261514
1.15000,-16.73261514
1.15050,-15.81703191
1.15100,-13.98586547
1.15150,-12.15469902
1.15200,-10.93392139
1.15250,-10.01833817
1.15300,-9.102754943
1.15350,-6.966394089
1.15400,-4.21964442
1.15450,-2.083283566
1.15500,-0.8625059348
1.15550,-0.5573115271
1.15600,-0.8625059348
1.15650,-1.47289475
1.15700,-1.47289475
1.15750,-1.167700343
1.15800,-0.8625059348
1.15850,-2.083283566
1.15900,-2.998866789
1.15950,-2.998866789
1.16000,-2.388477973
1.16050,-2.083283566
1.16100,-2.388477973
1.16150,-1.47289475
1.16200,-0.2521171194
1.16250,0.0530772883
1.16300,-0.2521171194
1.16350,0.358271696
1.16400,2.49463255
1.16450,3.105021365
1.16500,1.579049327
1.16550,-0.2521171194
1.16600,0.0530772883
1.16650,0.6634661037
1.16700,0.0530772883
1.16750,-0.5573115271
1.16800,-0.2521171194
1.16850,0.6634661037
1.16900,0.6634661037
1.16950,-0.2521171194
1.17000,-0.8625059348
1.17050,-0.2521171194
1.17100,0.9686605114
1.17150,1.884243735
1.17200,2.49463255
1.17250,3.715410181
1.17300,4.630993404
1.17350,4.936187812
1.17400,4.936187812
1.17450,4.020604588
1.17500,2.799826958
1.17550,1.884243735
1.17600,2.49463255
1.17650,4.020604588
1.17700,5.241382219
1.17750,5.851771035
1.17800,6.156965442
1.17850,5.241382219
1.17900,3.410215773
1.17950,1.273854919
1.18000,0.6634661037
1.18050,0.9686605114
1.18100,0.6634661037
1.18150,0.6634661037
1.18200,1.273854919
1.18250,2.189438142
1.18300,1.884243735
1.18350,0.6634661037
1.18400,0.9686605114
1.18450,3.105021365
1.18500,4.325798996
1.18550,3.715410181
1.18600,3.105021365
1.18650,3.410215773
1.18700,4.325798996
1.18750,4.325798996
1.18800,4.325798996
1.18850,4.325798996
1.18900,4.020604588
1.18950,3.410215773
1.19000,3.105021365
1.19050,3.410215773
1.19100,3.410215773
1.19150,2.799826958
1.19200,1.579049327
1.19250,0.9686605114
1.19300,0.9686605114
1.19350,0.9686605114
1.19400,0.9686605114
1.19450,0.0530772883
1.19500,-0.5573115271
1.19550,-0.2521171194
1.19600,0.6634661037
1.19650,0.358271696
1.19700,-1.167700343
1.19750,-2.083283566
1.19800,-1.167700343
1.19850,0.0530772883
1.19900,0.6634661037
1.19950,0.358271696
1.20000,0.9686605114
1.20050,1.579049327
1.20100,0.9686605114
1.20150,0.358271696
1.20200,1.273854919
1.20250,2.799826958
1.20300,3.105021365
1.20350,2.189438142
1.20400,0.9686605114
1.20450,0.0530772883
1.20500,-1.778089158
1.20550,-3.609255604
1.20600,-3.609255604
1.20650,-1.167700343
1.20700,0.0530772883
1.20750,-0.2521171194
1.20800,-0.5573115271
1.20850,-0.2521171194
1.20900,0.9686605114
1.20950,1.273854919
1.21000,1.273854919
1.21050,2.189438142
1.21100,2.799826958
1.21150,1.884243735
1.21200,0.0530772883
1.21250,-1.47289475
1.21300,-2.083283566
1.21350,-2.083283566
1.21400,-2.083283566
1.21450,-1.47289475
1.21500,-0.2521171194
1.21550,0.358271696
1.21600,0.9686605114
1.21650,1.273854919
1.21700,1.579049327
1.21750,1.273854919
1.21800,-0.2521171194
1.21850,-1.167700343
1.21900,-0.8625059348
1.21950,0.0530772883
1.22000,0.6634661037
1.22050,1.273854919
1.22100,2.49463255
1.22150,3.715410181
1.22200,3.410215773
1.22250,2.189438142
1.22300,1.273854919
1.22350,0.9686605114
1.22400,0.9686605114
1.22450,0.9686605114
1.22500,0.6634661037
1.22550,-0.2521171194
1.22600,-1.167700343
1.22650,-1.778089158
1.22700,-0.8625059348
1.22750,0.358271696
1.22800,0.6634661037
1.22850,-0.2521171194
1.22900,-0.5573115271
1.22950,-1.167700343
1.23000,-1.778089158
1.23050,-1.47289475
1.23100,0.0530772883
1.23150,2.49463255
1.23200,4.020604588
1.23250,3.410215773
1.23300,1.579049327
1.23350,0.358271696
1.23400,-0.2521171194
1.23450,0.0530772883
1.23500,0.9686605114
1.23550,1.273854919
1.23600,0.358271696
1.23650,-0.8625059348
1.23700,-2.693672381
1.23750,-3.609255604
1.23800,-4.21964442
1.23850,-3.609255604
1.23900,-2.693672381
1.23950,-2.693672381
1.24000,-3.304061196
1.24050,-3.609255604
1.24100,-2.083283566
1.24150,-0.5573115271
1.24200,-1.167700343
1.24250,-3.304061196
1.24300,-5.135227643
1.24350,-4.830033235
1.24400,-3.609255604
1.24450,-2.693672381
1.24500,-2.693672381
1.24550,-2.388477973
1.24600,-1.778089158
1.24650,-1.167700343
1.24700,-0.8625059348
1.24750,-0.8625059348
1.24800,-0.5573115271
1.24850,0.0530772883
1.24900,1.579049327
1.24950,1.884243735
1.25000,0.6634661037
1.25050,-1.167700343
1.25100,-2.388477973
1.25150,-2.083283566
1.25200,-1.47289475
1.25250,-2.083283566
1.25300,-2.693672381
1.25350,-1.778089158
1.25400,-0.2521171194
1.25450,-0.2521171194
1.25500,-0.8625059348
1.25550,-1.47289475
1.25600,-0.5573115271
1.25650,0.0530772883
1.25700,-0.2521171194
1.25750,-0.5573115271
1.25800,-0.2521171194
1.25850,0.358271696
1.25900,0.358271696
1.25950,-1.47289475
1.26000,-3.914450012
1.26050,-5.44042205
1.26100,-5.44042205
1.26150,-4.524838827
1.26200,-4.524838827
1.26250,-5.745616458
1.26300,-7.271588497
1.26350,-7.881977312
1.26400,-7.576782904
1.26450,-6.966394089
1.26500,-6.356005273
1.26550,-5.135227643
1.26600,-3.304061196
1.26650,-2.693672381
1.26700,-2.998866789
1.26750,-2.083283566
1.26800,-0.2521171194
1.26850,0.9686605114
1.26900,-0.2521171194
1.26950,-1.167700343
1.27000,-0.2521171194
1.27050,1.579049327
1.27100,1.884243735
1.27150,1.579049327
1.27200,2.799826958
1.27250,5.241382219
1.27300,6.46215985
1.27350,5.546576627
1.27400,4.630993404
1.27450,5.851771035
1.27500,7.072548665
1.27550,6.46215985
1.27600,5.546576627
1.27650,5.546576627
1.27700,6.46215985
1.27750,6.767354258
1.27800,5.851771035
1.27850,4.020604588
1.27900,2.189438142
1.27950,1.273854919
1.28000,1.579049327
1.28050,2.49463255
1.28100,2.799826958
1.28150,1.579049327
1.28200,0.6634661037
1.28250,0.6634661037
1.28300,1.273854919
1.28350,0.9686605114
1.28400,-0.8625059348
1.28450,-2.998866789
1.28500,-4.21964442
1.28550,-4.21964442
1.28600,-4.524838827
1.28650,-6.661199681
1.28700,-9.713143758
1.28750,-12.15469902
1.28800,-12.76508784
1.28850,-11.84950461
1.28900,-11.2391158
1.28950,-10.62872698
1.29000,-9.40794935
1.29050,-7.271588497
1.29100,-5.44042205
1.29150,-3.914450012
1.29200,-2.083283566
1.29250,-0.5573115271
1.29300,0.358271696
1.29350,1.273854919
1.29400,3.715410181
1.29450,6.156965442
1.29500,6.767354258
1.29550,5.546576627
1.29600,4.936187812
1.29650,6.46215985
1.29700,7.988131889
1.29750,7.377743073
1.29800,5.851771035
1.29850,6.156965442
1.29900,7.682937481
1.29950,7.682937481
1.30000,5.241382219
1.30050,2.799826958
1.30100,1.579049327
1.30150,0.9686605114
1.30200,0.0530772883
1.30250,-0.2521171194
1.30300,0.358271696
1.30350,0.9686605114
1.30400,-0.2521171194
1.30450,-2.083283566
1.30500,-3.914450012
1.30550,-4.830033235
1.30600,-5.135227643
1.30650,-3.914450012
1.30700,-1.47289475
1.30750,-0.2521171194
1.30800,-1.167700343
1.30850,-2.998866789
1.30900,-3.914450012
1.30950,-3.914450012
1.31000,-3.609255604
1.31050,-3.914450012
1.31100,-5.135227643
1.31150,-6.356005273
1.31200,-6.966394089
1.31250,-6.050810866
1.31300,-3.609255604
1.31350,-2.083283566
1.31400,-2.083283566
1.31450,-1.778089158
1.31500,-0.2521171194
1.31550,1.579049327
1.31600,1.884243735
1.31650,1.579049327
1.31700,1.884243735
1.31750,3.410215773
1.31800,3.715410181
1.31850,2.189438142
1.31900,0.6634661037
1.31950,0.358271696
1.32000,0.9686605114
1.32050,1.273854919
1.32100,0.6634661037
1.32150,-0.2521171194
1.32200,-0.2521171194
1.32250,0.0530772883
1.32300,1.579049327
1.32350,2.799826958
1.32400,3.105021365
1.32450,2.189438142
1.32500,1.579049327
1.32550,1.579049327
1.32600,2.189438142
1.32650,2.189438142
1.32700,1.884243735
1.32750,1.884243735
1.32800,1.579049327
1.32850,0.9686605114
1.32900,0.6634661037
1.32950,0.6634661037
1.33000,1.273854919
1.33050,1.273854919
1.33100,0.9686605114
1.33150,0.9686605114
1.33200,1.579049327
1.33250,1.884243735
1.33300,1.579049327
1.33350,1.273854919
1.33400,0.9686605114
1.33450,0.6634661037
1.33500,-0.2521171194
1.33550,-0.5573115271
1.33600,-0.2521171194
1.33650,0.6634661037
1.33700,1.884243735
1.33750,1.884243735
1.33800,0.9686605114
1.33850,-0.2521171194
1.33900,-0.2521171194
1.33950,0.6634661037
1.34000,2.189438142
1.34050,1.884243735
1.34100,0.0530772883
1.34150,-1.47289475
1.34200,-1.47289475
1.34250,-0.2521171194
1.34300,0.0530772883
1.34350,-0.2521171194
1.34400,-0.2521171194
1.34450,-0.2521171194
1.34500,0.0530772883
1.34550,-0.2521171194
1.34600,-0.2521171194
1.34650,0.0530772883
1.34700,0.9686605114
1.34750,0.6634661037
1.34800,-0.2521171194
1.34850,-0.8625059348
1.34900,-0.8625059348
1.34950,-0.8625059348
1.35000,-1.167700343
1.35050,-1.167700343
1.35100,-0.8625059348
1.35150,-0.2521171194
1.35200,0.0530772883
1.35250,-0.2521171194
1.35300,-1.167700343
1.35350,-1.47289475
1.35400,-0.2521171194
1.35450,0.6634661037
1.35500,0.6634661037
1.35550,-0.5573115271
1.35600,-1.47289475
1.35650,-1.167700343
1.35700,0.358271696
1.35750,2.189438142
1.35800,2.49463255
1.35850,1.273854919
1.35900,0.0530772883
1.35950,-0.2521171194
1.36000,0.0530772883
1.36050,0.358271696
1.36100,-0.2521171194
1.36150,-1.167700343
1.36200,-1.167700343
1.36250,-0.2521171194
1.36300,0.9686605114
1.36350,1.273854919
1.36400,1.884243735
1.36450,2.49463255
1.36500,3.410215773
1.36550,4.020604588
1.36600,4.325798996
1.36650,4.630993404
1.36700,4.630993404
1.36750,3.715410181
1.36800,2.49463255
1.36850,2.799826958
1.36900,4.630993404
1.36950,6.46215985
1.37000,7.072548665
1.37050,6.767354258
1.37100,7.377743073
1.37150,8.903715112
1.37200,9.514103927
1.37250,7.988131889
1.37300,6.156965442
1.37350,6.46215985
1.37400,8.293326296
1.37450,8.903715112
1.37500,6.767354258
1.37550,4.325798996
1.37600,3.105021365
1.37650,2.799826958
1.37700,2.49463255
1.37750,3.105021365
1.37800,3.410215773
1.37850,2.799826958
1.37900,0.358271696
1.37950,-1.167700343
1.38000,-0.8625059348
1.38050,-0.5573115271
1.38100,-1.47289475
1.38150,-3.304061196
1.38200,-4.524838827
1.38250,-5.44042205
1.38300,-6.356005273
1.38350,-6.661199681
1.38400,-5.135227643
1.38450,-4.21964442
1.38500,-5.135227643
1.38550,-6.661199681
1.38600,-6.661199681
1.38650,-6.050810866
1.38700,-7.271588497
1.38750,-9.713143758
1.38800,-10.62872698
1.38850,-10.01833817
1.38900,-10.01833817
1.38950,-11.2391158
1.39000,-12.15469902
1.39050,-11.84950461
1.39100,-11.2391158
1.39150,-10.32353257
1.39200,-8.492366127
1.39250,-6.356005273
1.39300,-4.830033235
1.39350,-3.914450012
1.39400,-2.998866789
1.39450,-1.778089158
1.39500,-0.8625059348
1.39550,-0.2521171194
1.39600,0.6634661037
1.39650,1.579049327
1.39700,0.358271696
1.39750,-2.693672381
1.39800,-5.745616458
1.39850,-7.271588497
1.39900,-6.966394089
1.39950,-6.661199681
1.40000,-6.050810866
1.40050,-4.830033235
1.40100,-4.21964442
1.40150,-5.745616458
1.40200,-9.102754943
1.40250,-12.45989343
1.40300,-13.98586547
1.40350,-13.07028224
1.40400,-11.84950461
1.40450,-10.93392139
1.40500,-10.32353257
1.40550,-9.40794935
1.40600,-8.18717172
1.40650,-7.271588497
1.40700,-7.271588497
1.40750,-6.661199681
1.40800,-5.44042205
1.40850,-4.524838827
1.40900,-3.914450012
1.40950,-2.998866789
1.41000,-1.778089158
1.41050,-0.8625059348
1.41100,0.0530772883
1.41150,1.579049327
1.41200,2.799826958
1.41250,2.799826958
1.41300,1.884243735
1.41350,0.6634661037
1.41400,0.6634661037
1.41450,0.6634661037
1.41500,0.9686605114
1.41550,0.9686605114
1.41600,0.9686605114
1.41650,0.6634661037
1.41700,0.6634661037
1.41750,1.884243735
1.41800,3.105021365
1.41850,3.715410181
1.41900,4.020604588
1.41950,4.325798996
1.42000,4.630993404
1.42050,3.715410181
1.42100,2.189438142
1.42150,1.884243735
1.42200,2.49463255
1.42250,2.799826958
1.42300,3.105021365
1.42350,3.715410181
1.42400,4.020604588
1.42450,3.410215773
1.42500,2.799826958
1.42550,3.105021365
1.42600,4.020604588
1.42650,3.715410181
1.42700,2.189438142
1.42750,0.9686605114
1.42800,1.579049327
1.42850,3.105021365
1.42900,3.715410181
1.42950,4.020604588
1.43000,4.020604588
1.43050,4.325798996
1.43100,4.325798996
1.43150,4.325798996
1.43200,4.325798996
1.43250,4.325798996
1.43300,4.325798996
1.43350,4.325798996
1.43400,4.936187812
1.43450,4.630993404
1.43500,4.325798996
1.43550,4.020604588
1.43600,4.020604588
1.43650,4.630993404
1.43700,5.546576627
1.43750,6.156965442
1.43800,5.546576627
1.43850,4.020604588
1.43900,3.410215773
1.43950,4.630993404
1.44000,6.156965442
1.44050,6.46215985
1.44100,5.851771035
1.44150,5.546576627
1.44200,5.546576627
1.44250,4.936187812
1.44300,5.241382219
1.44350,6.46215985
1.44400,7.377743073
1.44450,7.682937481
1.44500,7.988131889
1.44550,9.514103927
1.44600,10.42968715
1.44650,9.208909519
1.44700,7.377743073
1.44750,7.377743073
1.44800,8.293326296
1.44850,8.293326296
1.44900,6.46215985
1.44950,4.936187812
1.45000,4.630993404
1.45050,4.630993404
1.45100,4.325798996
1.45150,4.630993404
1.45200,5.241382219
1.45250,4.936187812
1.45300,3.105021365
1.45350,2.189438142
1.45400,3.410215773
1.45450,4.020604588
1.45500,3.105021365
1.45550,0.6634661037
1.45600,-1.47289475
1.45650,-2.998866789
1.45700,-4.21964442
1.45750,-5.745616458
1.45800,-7.576782904
1.45850,-9.102754943
1.45900,-10.01833817
1.45950,-10.01833817
1.46000,-9.102754943
1.46050,-8.18717172
1.46100,-7.271588497
1.46150,-7.271588497
1.46200,-8.797560535
1.46250,-10.01833817
1.46300,-10.01833817
1.46350,-8.492366127
1.46400,-7.576782904
1.46450,-8.492366127
1.46500,-9.713143758
1.46550,-9.102754943
1.46600,-7.576782904
1.46650,-6.050810866
1.46700,-5.135227643
1.46750,-3.304061196
1.46800,-2.083283566
1.46850,-1.778089158
1.46900,-1.778089158
1.46950,-0.5573115271
1.47000,0.358271696
1.47050,-0.2521171194
1.47100,-2.693672381
1.47150,-3.609255604
1.47200,-2.388477973
1.47250,-1.47289475
1.47300,-2.388477973
1.47350,-2.693672381
1.47400,-2.083283566
1.47450,-2.083283566
1.47500,-3.609255604
1.47550,-4.524838827
1.47600,-3.914450012
1.47650,-2.388477973
1.47700,-2.083283566
1.47750,-1.778089158
1.47800,-0.5573115271
1.47850,-0.2521171194
1.47900,-1.47289475
1.47950,-3.304061196
1.48000,-2.998866789
1.48050,-1.167700343
1.48100,-0.8625059348
1.48150,-1.778089158
1.48200,-2.388477973
1.48250,-2.083283566
1.48300,-1.47289475
1.48350,-1.167700343
1.48400,-1.167700343
1.48450,-1.167700343
1.48500,-1.778089158
1.48550,-1.778089158
1.48600,-1.47289475
1.48650,-1.167700343
1.48700,-1.47289475
1.48750,-1.47289475
1.48800,-0.5573115271
1.48850,0.6634661037
1.48900,0.6634661037
1.48950,0.6634661037
1.49000,1.579049327
1.49050,2.799826958
1.49100,2.799826958
1.49150,1.579049327
1.49200,0.358271696
1.49250,0.358271696
1.49300,0.358271696
1.49350,-0.2521171194
1.49400,-0.2521171194
1.49450,0.358271696
1.49500,1.579049327
1.49550,1.884243735
1.49600,1.579049327
1.49650,1.579049327
1.49700,2.189438142
1.49750,2.49463255
1.49800,1.579049327
1.49850,-0.2521171194
1.49900,-0.5573115271
1.49950,0.358271696
1.50000,2.49463255
1.50050,4.020604588
1.50100,4.630993404
1.50150,5.241382219
1.50200,4.630993404
1.50250,2.189438142
1.50300,-0.5573115271
1.50350,-1.47289475
1.50400,-0.2521171194
1.50450,0.9686605114
1.50500,0.358271696
1.50550,-0.2521171194
1.50600,0.358271696
1.50650,2.49463255
1.50700,4.325798996
1.50750,5.241382219
1.50800,5.851771035
1.50850,6.156965442
1.50900,5.241382219
1.50950,4.020604588
1.51000,3.410215773
1.51050,4.630993404
1.51100,6.46215985
1.51150,7.682937481
1.51200,7.072548665
1.51250,5.546576627
1.51300,3.715410181
1.51350,2.49463255
1.51400,2.49463255
1.51450,3.105021365
1.51500,3.410215773
1.51550,2.189438142
1.51600,-0.2521171194
1.51650,-2.083283566
1.51700,-2.388477973
1.51750,-2.388477973
1.51800,-3.304061196
1.51850,-5.44042205
1.51900,-7.576782904
1.51950,-8.492366127
1.52000,-7.881977312
1.52050,-7.881977312
1.52100,-7.881977312
1.52150,-7.576782904
1.52200,-6.356005273
1.52250,-6.050810866
1.52300,-7.271588497
1.52350,-8.18717172
1.52400,-7.576782904
1.52450,-5.745616458
1.52500,-4.524838827
1.52550,-3.914450012
1.52600,-3.609255604
1.52650,-2.388477973
1.52700,-1.167700343
1.52750,-0.8625059348
1.52800,-1.778089158
1.52850,-2.693672381
1.52900,-2.388477973
1.52950,0.0530772883
1.53000,4.020604588
1.53050,7.072548665
1.53100,7.988131889
1.53150,8.598520704
1.53200,10.73488156
1.53250,13.78682563
1.53300,15.00760327
1.53350,13.78682563
1.53400,12.87124241
1.53450,13.48163123
1.53500,13.78682563
1.53550,11.95565919
1.53600,9.208909519
1.53650,9.208909519
1.53700,12.2608536
1.53750,14.39721445
1.53800,12.87124241
1.53850,10.12449274
1.53900,8.903715112
1.53950,9.514103927
1.54000,8.903715112
1.54050,7.377743073
1.54100,6.767354258
1.54150,6.46215985
1.54200,4.936187812
1.54250,1.579049327
1.54300,-0.5573115271
1.54350,-1.778089158
1.54400,-4.21964442
1.54450,-8.797560535
1.54500,-13.07028224
1.54550,-14.90144869
1.54600,-16.42742073
1.54650,-21.00533684
1.54700,-27.109225
1.54750,-30.46636348
1.54800,-29.55078026
1.54850,-27.109225
1.54900,-24.66766974
1.54950,-21.00533684
1.55000,-15.81703191
1.55050,-12.45989343
1.55100,-12.76508784
1.55150,-14.29105987
1.55200,-14.29105987
1.55250,-12.76508784
1.55300,-11.84950461
1.55350,-12.15469902
1.55400,-12.15469902
1.55450,-11.84950461
1.55500,-10.62872698
1.55550,-9.102754943
1.55600,-7.576782904
1.55650,-6.966394089
1.55700,-6.356005273
1.55750,-4.830033235
1.55800,-2.388477973
1.55850,-0.8625059348
1.55900,-0.5573115271
1.55950,0.358271696
1.56000,2.799826958
1.56050,4.325798996
1.56100,5.241382219
1.56150,5.851771035
1.56200,6.46215985
1.56250,6.156965442
1.56300,4.630993404
1.56350,4.325798996
1.56400,5.851771035
1.56450,7.377743073
1.56500,7.682937481
1.56550,7.988131889
1.56600,9.514103927
1.56650,10.73488156
1.56700,10.42968715
1.56750,8.598520704
1.56800,6.156965442
1.56850,3.410215773
1.56900,0.0530772883
1.56950,-2.388477973
1.57000,-3.609255604
1.57050,-3.914450012
1.57100,-4.21964442
1.57150,-4.21964442
1.57200,-3.914450012
1.57250,-3.914450012
1.57300,-4.524838827
1.57350,-4.830033235
1.57400,-3.609255604
1.57450,-3.609255604
1.57500,-6.050810866
1.57550,-9.40794935
1.57600,-9.40794935
1.57650,-6.356005273
1.57700,-3.914450012
1.57750,-3.914450012
1.57800,-4.21964442
1.57850,-2.083283566
1.57900,0.358271696
1.57950,0.358271696
1.58000,-1.167700343
1.58050,-1.778089158
1.58100,-0.2521171194
1.58150,0.0530772883
1.58200,-0.2521171194
1.58250,-0.5573115271
1.58300,0.0530772883
1.58350,-0.2521171194
1.58400,-1.47289475
1.58450,-2.998866789
1.58500,-2.083283566
1.58550,-0.8625059348
1.58600,-1.167700343
1.58650,-1.778089158
1.58700,-1.167700343
1.58750,0.358271696
1.58800,1.273854919
1.58850,1.579049327
1.58900,2.189438142
1.58950,3.715410181
1.59000,5.241382219
1.59050,5.851771035
1.59100,5.851771035
1.59150,6.767354258
1.59200,8.293326296
1.59250,9.208909519
1.59300,9.819298335
1.59350,10.42968715
1.59400,11.34527037
1.59450,12.2608536
1.59500,12.87124241
1.59550,13.48163123
1.59600,14.70240886
1.59650,15.61799208
1.59700,15.92318649
1.59750,15.00760327
1.59800,14.09202004
1.59850,13.78682563
1.59900,13.48163123
1.59950,12.87124241
1.60000,11.65046478
1.60050,10.73488156
1.60100,9.819298335
1.60150,8.903715112
1.60200,7.682937481
1.60250,6.767354258
1.60300,7.072548665
1.60350,8.293326296
1.60400,9.514103927
1.60450,10.12449274
1.60500,10.73488156
1.60550,12.2608536
1.60600,14.70240886
1.60650,16.5335753
1.60700,17.14396412
1.60750,17.14396412
1.60800,16.5335753
1.60850,15.31279767
1.60900,12.2608536
1.60950,8.598520704
1.61000,6.156965442
1.61050,5.241382219
1.61100,4.325798996
1.61150,2.799826958
1.61200,1.273854919
1.61250,0.6634661037
1.61300,0.358271696
1.61350,-0.2521171194
1.61400,-0.5573115271
1.61450,-0.5573115271
1.61500,-0.5573115271
1.61550,-0.5573115271
1.61600,-0.8625059348
1.61650,-0.2521171194
1.61700,0.0530772883
1.61750,-0.2521171194
1.61800,-2.693672381
1.61850,-5.44042205
1.61900,-7.271588497
1.61950,-9.713143758
1.62000,-13.37547665
1.62050,-17.34300395
1.62100,-20.39494803
1.62150,-22.83650329
1.62200,-26.49883618
1.62250,-31.68714111
1.62300,-36.26505723
1.62350,-37.79102927
1.62400,-37.48583486
1.62450,-36.26505723
1.62500,-34.43389078
1.62550,-31.0767523
1.62600,-26.80403059
1.62650,-24.05728092
1.62700,-23.1416977
1.62750,-21.92092007
1.62800,-20.08975362
1.62850,-18.25858717
1.62900,-16.73261514
1.62950,-16.12222632
1.63000,-15.5118375
1.63050,-15.81703191
1.63100,-16.42742073
1.63150,-16.73261514
1.63200,-15.5118375
1.63250,-12.76508784
1.63300,-10.01833817
1.63350,-8.492366127
1.63400,-7.576782904
1.63450,-6.966394089
1.63500,-5.745616458
1.63550,-4.21964442
1.63600,-3.304061196
1.63650,-2.388477973
1.63700,-0.5573115271
1.63750,2.189438142
1.63800,4.325798996
1.63850,3.715410181
1.63900,0.9686605114
1.63950,-0.2521171194
1.64000,0.6634661037
1.64050,2.189438142
1.64100,3.105021365
1.64150,4.325798996
1.64200,5.851771035
1.64250,6.46215985
1.64300,4.936187812
1.64350,3.105021365
1.64400,2.799826958
1.64450,3.105021365
1.64500,2.189438142
1.64550,1.273854919
1.64600,1.579049327
1.64650,2.49463255
1.64700,2.189438142
1.64750,1.273854919
1.64800,1.579049327
1.64850,2.799826958
1.64900,2.49463255
1.64950,1.884243735
1.65000,3.105021365
1.65050,5.851771035
1.65100,6.46215985
1.65150,4.630993404
1.65200,3.410215773
1.65250,4.630993404
1.65300,6.46215985
1.65350,6.156965442
1.65400,5.241382219
1.65450,5.241382219
1.65500,6.156965442
1.65550,5.851771035
1.65600,4.936187812
1.65650,5.241382219
1.65700,6.156965442
1.65750,6.156965442
1.65800,4.936187812
1.65850,4.325798996
1.65900,4.936187812
1.65950,5.546576627
1.66000,5.546576627
1.66050,6.156965442
1.66100,7.377743073
1.66150,7.988131889
1.66200,7.377743073
1.66250,6.156965442
1.66300,5.241382219
1.66350,5.851771035
1.66400,7.377743073
1.66450,9.514103927
1.66500,11.34527037
1.66550,11.34527037
1.66600,10.42968715
1.66650,11.04007597
1.66700,12.566048
1.66750,12.87124241
1.66800,11.65046478
1.66850,10.12449274
1.66900,10.42968715
1.66950,11.65046478
1.67000,12.566048
1.67050,12.87124241
1.67100,12.87124241
1.67150,11.95565919
1.67200,9.819298335
1.67250,7.988131889
1.67300,7.682937481
1.67350,7.682937481
1.67400,6.156965442
1.67450,4.325798996
1.67500,4.020604588
1.67550,4.630993404
1.67600,4.936187812
1.67650,4.630993404
1.67700,5.241382219
1.67750,5.241382219
1.67800,4.325798996
1.67850,3.105021365
1.67900,2.799826958
1.67950,2.799826958
1.68000,0.9686605114
1.68050,-1.47289475
1.68100,-3.609255604
1.68150,-5.745616458
1.68200,-9.102754943
1.68250,-13.07028224
1.68300,-14.90144869
1.68350,-13.98586547
1.68400,-11.84950461
1.68450,-9.40794935
1.68500,-7.271588497
1.68550,-6.356005273
1.68600,-7.271588497
1.68650,-7.576782904
1.68700,-6.050810866
1.68750,-4.21964442
1.68800,-4.21964442
1.68850,-5.44042205
1.68900,-5.44042205
1.68950,-3.304061196
1.69000,-1.778089158
1.69050,-1.778089158
1.69100,-0.8625059348
1.69150,1.273854919
1.69200,2.799826958
1.69250,1.884243735
1.69300,2.189438142
1.69350,5.241382219
1.69400,9.819298335
1.69450,12.2608536
1.69500,12.566048
1.69550,12.87124241
1.69600,12.87124241
1.69650,12.2608536
1.69700,11.34527037
1.69750,11.95565919
1.69800,13.78682563
1.69850,13.78682563
1.69900,12.2608536
1.69950,10.73488156
1.70000,10.42968715
1.70050,10.73488156
1.70100,10.12449274
1.70150,8.903715112
1.70200,7.682937481
1.70250,5.546576627
1.70300,2.799826958
1.70350,-0.5573115271
1.70400,-5.135227643
1.70450,-9.713143758
1.70500,-12.45989343
1.70550,-11.2391158
1.70600,-7.881977312
1.70650,-7.576782904
1.70700,-11.5443102
1.70750,-16.73261514
1.70800,-18.86897599
1.70850,-18.86897599
1.70900,-18.86897599
1.70950,-19.78455921
1.71000,-21.31053125
1.71050,-22.22611447
1.71100,-23.1416977
1.71150,-22.22611447
1.71200,-19.1741704
1.71250,-14.59625428
1.71300,-11.2391158
1.71350,-9.713143758
1.71400,-9.713143758
1.71450,-10.01833817
1.71500,-9.713143758
1.71550,-9.40794935
1.71600,-8.18717172
1.71650,-7.576782904
1.71700,-7.576782904
1.71750,-8.18717172
1.71800,-7.881977312
1.71850,-7.271588497
1.71900,-6.966394089
1.71950,-6.661199681
1.72000,-6.050810866
1.72050,-5.44042205
1.72100,-6.050810866
1.72150,-6.966394089
1.72200,-6.661199681
1.72250,-4.830033235
1.72300,-3.304061196
1.72350,-2.693672381
1.72400,-2.083283566
1.72450,-0.8625059348
1.72500,0.6634661037
1.72550,1.884243735
1.72600,3.105021365
1.72650,3.715410181
1.72700,4.020604588
1.72750,4.020604588
1.72800,4.936187812
1.72850,5.546576627
1.72900,4.936187812
1.72950,3.105021365
1.73000,1.884243735
1.73050,1.884243735
1.73100,2.189438142
1.73150,1.884243735
1.73200,1.579049327
1.73250,1.579049327
1.73300,1.884243735
1.73350,2.189438142
1.73400,2.49463255
1.73450,2.799826958
1.73500,2.799826958
1.73550,1.884243735
1.73600,1.579049327
1.73650,1.579049327
1.73700,1.579049327
1.73750,0.358271696
1.73800,-0.5573115271
1.73850,-0.8625059348
1.73900,-0.8625059348
1.73950,-1.167700343
1.74000,-1.167700343
1.74050,-0.8625059348
1.74100,0.358271696
1.74150,0.9686605114
1.74200,0.358271696
1.74250,-0.8625059348
1.74300,-2.083283566
1.74350,-1.778089158
1.74400,-1.47289475
1.74450,-1.167700343
1.74500,-0.8625059348
1.74550,0.0530772883
1.74600,1.579049327
1.74650,3.105021365
1.74700,4.936187812
1.74750,7.072548665
1.74800,8.598520704
1.74850,8.293326296
1.74900,7.377743073
1.74950,7.988131889
1.75000,10.73488156
1.75050,13.17643682
1.75100,13.78682563
1.75150,13.48163123
1.75200,14.09202004
1.75250,15.00760327
1.75300,14.39721445
1.75350,13.17643682
1.75400,13.48163123
1.75450,15.61799208
1.75500,18.05954734
1.75550,18.05954734
1.75600,16.5335753
1.75650,14.70240886
1.75700,14.39721445
1.75750,15.00760327
1.75800,15.61799208
1.75850,15.61799208
1.75900,15.92318649
1.75950,16.5335753
1.76000,16.5335753
1.76050,14.09202004
1.76100,9.819298335
1.76150,6.156965442
1.76200,4.325798996
1.76250,2.189438142
1.76300,-1.167700343
1.76350,-5.44042205
1.76400,-8.492366127
1.76450,-10.32353257
1.76500,-12.15469902
1.76550,-13.98586547
1.76600,-13.68067106
1.76650,-11.2391158
1.76700,-8.797560535
1.76750,-7.881977312
1.76800,-6.966394089
1.76850,-5.44042205
1.76900,-3.914450012
1.76950,-3.609255604
1.77000,-2.998866789
1.77050,-1.778089158
1.77100,-1.778089158
1.77150,-5.44042205
1.77200,-12.15469902
1.77250,-18.25858717
1.77300,-22.53130888
1.77350,-25.58325296
1.77400,-28.02480822
1.77450,-28.94039144
1.77500,-28.33000263
1.77550,-27.71961381
1.77600,-28.02480822
1.77650,-27.4144194
1.77700,-24.66766974
1.77750,-21.00533684
1.77800,-19.4793648
1.77850,-20.39494803
1.77900,-20.70014244
1.77950,-18.56378158
1.78000,-14.90144869
1.78050,-11.84950461
1.78100,-10.01833817
1.78150,-8.797560535
1.78200,-7.881977312
1.78250,-7.576782904
1.78300,-7.881977312
1.78350,-7.881977312
1.78400,-8.492366127
1.78450,-9.40794935
1.78500,-11.2391158
1.78550,-13.07028224
1.78600,-13.98586547
1.78650,-13.37547665
1.78700,-11.5443102
1.78750,-9.40794935
1.78800,-7.576782904
1.78850,-6.050810866
1.78900,-3.914450012
1.78950,-2.998866789
1.79000,-3.304061196
1.79050,-4.830033235
1.79100,-5.745616458
1.79150,-5.44042205
1.79200,-5.135227643
1.79250,-5.44042205
1.79300,-5.44042205
1.79350,-4.21964442
1.79400,-2.693672381
1.79450,-1.167700343
1.79500,0.358271696
1.79550,2.189438142
1.79600,3.715410181
1.79650,4.020604588
1.79700,3.715410181
1.79750,3.715410181
1.79800,3.410215773
1.79850,2.49463255
1.79900,2.189438142
1.79950,2.49463255
1.80000,3.410215773
1.80050,4.020604588
1.80100,3.715410181
1.80150,3.410215773
1.80200,1.884243735
1.80250,-0.2521171194
1.80300,-1.778089158
1.80350,-0.8625059348
1.80400,0.358271696
1.80450,-0.2521171194
1.80500,-1.47289475
1.80550,-1.778089158
1.80600,0.0530772883
1.80650,1.884243735
1.80700,1.273854919
1.80750,0.358271696
1.80800,0.6634661037
1.80850,1.579049327
1.80900,1.579049327
1.80950,1.273854919
1.81000,1.884243735
1.81050,3.105021365
1.81100,3.715410181
1.81150,3.715410181
1.81200,4.020604588
1.81250,4.630993404
1.81300,5.851771035
1.81350,7.377743073
1.81400,8.903715112
1.81450,10.42968715
1.81500,11.34527037
1.81550,11.95565919
1.81600,11.95565919
1.81650,11.34527037
1.81700,9.514103927
1.81750,7.682937481
1.81800,6.767354258
1.81850,6.156965442
1.81900,5.546576627
1.81950,5.241382219
1.82000,5.241382219
1.82050,4.936187812
1.82100,3.715410181
1.82150,1.884243735
1.82200,1.273854919
1.82250,2.49463255
1.82300,3.715410181
1.82350,3.715410181
1.82400,2.799826958
1.82450,2.189438142
1.82500,2.189438142
1.82550,1.579049327
1.82600,1.579049327
1.82650,3.410215773
1.82700,6.46215985
1.82750,9.208909519
1.82800,11.04007597
1.82850,12.566048
1.82900,14.70240886
1.82950,16.5335753
1.83000,17.75435293
1.83050,18.97513057
1.83100,20.80629701
1.83150,22.63746346
1.83200,23.85824109
1.83250,25.07901872
1.83300,26.60499076
1.83350,26.60499076
1.83400,24.1634355
1.83450,21.72188024
1.83500,21.41668583
1.83550,22.02707464
1.83600,21.41668583
1.83650,19.28032497
1.83700,18.05954734
1.83750,18.97513057
1.83800,19.58551938
1.83850,17.75435293
1.83900,14.09202004
1.83950,10.42968715
1.84000,8.903715112
1.84050,9.208909519
1.84100,10.12449274
1.84150,9.208909519
1.84200,6.46215985
1.84250,4.325798996
1.84300,4.630993404
1.84350,5.241382219
1.84400,3.410215773
1.84450,-1.167700343
1.84500,-6.356005273
1.84550,-10.93392139
1.84600,-14.59625428
1.84650,-15.5118375
1.84700,-12.45989343
1.84750,-7.881977312
1.84800,-5.135227643
1.84850,-3.914450012
1.84900,-0.2521171194
1.84950,5.851771035
1.85000,10.12449274
1.85050,10.12449274
1.85100,9.514103927
1.85150,11.65046478
1.85200,14.39721445
1.85250,14.09202004
1.85300,10.42968715
1.85350,6.156965442
1.85400,1.884243735
1.85450,-2.693672381
1.85500,-7.881977312
1.85550,-11.5443102
1.85600,-15.5118375
1.85650,-22.53130888
1.85700,-31.3819467
1.85750,-36.87544604
1.85800,-36.87544604
1.85850,-33.51830756
1.85900,-29.55078026
1.85950,-25.27805855
1.86000,-20.70014244
1.86050,-17.34300395
1.86100,-16.12222632
1.86150,-15.5118375
1.86200,-15.2066431
1.86250,-16.73261514
1.86300,-19.78455921
1.86350,-22.22611447
1.86400,-21.92092007
1.86450,-21.00533684
1.86500,-22.22611447
1.86550,-24.05728092
1.86600,-24.66766974
1.86650,-23.75208651
1.86700,-23.75208651
1.86750,-24.66766974
1.86800,-24.97286414
1.86850,-23.1416977
1.86900,-20.08975362
1.86950,-17.64819836
1.87000,-16.12222632
1.87050,-15.81703191
1.87100,-15.5118375
1.87150,-14.90144869
1.87200,-14.59625428
1.87250,-15.81703191
1.87300,-18.56378158
1.87350,-21.31053125
1.87400,-21.61572566
1.87450,-19.78455921
1.87500,-17.95339277
1.87550,-17.34300395
1.87600,-17.03780954
1.87650,-16.12222632
1.87700,-14.90144869
1.87750,-13.98586547
1.87800,-12.45989343
1.87850,-9.713143758
1.87900,-6.966394089
1.87950,-4.524838827
1.88000,-2.693672381
1.88050,-1.47289475
1.88100,-0.8625059348
1.88150,-1.167700343
1.88200,-1.167700343
1.88250,0.0530772883
1.88300,2.189438142
1.88350,3.715410181
1.88400,4.325798996
1.88450,4.630993404
1.88500,5.851771035
1.88550,7.072548665
1.88600,7.377743073
1.88650,7.682937481
1.88700,8.598520704
1.88750,9.514103927
1.88800,9.514103927
1.88850,8.293326296
1.88900,6.767354258
1.88950,6.46215985
1.89000,6.156965442
1.89050,5.851771035
1.89100,6.156965442
1.89150,6.156965442
1.89200,5.241382219
1.89250,4.325798996
1.89300,4.325798996
1.89350,4.936187812
1.89400,5.241382219
1.89450,5.546576627
1.89500,6.767354258
1.89550,8.293326296
1.89600,8.293326296
1.89650,6.767354258
1.89700,6.46215985
1.89750,9.208909519
1.89800,12.566048
1.89850,14.09202004
1.89900,15.00760327
1.89950,16.5335753
1.90000,18.66993616
1.90050,19.58551938
1.90100,19.89071379
1.90150,20.80629701
1.90200,21.11149142
1.90250,19.28032497
1.90300,15.61799208
1.90350,13.17643682
1.90400,12.2608536
1.90450,11.04007597
1.90500,9.819298335
1.90550,10.12449274
1.90600,12.566048
1.90650,15.00760327
1.90700,15.61799208
1.90750,15.61799208
1.90800,16.2283809
1.90850,17.75435293
1.90900,18.66993616
1.90950,19.58551938
1.91000,21.72188024
1.91050,23.24785227
1.91100,22.94265787
1.91150,21.41668583
1.91200,21.11149142
1.91250,23.24785227
1.91300,26.29979635
1.91350,27.82576839
1.91400,28.1309628
1.91450,28.4361572
1.91500,29.35174043
1.91550,31.79329569
1.91600,34.54004536
1.91650,36.3712118
1.91700,37.28679503
1.91750,38.50757266
1.91800,39.72835029
1.91850,39.72835029
1.91900,36.67640621
1.91950,31.48810128
1.92000,27.52057398
1.92050,25.68940754
1.92100,23.85824109
1.92150,18.97513057
1.92200,12.2608536
1.92250,7.072548665
1.92300,6.46215985
1.92350,9.208909519
1.92400,12.2608536
1.92450,14.70240886
1.92500,15.61799208
1.92550,14.70240886
1.92600,12.566048
1.92650,9.208909519
1.92700,5.241382219
1.92750,-0.2521171194
1.92800,-6.356005273
1.92850,-10.93392139
1.92900,-13.07028224
1.92950,-15.81703191
1.93000,-21.00533684
1.93050,-26.80403059
1.93100,-28.94039144
1.93150,-27.4144194
1.93200,-25.58325296
1.93250,-24.05728092
1.93300,-22.53130888
1.93350,-20.39494803
1.93400,-20.08975362
1.93450,-22.83650329
1.93500,-27.4144194
1.93550,-32.90791874
1.93600,-38.09622367
1.93650,-41.45336216
1.93700,-42.36894538
1.93750,-42.06375097
1.93800,-42.9793342
1.93850,-45.72608387
1.93900,-48.16763913
1.93950,-47.86244472
1.94000,-45.11569505
1.94050,-40.84297334
1.94100,-35.34947401
1.94150,-29.55078026
1.94200,-24.66766974
1.94250,-21.61572566
1.94300,-20.08975362
1.94350,-20.08975362
1.94400,-19.4793648
1.94450,-17.95339277
1.94500,-15.81703191
1.94550,-15.5118375
1.94600,-17.34300395
1.94650,-18.56378158
1.94700,-17.34300395
1.94750,-14.90144869
1.94800,-14.90144869
1.94850,-18.86897599
1.94900,-23.1416977
1.94950,-23.4468921
1.95000,-18.56378158
1.95050,-11.5443102
1.95100,-6.050810866
1.95150,-2.998866789
1.95200,-1.778089158
1.95250,-0.2521171194
1.95300,1.579049327
1.95350,3.410215773
1.95400,3.410215773
1.95450,0.9686605114
1.95500,-2.693672381
1.95550,-6.356005273
1.95600,-6.661199681
1.95650,-2.998866789
1.95700,0.6634661037
1.95750,1.579049327
1.95800,-0.2521171194
1.95850,-1.167700343
1.95900,-0.8625059348
1.95950,-1.778089158
1.96000,-4.524838827
1.96050,-7.576782904
1.96100,-8.492366127
1.96150,-8.492366127
1.96200,-7.576782904
1.96250,-5.44042205
1.96300,-1.167700343
1.96350,1.884243735
1.96400,3.105021365
1.96450,2.189438142
1.96500,0.6634661037
1.96550,-0.5573115271
1.96600,-0.8625059348
1.96650,0.0530772883
1.96700,1.884243735
1.96750,0.9686605114
1.96800,-1.47289475
1.96850,-3.609255604
1.96900,-2.998866789
1.96950,-2.083283566
1.97000,-3.304061196
1.97050,-5.44042205
1.97100,-4.524838827
1.97150,-0.8625059348
1.97200,2.49463255
1.97250,4.325798996
1.97300,4.936187812
1.97350,5.241382219
1.97400,6.767354258
1.97450,8.598520704
1.97500,10.42968715
1.97550,10.73488156
1.97600,10.12449274
1.97650,9.819298335
1.97700,10.42968715
1.97750,11.65046478
1.97800,11.95565919
1.97850,10.73488156
1.97900,9.819298335
1.97950,9.208909519
1.98000,9.208909519
1.98050,8.903715112
1.98100,8.598520704
1.98150,8.598520704
1.98200,8.598520704
1.98250,8.903715112
1.98300,9.514103927
1.98350,10.42968715
1.98400,10.73488156
1.98450,10.42968715
1.98500,9.208909519
1.98550,8.598520704
1.98600,8.903715112
1.98650,9.208909519
1.98700,9.514103927
1.98750,9.514103927
1.98800,9.208909519
1.98850,8.598520704
1.98900,7.682937481
1.98950,6.46215985
1.99000,5.546576627
1.99050,4.020604588
1.99100,3.105021365
1.99150,4.325798996
1.99200,6.46215985
1.99250,7.988131889
1.99300,8.598520704
1.99350,8.903715112
1.99400,8.598520704
1.99450,7.072548665
1.99500,5.546576627
1.99550,5.241382219
1.99600,6.46215985
1.99650,7.377743073
1.99700,7.988131889
1.99750,8.903715112
1.99800,9.208909519
1.99850,8.293326296
1.99900,7.377743073
1.99950,7.988131889
2.00000,9.819298335
2.00050,10.42968715
2.00100,10.12449274
2.00150,10.73488156
2.00200,13.17643682
2.00250,15.31279767
2.00300,15.92318649
2.00350,16.83876971
2.00400,20.1959082
2.00450,23.24785227
2.00500,24.1634355
2.00550,23.55304668
2.00600,22.63746346
2.00650,22.02707464
2.00700,20.1959082
2.00750,18.36474175
2.00800,17.44915853
2.00850,16.83876971
2.00900,14.70240886
2.00950,12.566048
2.01000,12.566048
2.01050,15.61799208
2.01100,18.97513057
2.01150,21.72188024
2.01200,22.94265787
2.01250,22.33226905
2.01300,18.66993616
2.01350,13.48163123
2.01400,8.598520704
2.01450,3.715410181
2.01500,-2.083283566
2.01550,-8.18717172
2.01600,-11.84950461
2.01650,-13.68067106
2.01700,-14.59625428
2.01750,-15.5118375
2.01800,-16.12222632
2.01850,-16.73261514
2.01900,-17.34300395
2.01950,-17.03780954
2.02000,-14.90144869
2.02050,-11.84950461
2.02100,-9.102754943
2.02150,-6.050810866
2.02200,-1.167700343
2.02250,2.189438142
2.02300,1.579049327
2.02350,-2.998866789
2.02400,-8.18717172
2.02450,-11.5443102
2.02500,-13.37547665
2.02550,-13.68067106
2.02600,-10.01833817
2.02650,-3.304061196
2.02700,2.49463255
2.02750,4.936187812
2.02800,4.630993404
2.02850,4.325798996
2.02900,3.410215773
2.02950,1.884243735
2.03000,0.6634661037
2.03050,0.6634661037
2.03100,0.0530772883
2.03150,-2.388477973
2.03200,-7.576782904
2.03250,-12.15469902
2.03300,-13.37547665
2.03350,-11.5443102
2.03400,-9.102754943
2.03450,-9.102754943
2.03500,-11.5443102
2.03550,-15.2066431
2.03600,-18.56378158
2.03650,-21.00533684
2.03700,-23.1416977
2.03750,-24.66766974
2.03800,-23.4468921
2.03850,-19.78455921
2.03900,-16.12222632
2.03950,-14.90144869
2.04000,-15.2066431
2.04050,-14.29105987
2.04100,-11.84950461
2.04150,-7.881977312
2.04200,-2.998866789
2.04250,1.579049327
2.04300,4.325798996
2.04350,3.715410181
2.04400,1.273854919
2.04450,-0.2521171194
2.04500,-1.47289475
2.04550,-3.609255604
2.04600,-7.881977312
2.04650,-12.76508784
2.04700,-16.42742073
2.04750,-19.4793648
2.04800,-21.61572566
2.04850,-23.75208651
2.04900,-25.88844737
2.04950,-27.71961381
2.05000,-27.71961381
2.05050,-24.05728092
2.05100,-17.95339277
2.05150,-13.68067106
2.05200,-13.68067106
2.05250,-15.81703191
2.05300,-17.64819836
2.05350,-18.25858717
2.05400,-19.78455921
2.05450,-21.61572566
2.05500,-21.00533684
2.05550,-18.25858717
2.05600,-15.2066431
2.05650,-13.98586547
2.05700,-13.98586547
2.05750,-13.07028224
2.05800,-10.62872698
2.05850,-8.18717172
2.05900,-6.050810866
2.05950,-2.693672381
2.06000,2.799826958
2.06050,9.514103927
2.06100,14.09202004
2.06150,16.5335753
2.06200,17.14396412
2.06250,15.31279767
2.06300,9.819298335
2.06350,1.273854919
2.06400,-6.966394089
2.06450,-11.84950461
2.06500,-13.37547665
2.06550,-12.45989343
2.06600,-10.93392139
2.06650,-8.18717172
2.06700,-3.609255604
2.06750,0.9686605114
2.06800,3.410215773
2.06850,3.715410181
2.06900,3.105021365
2.06950,3.410215773
2.07000,4.325798996
2.07050,4.630993404
2.07100,4.325798996
2.07150,3.410215773
2.07200,2.49463255
2.07250,0.6634661037
2.07300,-0.5573115271
2.07350,-2.083283566
2.07400,-3.304061196
2.07450,-5.135227643
2.07500,-6.356005273
2.07550,-5.44042205
2.07600,-3.304061196
2.07650,-2.083283566
2.07700,-2.388477973
2.07750,-2.083283566
2.07800,0.0530772883
2.07850,3.410215773
2.07900,4.936187812
2.07950,5.546576627
2.08000,6.156965442
2.08050,6.46215985
2.08100,5.241382219
2.08150,3.105021365
2.08200,3.410215773
2.08250,6.767354258
2.08300,9.819298335
2.08350,10.42968715
2.08400,9.514103927
2.08450,8.598520704
2.08500,9.514103927
2.08550,11.95565919
2.08600,14.70240886
2.08650,16.83876971
2.08700,16.83876971
2.08750,15.31279767
2.08800,13.17643682
2.08850,11.34527037
2.08900,8.903715112
2.08950,6.46215985
2.09000,5.851771035
2.09050,7.682937481
2.09100,10.12449274
2.09150,11.04007597
2.09200,11.65046478
2.09250,13.17643682
2.09300,14.70240886
2.09350,13.78682563
2.09400,11.65046478
2.09450,10.12449274
2.09500,9.514103927
2.09550,7.988131889
2.09600,4.936187812
2.09650,0.358271696
2.09700,-5.44042205
2.09750,-13.68067106
2.09800,-23.1416977
2.09850,-30.46636348
2.09900,-32.29752993
2.09950,-28.63519704
2.10000,-24.05728092
2.10050,-23.4468921
2.10100,-26.49883618
2.10150,-29.85597467
2.10200,-29.24558585
2.10250,-24.97286414
2.10300,-21.92092007
2.10350,-22.83650329
2.10400,-26.19364177
2.10450,-28.02480822
2.10500,-27.71961381
2.10550,-27.4144194
2.10600,-28.02480822
2.10650,-28.02480822
2.10700,-27.4144194
2.10750,-24.97286414
2.10800,-19.78455921
2.10850,-11.2391158
2.10900,-1.47289475
2.10950,6.46215985
2.11000,11.65046478
2.11050,14.70240886
2.11100,17.14396412
2.11150,18.66993616
2.11200,21.11149142
2.11250,24.77382431
2.11300,29.35174043
2.11350,32.0984901
2.11400,32.4036845
2.11450,30.87771247
2.11500,27.52057398
2.11550,24.1634355
2.11600,22.94265787
2.11650,25.99460194
2.11700,30.87771247
2.11750,34.54004536
2.11800,34.84523977
2.11850,33.62446214
2.11900,31.18290687
2.11950,25.38421313
2.12000,15.92318649
2.12050,5.851771035
2.12100,-0.2521171194
2.12150,-4.524838827
2.12200,-10.62872698
2.12250,-21.31053125
2.12300,-32.60272434
2.12350,-39.31700131
2.12400,-39.62219571
2.12450,-35.95986282
2.12500,-31.0767523
2.12550,-26.19364177
2.12600,-21.31053125
2.12650,-17.34300395
2.12700,-14.59625428
2.12750,-13.68067106
2.12800,-13.68067106
2.12850,-13.07028224
2.12900,-10.93392139
2.12950,-8.492366127
2.13000,-8.492366127
2.13050,-10.62872698
2.13100,-12.15469902
2.13150,-10.62872698
2.13200,-6.050810866
2.13250,-0.8625059348
2.13300,2.799826958
2.13350,4.936187812
2.13400,5.241382219
2.13450,5.546576627
2.13500,7.072548665
2.13550,10.12449274
2.13600,14.09202004
2.13650,18.66993616
2.13700,23.55304668
2.13750,28.4361572
2.13800,32.70887891
2.13850,36.98160062
2.13900,39.11796147
2.13950,37.89718384
2.14000,34.54004536
2.14050,34.23485095
2.14100,38.50757266
2.14150,44.30626641
2.14200,47.05301607
2.14250,45.52704404
2.14300,43.39068318
2.14350,41.25432233
2.14400,37.89718384
2.14450,32.0984901
2.14500,26.29979635
2.14550,21.72188024
2.14600,16.5335753
2.14650,8.903715112
2.14700,0.0530772883
2.14750,-6.661199681
2.14800,-10.62872698
2.14850,-13.37547665
2.14900,-17.64819836
2.14950,-23.4468921
2.15000,-28.94039144
2.15050,-33.51830756
2.15100,-37.48583486
2.15150,-42.9793342
2.15200,-49.08322235
2.15250,-52.74555524
2.15300,-50.9143888
2.15350,-44.81050064
2.15400,-39.0118069
2.15450,-36.26505723
2.15500,-35.65466841
2.15550,-34.73908519
2.15600,-33.51830756
2.15650,-32.29752993
2.15700,-29.85597467
2.15750,-24.05728092
2.15800,-16.73261514
2.15850,-10.62872698
2.15900,-6.966394089
2.15950,-3.609255604
2.16000,-0.2521171194
2.16050,3.105021365
2.16100,4.325798996
2.16150,4.630993404
2.16200,4.630993404
2.16250,4.630993404
2.16300,4.936187812
2.16350,6.767354258
2.16400,11.65046478
2.16450,17.14396412
2.16500,21.11149142
2.16550,23.55304668
2.16600,25.38421313
2.16650,26.29979635
2.16700,26.29979635
2.16750,26.60499076
2.16800,25.38421313
2.16850,20.5011026
2.16900,12.2608536
2.16950,5.851771035
2.17000,4.630993404
2.17050,6.46215985
2.17100,5.851771035
2.17150,1.884243735
2.17200,-2.693672381
2.17250,-5.135227643
2.17300,-5.745616458
2.17350,-6.050810866
2.17400,-6.661199681
2.17450,-6.661199681
2.17500,-5.135227643
2.17550,-2.693672381
2.17600,-1.167700343
2.17650,-2.083283566
2.17700,-4.830033235
2.17750,-6.661199681
2.17800,-5.44042205
2.17850,-4.524838827
2.17900,-6.661199681
2.17950,-11.2391158
2.18000,-14.29105987
2.18050,-12.76508784
2.18100,-8.18717172
2.18150,-3.304061196
2.18200,-0.5573115271
2.18250,-0.5573115271
2.18300,-1.47289475
2.18350,-2.083283566
2.18400,-1.167700343
2.18450,0.358271696
2.18500,2.49463255
2.18550,6.46215985
2.18600,12.2608536
2.18650,17.75435293
2.18700,19.89071379
2.18750,18.97513057
2.18800,17.75435293
2.18850,17.75435293
2.18900,18.05954734
2.18950,18.36474175
2.19000,18.66993616
2.19050,19.58551938
2.19100,20.5011026
2.19150,21.41668583
2.19200,22.33226905
2.19250,23.55304668
2.19300,24.4686299
2.19350,25.07901872
2.19400,25.07901872
2.19450,24.4686299
2.19500,24.1634355
2.19550,25.07901872
2.19600,26.29979635
2.19650,26.60499076
2.19700,25.99460194
2.19750,25.99460194
2.19800,26.29979635
2.19850,24.4686299
2.19900,18.66993616
2.19950,10.73488156
2.20000,3.410215773
2.20050,-2.388477973
2.20100,-7.576782904
2.20150,-10.01833817
2.20200,-8.492366127
2.20250,-4.21964442
2.20300,-0.2521171194
2.20350,2.189438142
2.20400,4.630993404
2.20450,5.546576627
2.20500,3.715410181
2.20550,-0.8625059348
2.20600,-4.21964442
2.20650,-3.914450012
2.20700,-1.47289475
2.20750,-0.2521171194
2.20800,-0.2521171194
2.20850,-2.083283566
2.20900,-5.135227643
2.20950,-7.576782904
2.21000,-7.271588497
2.21050,-3.914450012
2.21100,-0.5573115271
2.21150,0.6634661037
2.21200,0.9686605114
2.21250,1.273854919
2.21300,1.579049327
2.21350,0.9686605114
2.21400,-0.2521171194
2.21450,-0.2521171194
2.21500,0.6634661037
2.21550,1.273854919
2.21600,0.6634661037
2.21650,-0.8625059348
2.21700,-3.304061196
2.21750,-5.745616458
2.21800,-6.661199681
2.21850,-4.21964442
2.21900,-0.8625059348
2.21950,-0.2521171194
2.22000,-2.388477973
2.22050,-3.914450012
2.22100,-3.914450012
2.22150,-5.44042205
2.22200,-10.01833817
2.22250,-14.29105987
2.22300,-15.2066431
2.22350,-14.59625428
2.22400,-16.42742073
2.22450,-19.78455921
2.22500,-20.39494803
2.22550,-19.1741704
2.22600,-18.56378158
2.22650,-18.25858717
2.22700,-15.5118375
2.22750,-10.93392139
2.22800,-8.797560535
2.22850,-10.01833817
2.22900,-11.5443102
2.22950,-11.5443102
2.23000,-14.29105987
2.23050,-22.83650329
2.23100,-34.43389078
2.23150,-45.11569505
2.23200,-51.52477761
2.23250,-53.96633287
2.23300,-52.13516643
2.23350,-48.16763913
2.23400,-45.11569505
2.23450,-44.81050064
2.23500,-44.81050064
2.23550,-43.28452861
2.23600,-39.92739012
2.23650,-36.57025164
2.23700,-33.21311315
2.23750,-29.85597467
2.23800,-25.27805855
2.23850,-19.4793648
2.23900,-13.37547665
2.23950,-6.966394089
2.24000,-2.388477973
2.24050,0.0530772883
2.24100,2.189438142
2.24150,3.715410181
2.24200,5.241382219
2.24250,6.767354258
2.24300,9.208909519
2.24350,11.95565919
2.24400,13.17643682
2.24450,12.2608536
2.24500,10.73488156
2.24550,10.12449274
2.24600,11.95565919
2.24650,15.00760327
2.24700,17.44915853
2.24750,18.36474175
2.24800,18.66993616
2.24850,18.97513057
2.24900,19.28032497
2.24950,18.66993616
2.25000,16.2283809
2.25050,14.09202004
2.25100,13.78682563
2.25150,15.61799208
2.25200,18.05954734
2.25250,21.11149142
2.25300,24.77382431
2.25350,26.60499076
2.25400,25.38421313
2.25450,22.33226905
2.25500,20.80629701
2.25550,22.02707464
2.25600,22.63746346
2.25650,21.72188024
2.25700,20.5011026
2.25750,21.11149142
2.25800,23.85824109
2.25850,25.99460194
2.25900,26.91018517
2.25950,25.68940754
2.26000,22.63746346
2.26050,18.66993616
2.26100,15.61799208
2.26150,15.00760327
2.26200,15.31279767
2.26250,15.61799208
2.26300,17.14396412
2.26350,20.80629701
2.26400,24.4686299
2.26450,24.77382431
2.26500,22.63746346
2.26550,20.80629701
2.26600,21.11149142
2.26650,21.41668583
2.26700,20.80629701
2.26750,18.97513057
2.26800,17.14396412
2.26850,15.92318649
2.26900,15.92318649
2.26950,17.14396412
2.27000,20.1959082
2.27050,23.55304668
2.27100,25.99460194
2.27150,27.21537957
2.27200,26.60499076
2.27250,24.1634355
2.27300,21.72188024
2.27350,20.5011026
2.27400,21.11149142
2.27450,20.1959082
2.27500,17.44915853
2.27550,14.09202004
2.27600,11.34527037
2.27650,9.514103927
2.27700,7.988131889
2.27750,7.988131889
2.27800,9.819298335
2.27850,11.95565919
2.27900,12.566048
2.27950,11.65046478
2.28000,11.95565919
2.28050,12.566048
2.28100,11.95565919
2.28150,8.903715112
2.28200,4.630993404
2.28250,-1.167700343
2.28300,-11.2391158
2.28350,-27.109225
2.28400,-46.9468615
2.28450,-65.86891478
2.28500,-81.43382957
2.28550,-91.81043943
2.28600,-94.25199469
2.28650,-88.45330095
2.28700,-77.77149668
2.28750,-68.61566444
2.28800,-63.73255392
2.28850,-61.29099866
2.28900,-58.54424899
2.28950,-55.18711051
2.29000,-52.13516643
2.29050,-49.38841676
2.29100,-47.25205591
2.29150,-44.50530624
2.29200,-40.53777894
2.29250,-34.12869637
2.29300,-26.19364177
2.29350,-20.08975362
2.29400,-17.03780954
2.29450,-16.42742073
2.29500,-14.29105987
2.29550,-9.713143758
2.29600,-4.830033235
2.29650,-2.083283566
2.29700,-1.167700343
2.29750,-0.8625059348
2.29800,-0.8625059348
2.29850,-1.778089158
2.29900,-3.304061196
2.29950,-5.135227643
2.30000,-6.050810866
2.30050,-6.356005273
2.30100,-6.966394089
2.30150,-6.661199681
2.30200,-5.135227643
2.30250,-3.914450012
2.30300,-5.135227643
2.30350,-8.18717172
2.30400,-8.492366127
2.30450,-4.524838827
2.30500,0.358271696
2.30550,2.799826958
2.30600,2.799826958
2.30650,3.410215773
2.30700,4.630993404
2.30750,3.410215773
2.30800,1.579049327
2.30850,3.410215773
2.30900,9.819298335
2.30950,17.14396412
2.31000,20.5011026
2.31050,19.28032497
2.31100,16.5335753
2.31150,13.78682563
2.31200,11.04007597
2.31250,8.903715112
2.31300,7.682937481
2.31350,9.208909519
2.31400,12.566048
2.31450,15.61799208
2.31500,16.83876971
2.31550,15.92318649
2.31600,14.39721445
2.31650,13.17643682
2.31700,11.34527037
2.31750,9.514103927
2.31800,8.293326296
2.31850,9.208909519
2.31900,11.04007597
2.31950,12.2608536
2.32000,12.566048
2.32050,12.2608536
2.32100,12.2608536
2.32150,12.2608536
2.32200,12.2608536
2.32250,11.95565919
2.32300,9.819298335
2.32350,6.767354258
2.32400,6.156965442
2.32450,8.903715112
2.32500,11.95565919
2.32550,12.2608536
2.32600,10.42968715
2.32650,11.34527037
2.32700,15.61799208
2.32750,18.66993616
2.32800,18.05954734
2.32850,15.92318649
2.32900,15.31279767
2.32950,16.5335753
2.33000,17.44915853
2.33050,18.66993616
2.33100,20.80629701
2.33150,23.24785227
2.33200,23.24785227
2.33250,19.89071379
2.33300,15.61799208
2.33350,12.566048
2.33400,10.12449274
2.33450,6.767354258
2.33500,3.105021365
2.33550,0.6634661037
2.33600,-1.47289475
2.33650,-6.050810866
2.33700,-13.37547665
2.33750,-20.39494803
2.33800,-25.27805855
2.33850,-28.94039144
2.33900,-32.29752993
2.33950,-34.43389078
2.34000,-33.51830756
2.34050,-31.3819467
2.34100,-30.46636348
2.34150,-30.77155789
2.34200,-30.77155789
2.34250,-28.94039144
2.34300,-26.49883618
2.34350,-24.36247533
2.34400,-22.22611447
2.34450,-21.92092007
2.34500,-22.83650329
2.34550,-22.83650329
2.34600,-20.39494803
2.34650,-16.12222632
2.34700,-14.29105987
2.34750,-14.29105987
2.34800,-12.15469902
2.34850,-5.44042205
2.34900,3.715410181
2.34950,11.65046478
2.35000,16.2283809
2.35050,18.36474175
2.35100,19.58551938
2.35150,20.5011026
2.35200,20.80629701
2.35250,19.58551938
2.35300,17.14396412
2.35350,14.39721445
2.35400,13.48163123
2.35450,14.39721445
2.35500,15.92318649
2.35550,16.83876971
2.35600,16.5335753
2.35650,14.70240886
2.35700,12.2608536
2.35750,10.42968715
2.35800,9.819298335
2.35850,9.514103927
2.35900,8.598520704
2.35950,6.156965442
2.36000,3.105021365
2.36050,-0.5573115271
2.36100,-4.524838827
2.36150,-8.18717172
2.36200,-12.45989343
2.36250,-17.34300395
2.36300,-21.61572566
2.36350,-22.83650329
2.36400,-21.31053125
2.36450,-18.86897599
2.36500,-17.34300395
2.36550,-16.12222632
2.36600,-14.29105987
2.36650,-11.2391158
2.36700,-6.661199681
2.36750,-0.5573115271
2.36800,4.630993404
2.36850,7.682937481
2.36900,8.293326296
2.36950,7.682937481
2.37000,6.46215985
2.37050,3.715410181
2.37100,-1.167700343
2.37150,-6.356005273
2.37200,-8.492366127
2.37250,-6.966394089
2.37300,-2.388477973
2.37350,1.579049327
2.37400,3.715410181
2.37450,3.105021365
2.37500,0.358271696
2.37550,-2.693672381
2.37600,-6.661199681
2.37650,-11.2391158
2.37700,-14.29105987
2.37750,-13.37547665
2.37800,-10.32353257
2.37850,-7.271588497
2.37900,-5.44042205
2.37950,-2.693672381
2.38000,0.0530772883
2.38050,0.358271696
2.38100,-2.693672381
2.38150,-6.661199681
2.38200,-7.881977312
2.38250,-7.271588497
2.38300,-6.050810866
2.38350,-4.830033235
2.38400,-2.693672381
2.38450,0.0530772883
2.38500,3.410215773
2.38550,7.072548665
2.38600,10.12449274
2.38650,10.73488156
2.38700,9.514103927
2.38750,7.988131889
2.38800,6.767354258
2.38850,3.715410181
2.38900,-0.8625059348
2.38950,-3.609255604
2.39000,-1.47289475
2.39050,1.884243735
2.39100,3.105021365
2.39150,0.9686605114
2.39200,-1.47289475
2.39250,-2.998866789
2.39300,-3.914450012
2.39350,-3.914450012
2.39400,-1.778089158
2.39450,2.189438142
2.39500,5.546576627
2.39550,7.377743073
2.39600,8.903715112
2.39650,10.12449274
2.39700,11.34527037
2.39750,12.2608536
2.39800,12.87124241
2.39850,13.17643682
2.39900,14.39721445
2.39950,17.14396412
2.40000,20.1959082
2.40050,19.28032497
2.40100,12.2608536
2.40150,3.715410181
2.40200,0.0530772883
2.40250,2.799826958
2.40300,6.767354258
2.40350,7.988131889
2.40400,7.377743073
2.40450,6.156965442
2.40500,4.936187812
2.40550,3.105021365
2.40600,2.49463255
2.40650,3.410215773
2.40700,4.630993404
2.40750,5.851771035
2.40800,6.767354258
2.40850,6.767354258
2.40900,3.410215773
2.40950,-2.388477973
2.41000,-9.102754943
2.41050,-13.98586547
2.41100,-18.86897599
2.41150,-24.05728092
2.41200,-28.33000263
2.41250,-31.0767523
2.41300,-33.51830756
2.41350,-35.65466841
2.41400,-35.65466841
2.41450,-33.21311315
2.41500,-30.46636348
2.41550,-27.109225
2.41600,-20.39494803
2.41650,-10.01833817
2.41700,-0.2521171194
2.41750,3.715410181
2.41800,1.579049327
2.41850,-2.693672381
2.41900,-5.135227643
2.41950,-4.830033235
2.42000,-2.998866789
2.42050,-2.693672381
2.42100,-4.830033235
2.42150,-6.661199681
2.42200,-5.135227643
2.42250,-1.778089158
2.42300,-1.47289475
2.42350,-4.830033235
2.42400,-7.271588497
2.42450,-6.050810866
2.42500,-4.830033235
2.42550,-6.661199681
2.42600,-8.492366127
2.42650,-6.050810866
2.42700,-0.2521171194
2.42750,3.105021365
2.42800,3.715410181
2.42850,5.241382219
2.42900,9.514103927
2.42950,12.87124241
2.43000,13.78682563
2.43050,15.31279767
2.43100,21.72188024
2.43150,29.96212924
2.43200,34.84523977
2.43250,33.62446214
2.43300,29.04654602
2.43350,25.68940754
2.43400,24.4686299
2.43450,23.24785227
2.43500,20.5011026
2.43550,16.2283809
2.43600,12.2608536
2.43650,7.988131889
2.43700,4.020604588
2.43750,1.884243735
2.43800,4.630993404
2.43850,10.42968715
2.43900,14.09202004
2.43950,11.95565919
2.44000,5.851771035
2.44050,0.0530772883
2.44100,-4.21964442
2.44150,-9.40794935
2.44200,-14.90144869
2.44250,-18.25858717
2.44300,-19.1741704
2.44350,-19.4793648
2.44400,-22.22611447
2.44450,-25.88844737
2.44500,-29.24558585
2.44550,-31.99233552
2.44600,-33.82350197
2.44650,-35.34947401
2.44700,-36.57025164
2.44750,-35.95986282
2.44800,-32.60272434
2.44850,-25.27805855
2.44900,-16.42742073
2.44950,-9.102754943
2.45000,-3.914450012
2.45050,0.358271696
2.45100,4.630993404
2.45150,7.988131889
2.45200,8.598520704
2.45250,7.072548665
2.45300,4.020604588
2.45350,0.0530772883
2.45400,-1.778089158
2.45450,-0.5573115271
2.45500,3.105021365
2.45550,6.46215985
2.45600,8.598520704
2.45650,10.42968715
2.45700,12.566048
2.45750,13.17643682
2.45800,12.87124241
2.45850,12.566048
2.45900,12.87124241
2.45950,11.34527037
2.46000,6.46215985
2.46050,-0.2521171194
2.46100,-4.21964442
2.46150,-3.914450012
2.46200,0.6634661037
2.46250,6.767354258
2.46300,9.819298335
2.46350,7.072548665
2.46400,0.6634661037
2.46450,-4.830033235
2.46500,-6.966394089
2.46550,-5.44042205
2.46600,-1.778089158
2.46650,2.799826958
2.46700,7.377743073
2.46750,8.903715112
2.46800,7.377743073
2.46850,3.715410181
2.46900,0.9686605114
2.46950,-0.8625059348
2.47000,-3.304061196
2.47050,-5.44042205
2.47100,-5.745616458
2.47150,-2.998866789
2.47200,1.884243735
2.47250,5.851771035
2.47300,6.767354258
2.47350,4.630993404
2.47400,1.579049327
2.47450,-0.2521171194
2.47500,-0.2521171194
2.47550,0.358271696
2.47600,1.884243735
2.47650,4.325798996
2.47700,6.156965442
2.47750,6.46215985
2.47800,7.377743073
2.47850,10.12449274
2.47900,13.17643682
2.47950,13.17643682
2.48000,10.73488156
2.48050,9.819298335
2.48100,12.2608536
2.48150,15.00760327
2.48200,16.2283809
2.48250,17.14396412
2.48300,20.1959082
2.48350,24.4686299
2.48400,25.99460194
2.48450,23.24785227
2.48500,17.44915853
2.48550,11.65046478
2.48600,7.072548665
2.48650,4.020604588
2.48700,3.105021365
2.48750,4.020604588
2.48800,5.546576627
2.48850,4.936187812
2.48900,1.273854919
2.48950,-2.998866789
2.49000,-6.050810866
2.49050,-5.135227643
2.49100,-2.388477973
2.49150,-1.47289475
2.49200,-3.304061196
2.49250,-3.914450012
2.49300,-0.2521171194
2.49350,6.46215985
2.49400,12.87124241
2.49450,15.92318649
2.49500,16.2283809
2.49550,15.00760327
2.49600,11.65046478
2.49650,4.630993404
2.49700,-3.609255604
2.49750,-10.93392139
2.49800,-15.5118375
2.49850,-18.86897599
2.49900,-23.1416977
2.49950,-28.02480822
2.50000,-30.77155789
2.50050,-28.33000263
2.50100,-21.00533684
2.50150,-11.2391158
2.50200,-2.083283566
2.50250,4.325798996
2.50300,8.293326296
2.50350,9.514103927
2.50400,8.598520704
2.50450,5.241382219
2.50500,0.358271696
2.50550,-3.609255604
2.50600,-6.050810866
2.50650,-5.745616458
2.50700,-4.830033235
2.50750,-5.135227643
2.50800,-6.356005273
2.50850,-6.050810866
2.50900,-2.083283566
2.50950,4.630993404
2.51000,11.04007597
2.51050,14.39721445
2.51100,16.5335753
2.51150,20.80629701
2.51200,26.60499076
2.51250,31.18290687
2.51300,32.4036845
2.51350,31.18290687
2.51400,29.04654602
2.51450,25.68940754
2.51500,19.58551938
2.51550,12.2608536
2.51600,6.767354258
2.51650,4.020604588
2.51700,2.189438142
2.51750,0.9686605114
2.51800,0.9686605114
2.51850,3.105021365
2.51900,5.851771035
2.51950,8.293326296
2.52000,10.73488156
2.52050,13.48163123
2.52100,15.31279767
2.52150,15.92318649
2.52200,15.92318649
2.52250,16.5335753
2.52300,17.14396412
2.52350,17.14396412
2.52400,15.92318649
2.52450,11.65046478
2.52500,3.105021365
2.52550,-6.356005273
2.52600,-12.15469902
2.52650,-12.76508784
2.52700,-13.07028224
2.52750,-16.12222632
2.52800,-18.86897599
2.52850,-17.34300395
2.52900,-13.37547665
2.52950,-11.5443102
2.53000,-12.15469902
2.53050,-12.76508784
2.53100,-11.84950461
2.53150,-10.32353257
2.53200,-8.492366127
2.53250,-6.661199681
2.53300,-6.966394089
2.53350,-11.2391158
2.53400,-16.73261514
2.53450,-19.78455921
2.53500,-20.08975362
2.53550,-20.70014244
2.53600,-22.53130888
2.53650,-22.53130888
2.53700,-21.00533684
2.53750,-20.70014244
2.53800,-24.05728092
2.53850,-27.4144194
2.53900,-28.02480822
2.53950,-28.02480822
2.54000,-29.24558585
2.54050,-29.85597467
2.54100,-27.4144194
2.54150,-24.36247533
2.54200,-24.05728092
2.54250,-26.19364177
2.54300,-27.109225
2.54350,-25.88844737
2.54400,-24.36247533
2.54450,-23.75208651
2.54500,-22.83650329
2.54550,-19.78455921
2.54600,-14.59625428
2.54650,-7.271588497
2.54700,0.6634661037
2.54750,7.988131889
2.54800,11.65046478
2.54850,13.78682563
2.54900,16.2283809
2.54950,19.58551938
2.55000,20.80629701
2.55050,19.89071379
2.55100,19.28032497
2.55150,18.66993616
2.55200,16.83876971
2.55250,15.00760327
2.55300,17.14396412
2.55350,22.94265787
2.55400,26.60499076
2.55450,24.4686299
2.55500,20.80629701
2.55550,22.33226905
2.55600,27.82576839
2.55650,30.87771247
2.55700,28.4361572
2.55750,23.85824109
2.55800,20.5011026
2.55850,15.92318649
2.55900,7.988131889
2.55950,-0.2521171194
2.56000,-3.914450012
2.56050,-1.778089158
2.56100,1.273854919
2.56150,3.410215773
2.56200,5.241382219
2.56250,8.903715112
2.56300,12.2608536
2.56350,12.87124241
2.56400,11.04007597
2.56450,8.293326296
2.56500,4.630993404
2.56550,-2.083283566
2.56600,-12.76508784
2.56650,-24.36247533
2.56700,-35.95986282
2.56750,-46.9468615
2.56800,-53.66113847
2.56850,-50.60919439
2.56900,-38.40141808
2.56950,-25.27805855
2.57000,-18.25858717
2.57050,-16.12222632
2.57100,-13.37547665
2.57150,-8.18717172
2.57200,-3.609255604
2.57250,-2.083283566
2.57300,-2.693672381
2.57350,-3.304061196
2.57400,-2.998866789
2.57450,-0.8625059348
2.57500,3.715410181
2.57550,9.514103927
2.57600,13.78682563
2.57650,17.14396412
2.57700,20.5011026
2.57750,23.24785227
2.57800,23.24785227
2.57850,21.41668583
2.57900,21.11149142
2.57950,22.63746346
2.58000,22.94265787
2.58050,21.11149142
2.58100,18.36474175
2.58150,15.31279767
2.58200,12.566048
2.58250,10.12449274
2.58300,8.598520704
2.58350,6.767354258
2.58400,3.105021365
2.58450,-0.8625059348
2.58500,-2.388477973
2.58550,-1.167700343
2.58600,-1.167700343
2.58650,-3.914450012
2.58700,-8.18717172
2.58750,-15.2066431
2.58800,-27.109225
2.58850,-42.06375097
2.58900,-52.74555524
2.58950,-54.8819161
2.59000,-52.74555524
2.59050,-52.13516643
2.59100,-52.13516643
2.59150,-47.55725031
2.59200,-38.70661249
2.59250,-30.77155789
2.59300,-26.19364177
2.59350,-22.53130888
2.59400,-17.95339277
2.59450,-12.76508784
2.59500,-7.881977312
2.59550,-2.083283566
2.59600,2.799826958
2.59650,4.020604588
2.59700,1.884243735
2.59750,0.0530772883
2.59800,0.9686605114
2.59850,3.715410181
2.59900,6.767354258
2.59950,10.12449274
2.60000,14.09202004
2.60050,16.5335753
2.60100,17.44915853
2.60150,17.75435293
2.60200,18.66993616
2.60250,19.28032497
2.60300,19.28032497
2.60350,20.80629701
2.60400,23.85824109
2.60450,26.60499076
2.60500,26.60499076
2.60550,24.4686299
2.60600,23.24785227
2.60650,22.02707464
2.60700,18.66993616
2.60750,13.78682563
2.60800,9.208909519
2.60850,7.377743073
2.60900,7.377743073
2.60950,7.682937481
2.61000,7.377743073
2.61050,7.072548665
2.61100,7.988131889
2.61150,9.514103927
2.61200,9.819298335
2.61250,8.293326296
2.61300,5.851771035
2.61350,5.546576627
2.61400,9.208909519
2.61450,12.87124241
2.61500,12.566048
2.61550,8.293326296
2.61600,5.241382219
2.61650,6.156965442
2.61700,9.819298335
2.61750,13.17643682
2.61800,15.00760327
2.61850,17.14396412
2.61900,19.28032497
2.61950,21.41668583
2.62000,23.55304668
2.62050,26.91018517
2.62100,29.35174043
2.62150,29.35174043
2.62200,27.21537957
2.62250,24.1634355
2.62300,19.28032497
2.62350,11.34527037
2.62400,3.715410181
2.62450,0.0530772883
2.62500,1.273854919
2.62550,2.49463255
2.62600,0.358271696
2.62650,-3.609255604
2.62700,-6.050810866
2.62750,-5.135227643
2.62800,-3.304061196
2.62850,-3.609255604
2.62900,-5.44042205
2.62950,-6.050810866
2.63000,-3.304061196
2.63050,-1.47289475
2.63100,-6.966394089
2.63150,-18.56378158
2.63200,-24.97286414
2.63250,-20.70014244
2.63300,-14.29105987
2.63350,-16.42742073
2.63400,-25.58325296
2.63450,-31.0767523
2.63500,-29.55078026
2.63550,-26.80403059
2.63600,-27.71961381
2.63650,-28.33000263
2.63700,-25.58325296
2.63750,-22.22611447
2.63800,-21.61572566
2.63850,-21.92092007
2.63900,-21.61572566
2.63950,-21.61572566
2.64000,-22.83650329
2.64050,-23.1416977
2.64100,-21.00533684
2.64150,-18.25858717
2.64200,-18.25858717
2.64250,-19.4793648
2.64300,-20.08975362
2.64350,-21.31053125
2.64400,-24.05728092
2.64450,-24.97286414
2.64500,-20.39494803
2.64550,-12.76508784
2.64600,-7.881977312
2.64650,-6.966394089
2.64700,-6.050810866
2.64750,-2.388477973
2.64800,-0.2521171194
2.64850,-2.083283566
2.64900,-6.966394089
2.64950,-10.32353257
2.65000,-9.713143758
2.65050,-6.356005273
2.65100,-3.914450012
2.65150,-3.304061196
2.65200,-5.135227643
2.65250,-8.18717172
2.65300,-10.32353257
2.65350,-10.32353257
2.65400,-7.271588497
2.65450,-3.304061196
2.65500,-0.8625059348
2.65550,-1.47289475
2.65600,-3.304061196
2.65650,-2.998866789
2.65700,-0.2521171194
2.65750,2.189438142
2.65800,1.579049327
2.65850,0.6634661037
2.65900,3.105021365
2.65950,7.988131889
2.66000,11.65046478
2.66050,12.87124241
2.66100,13.48163123
2.66150,15.61799208
2.66200,16.5335753
2.66250,15.00760327
2.66300,11.65046478
2.66350,8.903715112
2.66400,6.767354258
2.66450,5.546576627
2.66500,6.767354258
2.66550,10.42968715
2.66600,14.70240886
2.66650,18.05954734
2.66700,21.72188024
2.66750,24.4686299
2.66800,22.33226905
2.66850,12.87124241
2.66900,0.358271696
2.66950,-8.492366127
2.67000,-11.2391158
2.67050,-10.62872698
2.67100,-10.01833817
2.67150,-10.32353257
2.67200,-10.32353257
2.67250,-10.01833817
2.67300,-9.40794935
2.67350,-10.01833817
2.67400,-12.45989343
2.67450,-13.98586547
2.67500,-10.93392139
2.67550,-3.914450012
2.67600,0.9686605114
2.67650,1.884243735
2.67700,1.579049327
2.67750,4.020604588
2.67800,6.767354258
2.67850,7.988131889
2.67900,10.12449274
2.67950,15.00760327
2.68000,20.5011026
2.68050,22.33226905
2.68100,21.72188024
2.68150,21.41668583
2.68200,22.33226905
2.68250,22.02707464
2.68300,19.58551938
2.68350,17.14396412
2.68400,16.83876971
2.68450,18.05954734
2.68500,18.97513057
2.68550,18.66993616
2.68600,17.14396412
2.68650,14.70240886
2.68700,12.566048
2.68750,10.42968715
2.68800,7.988131889
2.68850,5.851771035
2.68900,5.851771035
2.68950,6.767354258
2.69000,6.767354258
2.69050,5.546576627
2.69100,5.241382219
2.69150,4.325798996
2.69200,-0.5573115271
2.69250,-10.32353257
2.69300,-18.25858717
2.69350,-20.39494803
2.69400,-21.61572566
2.69450,-26.49883618
2.69500,-33.51830756
2.69550,-36.57025164
2.69600,-34.73908519
2.69650,-31.68714111
2.69700,-28.94039144
2.69750,-24.97286414
2.69800,-19.78455921
2.69850,-15.81703191
2.69900,-13.07028224
2.69950,-10.01833817
2.70000,-5.745616458
2.70050,-1.778089158
2.70100,0.358271696
2.70150,1.579049327
2.70200,1.884243735
2.70250,1.884243735
2.70300,2.189438142
2.70350,2.49463255
2.70400,2.49463255
2.70450,2.49463255
2.70500,3.410215773
2.70550,4.020604588
2.70600,3.715410181
2.70650,2.799826958
2.70700,2.799826958
2.70750,2.189438142
2.70800,-0.5573115271
2.70850,-3.914450012
2.70900,-2.693672381
2.70950,2.49463255
2.71000,6.767354258
2.71050,6.767354258
2.71100,6.46215985
2.71150,9.514103927
2.71200,13.48163123
2.71250,14.70240886
2.71300,14.09202004
2.71350,15.61799208
2.71400,16.83876971
2.71450,13.78682563
2.71500,7.682937481
2.71550,3.715410181
2.71600,3.410215773
2.71650,1.579049327
2.71700,-3.304061196
2.71750,-7.271588497
2.71800,-6.050810866
2.71850,-2.388477973
2.71900,-0.8625059348
2.71950,-1.47289475
2.72000,-0.8625059348
2.72050,1.579049327
2.72100,3.715410181
2.72150,4.020604588
2.72200,2.189438142
2.72250,-0.5573115271
2.72300,-5.135227643
2.72350,-9.713143758
2.72400,-12.45989343
2.72450,-12.76508784
2.72500,-12.76508784
2.72550,-15.81703191
2.72600,-21.92092007
2.72650,-27.109225
2.72700,-27.71961381
2.72750,-23.75208651
2.72800,-18.86897599
2.72850,-14.59625428
2.72900,-10.32353257
2.72950,-4.830033235
2.73000,-0.8625059348
2.73050,-1.778089158
2.73100,-6.050810866
2.73150,-9.40794935
2.73200,-9.102754943
2.73250,-6.966394089
2.73300,-6.050810866
2.73350,-5.135227643
2.73400,-1.167700343
2.73450,6.46215985
2.73500,15.31279767
2.73550,20.80629701
2.73600,22.33226905
2.73650,22.33226905
2.73700,22.33226905
2.73750,20.5011026
2.73800,15.92318649
2.73850,11.95565919
2.73900,12.2608536
2.73950,17.14396412
2.74000,22.33226905
2.74050,24.1634355
2.74100,24.4686299
2.74150,25.38421313
2.74200,26.29979635
2.74250,26.91018517
2.74300,25.99460194
2.74350,23.85824109
2.74400,19.58551938
2.74450,14.09202004
2.74500,8.903715112
2.74550,4.630993404
2.74600,0.358271696
2.74650,-2.998866789
2.74700,-3.914450012
2.74750,-1.778089158
2.74800,0.0530772883
2.74850,0.358271696
2.74900,-0.5573115271
2.74950,-1.47289475
2.75000,-2.998866789
2.75050,-6.966394089
2.75100,-13.98586547
2.75150,-23.75208651
2.75200,-34.43389078
2.75250,-42.36894538
2.75300,-44.20011183
2.75350,-39.0118069
2.75400,-30.16116907
2.75450,-21.61572566
2.75500,-15.5118375
2.75550,-11.84950461
2.75600,-10.32353257
2.75650,-10.01833817
2.75700,-9.102754943
2.75750,-7.576782904
2.75800,-6.050810866
2.75850,-4.524838827
2.75900,-1.778089158
2.75950,2.189438142
2.76000,5.546576627
2.76050,5.851771035
2.76100,4.630993404
2.76150,3.410215773
2.76200,3.410215773
2.76250,4.630993404
2.76300,6.46215985
2.76350,7.682937481
2.76400,6.767354258
2.76450,3.410215773
2.76500,-1.167700343
2.76550,-3.914450012
2.76600,-2.083283566
2.76650,3.410215773
2.76700,9.208909519
2.76750,11.65046478
2.76800,12.2608536
2.76850,12.87124241
2.76900,14.70240886
2.76950,15.92318649
2.77000,15.92318649
2.77050,15.31279767
2.77100,15.31279767
2.77150,16.83876971
2.77200,19.28032497
2.77250,21.11149142
2.77300,18.97513057
2.77350,11.95565919
2.77400,4.020604588
2.77450,0.0530772883
2.77500,0.6634661037
2.77550,2.189438142
2.77600,2.799826958
2.77650,4.325798996
2.77700,8.903715112
2.77750,14.39721445
2.77800,16.5335753
2.77850,12.2608536
2.77900,4.630993404
2.77950,-1.47289475
2.78000,-2.998866789
2.78050,-1.167700343
2.78100,-0.2521171194
2.78150,-1.778089158
2.78200,-4.21964442
2.78250,-6.050810866
2.78300,-8.18717172
2.78350,-12.15469902
2.78400,-15.5118375
2.78450,-16.42742073
2.78500,-16.12222632
2.78550,-16.12222632
2.78600,-16.42742073
2.78650,-15.81703191
2.78700,-14.59625428
2.78750,-13.37547665
2.78800,-12.45989343
2.78850,-10.62872698
2.78900,-8.797560535
2.78950,-10.01833817
2.79000,-14.59625428
2.79050,-20.39494803
2.79100,-24.05728092
2.79150,-25.27805855
2.79200,-24.05728092
2.79250,-21.61572566
2.79300,-18.25858717
2.79350,-16.73261514
2.79400,-16.73261514
2.79450,-15.5118375
2.79500,-10.01833817
2.79550,-1.778089158
2.79600,3.410215773
2.79650,4.630993404
2.79700,4.936187812
2.79750,7.072548665
2.79800,9.819298335
2.79850,11.65046478
2.79900,13.17643682
2.79950,16.83876971
2.80000,19.89071379
2.80050,18.97513057
2.80100,15.31279767
2.80150,14.09202004
2.80200,16.5335753
2.80250,19.28032497
2.80300,19.58551938
2.80350,20.5011026
2.80400,23.24785227
2.80450,24.1634355
2.80500,18.97513057
2.80550,9.819298335
2.80600,2.189438142
2.80650,-0.5573115271
2.80700,-0.5573115271
2.80750,0.0530772883
2.80800,0.9686605114
2.80850,2.49463255
2.80900,3.410215773
2.80950,4.020604588
2.81000,2.189438142
2.81050,-3.304061196
2.81100,-12.15469902
2.81150,-20.08975362
2.81200,-23.1416977
2.81250,-21.92092007
2.81300,-19.4793648
2.81350,-17.03780954
2.81400,-14.59625428
2.81450,-12.45989343
2.81500,-11.5443102
2.81550,-11.2391158
2.81600,-8.492366127
2.81650,-3.609255604
2.81700,-0.8625059348
2.81750,-3.304061196
2.81800,-9.713143758
2.81850,-14.59625428
2.81900,-14.59625428
2.81950,-10.32353257
2.82000,-5.135227643
2.82050,-0.8625059348
2.82100,0.358271696
2.82150,-0.2521171194
2.82200,-2.998866789
2.82250,-6.050810866
2.82300,-7.576782904
2.82350,-6.966394089
2.82400,-4.524838827
2.82450,-1.167700343
2.82500,1.579049327
2.82550,3.105021365
2.82600,4.020604588
2.82650,4.630993404
2.82700,7.072548665
2.82750,11.04007597
2.82800,14.70240886
2.82850,15.31279767
2.82900,11.65046478
2.82950,5.546576627
2.83000,0.9686605114
2.83050,-0.5573115271
2.83100,0.0530772883
2.83150,2.189438142
2.83200,4.325798996
2.83250,6.156965442
2.83300,7.682937481
2.83350,10.42968715
2.83400,14.09202004
2.83450,16.5335753
2.83500,15.31279767
2.83550,10.12449274
2.83600,4.936187812
2.83650,3.715410181
2.83700,7.377743073
2.83750,12.566048
2.83800,14.70240886
2.83850,11.95565919
2.83900,5.851771035
2.83950,0.0530772883
2.84000,-3.304061196
2.84050,-3.914450012
2.84100,-1.167700343
2.84150,3.715410181
2.84200,8.598520704
2.84250,11.34527037
2.84300,12.566048
2.84350,15.31279767
2.84400,18.66993616
2.84450,18.66993616
2.84500,13.48163123
2.84550,5.241382219
2.84600,-2.388477973
2.84650,-9.102754943
2.84700,-15.81703191
2.84750,-22.22611447
2.84800,-25.88844737
2.84850,-24.97286414
2.84900,-21.61572566
2.84950,-19.4793648
2.85000,-19.78455921
2.85050,-18.25858717
2.85100,-11.84950461
2.85150,-2.693672381
2.85200,2.799826958
2.85250,4.325798996
2.85300,6.156965442
2.85350,12.566048
2.85400,20.1959082
2.85450,22.63746346
2.85500,20.5011026
2.85550,18.66993616
2.85600,18.36474175
2.85650,16.2283809
2.85700,11.65046478
2.85750,7.682937481
2.85800,7.377743073
2.85850,7.377743073
2.85900,6.156965442
2.85950,5.241382219
2.86000,7.072548665
2.86050,9.819298335
2.86100,11.04007597
2.86150,11.65046478
2.86200,14.09202004
2.86250,16.83876971
2.86300,14.39721445
2.86350,4.936187812
2.86400,-6.356005273
2.86450,-13.37547665
2.86500,-14.90144869
2.86550,-14.29105987
2.86600,-15.2066431
2.86650,-16.12222632
2.86700,-15.2066431
2.86750,-11.5443102
2.86800,-6.966394089
2.86850,-0.8625059348
2.86900,6.767354258
2.86950,14.39721445
2.87000,17.14396412
2.87050,13.48163123
2.87100,6.156965442
2.87150,-0.2521171194
2.87200,-5.135227643
2.87250,-10.01833817
2.87300,-15.81703191
2.87350,-20.70014244
2.87400,-24.66766974
2.87450,-27.4144194
2.87500,-29.24558585
2.87550,-27.4144194
2.87600,-21.92092007
2.87650,-15.81703191
2.87700,-13.07028224
2.87750,-13.07028224
2.87800,-12.15469902
2.87850,-7.271588497
2.87900,-1.47289475
2.87950,1.273854919
2.88000,1.579049327
2.88050,2.49463255
2.88100,5.851771035
2.88150,7.988131889
2.88200,6.156965442
2.88250,0.9686605114
2.88300,-4.21964442
2.88350,-8.18717172
2.88400,-10.62872698
2.88450,-11.84950461
2.88500,-12.15469902
2.88550,-12.45989343
2.88600,-11.5443102
2.88650,-8.18717172
2.88700,-2.998866789
2.88750,1.273854919
2.88800,2.189438142
2.88850,0.358271696
2.88900,-0.2521171194
2.88950,2.49463255
2.89000,6.156965442
2.89050,6.46215985
2.89100,2.799826958
2.89150,-1.47289475
2.89200,-3.609255604
2.89250,-2.998866789
2.89300,-1.47289475
2.89350,0.6634661037
2.89400,4.936187812
2.89450,11.04007597
2.89500,17.44915853
2.89550,21.72188024
2.89600,24.1634355
2.89650,23.85824109
2.89700,21.72188024
2.89750,19.28032497
2.89800,17.75435293
2.89850,17.14396412
2.89900,16.83876971
2.89950,16.5335753
2.90000,16.2283809
2.90050,13.48163123
2.90100,7.682937481
2.90150,2.189438142
2.90200,-0.2521171194
2.90250,-1.47289475
2.90300,-4.524838827
2.90350,-9.713143758
2.90400,-14.59625428
2.90450,-18.86897599
2.90500,-23.75208651
2.90550,-28.33000263
2.90600,-29.24558585
2.90650,-27.4144194
2.90700,-25.27805855
2.90750,-24.05728092
2.90800,-22.22611447
2.90850,-20.39494803
2.90900,-19.4793648
2.90950,-17.64819836
2.91000,-11.5443102
2.91050,-2.693672381
2.91100,2.799826958
2.91150,3.410215773
2.91200,2.49463255
2.91250,1.579049327
2.91300,-0.2521171194
2.91350,-3.914450012
2.91400,-5.135227643
2.91450,-1.167700343
2.91500,5.851771035
2.91550,12.566048
2.91600,17.75435293
2.91650,21.41668583
2.91700,22.94265787
2.91750,22.02707464
2.91800,21.41668583
2.91850,21.11149142
2.91900,20.80629701
2.91950,21.11149142
2.92000,22.63746346
2.92050,22.33226905
2.92100,17.14396412
2.92150,10.42968715
2.92200,8.903715112
2.92250,12.87124241
2.92300,15.92318649
2.92350,14.09202004
2.92400,12.2608536
2.92450,13.48163123
