type,name,time_units,begin_time,frequency,count,units
signal,"Noraxon Ultium-RT BICEPS BR.","s",0.00000,2000,53240,"uV"

time,value
0.00000,-0.3108376826
0.00050,-0.005643274905
0.00100,-0.005643274905
0.00150,0.2995511328
0.00200,0.9099399482
0.00250,0.9099399482
0.00300,-0.005643274905
0.00350,-0.921226498
0.00400,-0.6160320903
0.00450,0.6047455405
0.00500,1.520328764
0.00550,0.9099399482
0.00600,-0.3108376826
0.00650,-0.6160320903
0.00700,-0.005643274905
0.00750,-0.005643274905
0.00800,-0.921226498
0.00850,-1.836809721
0.00900,-1.226420906
0.00950,-0.3108376826
0.01000,-0.3108376826
0.01050,-0.6160320903
0.01100,-0.3108376826
0.01150,-0.005643274905
0.01200,-0.005643274905
0.01250,-0.3108376826
0.01300,-0.005643274905
0.01350,0.9099399482
0.01400,2.435911987
0.01450,3.046300802
0.01500,2.435911987
0.01550,1.520328764
0.01600,0.2995511328
0.01650,-0.3108376826
0.01700,-0.921226498
0.01750,-0.6160320903
0.01800,-0.005643274905
0.01850,0.2995511328
0.01900,0.2995511328
0.01950,-0.6160320903
0.02000,-1.226420906
0.02050,-0.3108376826
0.02100,1.215134356
0.02150,1.520328764
0.02200,0.2995511328
0.02250,-0.005643274905
0.02300,0.9099399482
0.02350,1.825523171
0.02400,0.9099399482
0.02450,-0.3108376826
0.02500,-0.3108376826
0.02550,0.2995511328
0.02600,-0.005643274905
0.02650,-0.3108376826
0.02700,-0.3108376826
0.02750,-0.005643274905
0.02800,-0.3108376826
0.02850,-2.142004129
0.02900,-2.752392944
0.02950,-0.921226498
0.03000,0.6047455405
0.03050,0.2995511328
0.03100,-1.226420906
0.03150,-1.836809721
0.03200,-0.921226498
0.03250,-0.005643274905
0.03300,-0.005643274905
0.03350,-0.005643274905
0.03400,-0.005643274905
0.03450,0.6047455405
0.03500,0.9099399482
0.03550,0.2995511328
0.03600,-0.005643274905
0.03650,-0.005643274905
0.03700,0.2995511328
0.03750,0.6047455405
0.03800,0.2995511328
0.03850,0.9099399482
0.03900,2.130717579
0.03950,3.35149521
0.04000,3.046300802
0.04050,1.520328764
0.04100,0.6047455405
0.04150,0.2995511328
0.04200,0.6047455405
0.04250,-0.005643274905
0.04300,-0.921226498
0.04350,-1.531615313
0.04400,-0.6160320903
0.04450,-0.005643274905
0.04500,-0.005643274905
0.04550,-0.921226498
0.04600,-0.6160320903
0.04650,0.2995511328
0.04700,0.9099399482
0.04750,0.2995511328
0.04800,-0.005643274905
0.04850,-0.005643274905
0.04900,0.2995511328
0.04950,-0.005643274905
0.05000,-0.005643274905
0.05050,-0.005643274905
0.05100,-0.005643274905
0.05150,-0.005643274905
0.05200,-0.6160320903
0.05250,-2.142004129
0.05300,-3.36278176
0.05350,-3.667976167
0.05400,-3.057587352
0.05450,-2.447198537
0.05500,-2.142004129
0.05550,-2.142004129
0.05600,-1.836809721
0.05650,-1.531615313
0.05700,-1.531615313
0.05750,-1.836809721
0.05800,-1.836809721
0.05850,-1.531615313
0.05900,-1.226420906
0.05950,-0.005643274905
0.06000,0.9099399482
0.06050,0.9099399482
0.06100,-0.005643274905
0.06150,-0.6160320903
0.06200,-0.3108376826
0.06250,-0.005643274905
0.06300,-0.3108376826
0.06350,-0.921226498
0.06400,-0.3108376826
0.06450,0.2995511328
0.06500,0.6047455405
0.06550,0.2995511328
0.06600,-0.005643274905
0.06650,-0.005643274905
0.06700,0.2995511328
0.06750,0.6047455405
0.06800,0.9099399482
0.06850,0.9099399482
0.06900,-0.005643274905
0.06950,-0.005643274905
0.07000,0.2995511328
0.07050,0.9099399482
0.07100,0.9099399482
0.07150,0.9099399482
0.07200,1.215134356
0.07250,1.215134356
0.07300,-0.005643274905
0.07350,-0.3108376826
0.07400,-0.005643274905
0.07450,0.9099399482
0.07500,1.215134356
0.07550,0.9099399482
0.07600,0.6047455405
0.07650,0.2995511328
0.07700,0.6047455405
0.07750,1.520328764
0.07800,1.825523171
0.07850,0.6047455405
0.07900,-0.3108376826
0.07950,-0.3108376826
0.08000,0.9099399482
0.08050,1.520328764
0.08100,-0.005643274905
0.08150,-0.005643274905
0.08200,2.130717579
0.08250,5.182661656
0.08300,5.793050471
0.08350,4.877467248
0.08400,3.961884025
0.08450,3.35149521
0.08500,3.046300802
0.08550,2.435911987
0.08600,2.435911987
0.08650,1.825523171
0.08700,-0.005643274905
0.08750,-1.836809721
0.08800,-3.36278176
0.08850,-4.58355939
0.08900,-5.499142614
0.08950,-5.193948206
0.09000,-3.973170575
0.09050,-3.973170575
0.09100,-5.193948206
0.09150,-5.499142614
0.09200,-3.667976167
0.09250,-0.921226498
0.09300,-0.005643274905
0.09350,-1.226420906
0.09400,-1.836809721
0.09450,-1.531615313
0.09500,-0.6160320903
0.09550,-0.005643274905
0.09600,0.9099399482
0.09650,2.130717579
0.09700,2.741106394
0.09750,3.35149521
0.09800,4.572272841
0.09850,5.487856064
0.09900,5.182661656
0.09950,4.877467248
0.10000,4.572272841
0.10050,3.961884025
0.10100,2.130717579
0.10150,0.9099399482
0.10200,0.6047455405
0.10250,-0.005643274905
0.10300,-1.836809721
0.10350,-2.447198537
0.10400,-0.3108376826
0.10450,1.215134356
0.10500,0.9099399482
0.10550,-0.921226498
0.10600,-1.226420906
0.10650,0.2995511328
0.10700,1.520328764
0.10750,1.215134356
0.10800,0.9099399482
0.10850,0.9099399482
0.10900,-0.005643274905
0.10950,-0.6160320903
0.11000,-0.6160320903
0.11050,-0.005643274905
0.11100,-0.005643274905
0.11150,-1.836809721
0.11200,-2.752392944
0.11250,-1.836809721
0.11300,-1.226420906
0.11350,-2.752392944
0.11400,-4.278364983
0.11450,-4.278364983
0.11500,-3.36278176
0.11550,-4.278364983
0.11600,-6.414725837
0.11650,-7.025114652
0.11700,-5.193948206
0.11750,-3.667976167
0.11800,-3.667976167
0.11850,-3.667976167
0.11900,-2.447198537
0.11950,-1.226420906
0.12000,-1.836809721
0.12050,-2.752392944
0.12100,-2.447198537
0.12150,-0.921226498
0.12200,-0.005643274905
0.12250,0.2995511328
0.12300,0.9099399482
0.12350,1.520328764
0.12400,0.9099399482
0.12450,-0.6160320903
0.12500,-1.531615313
0.12550,-0.6160320903
0.12600,-0.005643274905
0.12650,0.2995511328
0.12700,0.2995511328
0.12750,0.6047455405
0.12800,0.6047455405
0.12850,0.2995511328
0.12900,-0.005643274905
0.12950,-0.005643274905
0.13000,-0.005643274905
0.13050,0.2995511328
0.13100,0.6047455405
0.13150,0.6047455405
0.13200,0.9099399482
0.13250,0.9099399482
0.13300,1.825523171
0.13350,3.046300802
0.13400,3.046300802
0.13450,2.130717579
0.13500,0.9099399482
0.13550,-0.005643274905
0.13600,-0.005643274905
0.13650,-0.005643274905
0.13700,0.9099399482
0.13750,1.520328764
0.13800,1.215134356
0.13850,0.6047455405
0.13900,0.2995511328
0.13950,0.2995511328
0.14000,-0.005643274905
0.14050,-0.6160320903
0.14100,-0.005643274905
0.14150,1.215134356
0.14200,1.520328764
0.14250,0.2995511328
0.14300,-0.3108376826
0.14350,-0.005643274905
0.14400,0.9099399482
0.14450,0.6047455405
0.14500,-0.005643274905
0.14550,0.2995511328
0.14600,2.130717579
0.14650,3.046300802
0.14700,2.435911987
0.14750,1.215134356
0.14800,0.6047455405
0.14850,0.9099399482
0.14900,0.9099399482
0.14950,0.9099399482
0.15000,0.6047455405
0.15050,0.6047455405
0.15100,0.2995511328
0.15150,0.2995511328
0.15200,0.6047455405
0.15250,0.6047455405
0.15300,-0.005643274905
0.15350,-0.6160320903
0.15400,-0.3108376826
0.15450,-0.005643274905
0.15500,0.6047455405
0.15550,0.2995511328
0.15600,0.2995511328
0.15650,1.215134356
0.15700,1.520328764
0.15750,1.215134356
0.15800,0.6047455405
0.15850,0.6047455405
0.15900,0.6047455405
0.15950,-0.005643274905
0.16000,-0.3108376826
0.16050,-0.005643274905
0.16100,0.2995511328
0.16150,-0.005643274905
0.16200,-0.3108376826
0.16250,0.2995511328
0.16300,1.215134356
0.16350,0.9099399482
0.16400,-0.3108376826
0.16450,-1.226420906
0.16500,-0.6160320903
0.16550,0.2995511328
0.16600,0.2995511328
0.16650,-0.005643274905
0.16700,-0.005643274905
0.16750,0.2995511328
0.16800,0.9099399482
0.16850,0.6047455405
0.16900,-0.005643274905
0.16950,-0.3108376826
0.17000,-0.921226498
0.17050,-0.6160320903
0.17100,-0.005643274905
0.17150,0.9099399482
0.17200,1.215134356
0.17250,0.9099399482
0.17300,0.9099399482
0.17350,0.6047455405
0.17400,-0.005643274905
0.17450,-1.531615313
0.17500,-1.531615313
0.17550,-0.921226498
0.17600,-0.3108376826
0.17650,-0.005643274905
0.17700,0.6047455405
0.17750,1.215134356
0.17800,1.215134356
0.17850,0.2995511328
0.17900,0.2995511328
0.17950,0.9099399482
0.18000,0.9099399482
0.18050,0.2995511328
0.18100,-0.005643274905
0.18150,-0.005643274905
0.18200,0.2995511328
0.18250,0.6047455405
0.18300,1.215134356
0.18350,1.825523171
0.18400,1.215134356
0.18450,-0.005643274905
0.18500,-0.6160320903
0.18550,-0.005643274905
0.18600,0.2995511328
0.18650,-0.3108376826
0.18700,-1.226420906
0.18750,-0.921226498
0.18800,-0.005643274905
0.18850,0.6047455405
0.18900,-0.005643274905
0.18950,-0.3108376826
0.19000,-0.6160320903
0.19050,-0.3108376826
0.19100,0.6047455405
0.19150,1.825523171
0.19200,1.215134356
0.19250,-0.3108376826
0.19300,-1.226420906
0.19350,-0.3108376826
0.19400,0.2995511328
0.19450,0.9099399482
0.19500,1.215134356
0.19550,1.215134356
0.19600,0.9099399482
0.19650,0.2995511328
0.19700,-0.005643274905
0.19750,0.2995511328
0.19800,0.6047455405
0.19850,0.6047455405
0.19900,-0.005643274905
0.19950,-0.005643274905
0.20000,-0.005643274905
0.20050,1.215134356
0.20100,2.741106394
0.20150,2.741106394
0.20200,1.215134356
0.20250,0.9099399482
0.20300,2.741106394
0.20350,3.656689618
0.20400,2.130717579
0.20450,0.2995511328
0.20500,2.130717579
0.20550,5.487856064
0.20600,5.793050471
0.20650,2.435911987
0.20700,-0.921226498
0.20750,-2.142004129
0.20800,-2.142004129
0.20850,-2.752392944
0.20900,-3.973170575
0.20950,-5.499142614
0.21000,-7.635503467
0.21050,-9.161475506
0.21100,-9.161475506
0.21150,-7.635503467
0.21200,-6.414725837
0.21250,-5.804337021
0.21300,-4.58355939
0.21350,-2.752392944
0.21400,-1.531615313
0.21450,-0.3108376826
0.21500,1.215134356
0.21550,3.046300802
0.21600,4.267078433
0.21650,3.961884025
0.21700,2.741106394
0.21750,1.520328764
0.21800,0.2995511328
0.21850,-0.005643274905
0.21900,-0.005643274905
0.21950,-0.005643274905
0.22000,-0.921226498
0.22050,-1.836809721
0.22100,-1.836809721
0.22150,-0.3108376826
0.22200,0.2995511328
0.22250,0.6047455405
0.22300,0.2995511328
0.22350,-0.005643274905
0.22400,-0.005643274905
0.22450,-0.3108376826
0.22500,-0.921226498
0.22550,-1.836809721
0.22600,-1.531615313
0.22650,-0.6160320903
0.22700,-0.3108376826
0.22750,-0.921226498
0.22800,-1.531615313
0.22850,-0.921226498
0.22900,-0.005643274905
0.22950,0.2995511328
0.23000,-0.005643274905
0.23050,-0.005643274905
0.23100,1.215134356
0.23150,1.825523171
0.23200,0.9099399482
0.23250,-0.005643274905
0.23300,-0.921226498
0.23350,-1.836809721
0.23400,-2.447198537
0.23450,-2.447198537
0.23500,-1.226420906
0.23550,-0.3108376826
0.23600,-0.3108376826
0.23650,-0.3108376826
0.23700,-0.921226498
0.23750,-1.226420906
0.23800,-1.531615313
0.23850,-0.921226498
0.23900,-0.3108376826
0.23950,-0.005643274905
0.24000,-0.005643274905
0.24050,0.2995511328
0.24100,1.215134356
0.24150,0.9099399482
0.24200,-0.005643274905
0.24250,-0.921226498
0.24300,-0.6160320903
0.24350,-0.3108376826
0.24400,-0.3108376826
0.24450,-0.3108376826
0.24500,-0.005643274905
0.24550,0.2995511328
0.24600,0.6047455405
0.24650,0.6047455405
0.24700,-0.005643274905
0.24750,-0.3108376826
0.24800,-0.005643274905
0.24850,0.6047455405
0.24900,0.9099399482
0.24950,0.9099399482
0.25000,0.9099399482
0.25050,0.9099399482
0.25100,0.2995511328
0.25150,-0.6160320903
0.25200,-1.226420906
0.25250,-0.005643274905
0.25300,1.825523171
0.25350,1.825523171
0.25400,0.6047455405
0.25450,0.2995511328
0.25500,0.9099399482
0.25550,0.9099399482
0.25600,-0.005643274905
0.25650,-0.005643274905
0.25700,0.2995511328
0.25750,0.9099399482
0.25800,0.6047455405
0.25850,0.6047455405
0.25900,1.215134356
0.25950,1.520328764
0.26000,0.6047455405
0.26050,-0.3108376826
0.26100,-0.6160320903
0.26150,-0.3108376826
0.26200,-0.6160320903
0.26250,-0.3108376826
0.26300,0.2995511328
0.26350,1.215134356
0.26400,1.215134356
0.26450,-0.005643274905
0.26500,-0.6160320903
0.26550,-0.6160320903
0.26600,0.2995511328
0.26650,1.520328764
0.26700,1.825523171
0.26750,0.9099399482
0.26800,-0.005643274905
0.26850,-0.005643274905
0.26900,1.215134356
0.26950,1.520328764
0.27000,0.2995511328
0.27050,-0.921226498
0.27100,-0.921226498
0.27150,0.2995511328
0.27200,0.9099399482
0.27250,0.2995511328
0.27300,-0.005643274905
0.27350,-0.005643274905
0.27400,0.6047455405
0.27450,-0.005643274905
0.27500,-0.6160320903
0.27550,-1.226420906
0.27600,-0.6160320903
0.27650,0.2995511328
0.27700,0.9099399482
0.27750,0.6047455405
0.27800,0.6047455405
0.27850,0.9099399482
0.27900,0.9099399482
0.27950,-0.005643274905
0.28000,-0.6160320903
0.28050,-1.226420906
0.28100,-0.921226498
0.28150,-0.6160320903
0.28200,-0.6160320903
0.28250,-0.6160320903
0.28300,-0.005643274905
0.28350,0.6047455405
0.28400,-0.005643274905
0.28450,-0.921226498
0.28500,-1.226420906
0.28550,-0.3108376826
0.28600,-0.005643274905
0.28650,-0.005643274905
0.28700,-0.3108376826
0.28750,-0.005643274905
0.28800,0.2995511328
0.28850,-0.005643274905
0.28900,-0.921226498
0.28950,-1.226420906
0.29000,-0.921226498
0.29050,-0.005643274905
0.29100,0.2995511328
0.29150,-0.005643274905
0.29200,-0.921226498
0.29250,-1.226420906
0.29300,-0.6160320903
0.29350,0.2995511328
0.29400,0.9099399482
0.29450,0.9099399482
0.29500,0.2995511328
0.29550,-0.3108376826
0.29600,-0.6160320903
0.29650,-0.3108376826
0.29700,-0.005643274905
0.29750,-0.005643274905
0.29800,-0.005643274905
0.29850,-0.005643274905
0.29900,0.2995511328
0.29950,0.9099399482
0.30000,0.9099399482
0.30050,0.6047455405
0.30100,0.6047455405
0.30150,1.825523171
0.30200,3.046300802
0.30250,3.046300802
0.30300,1.520328764
0.30350,0.6047455405
0.30400,1.215134356
0.30450,2.130717579
0.30500,1.215134356
0.30550,-0.6160320903
0.30600,-1.531615313
0.30650,-0.005643274905
0.30700,1.520328764
0.30750,0.6047455405
0.30800,-0.921226498
0.30850,-1.836809721
0.30900,-1.226420906
0.30950,-1.226420906
0.31000,-2.142004129
0.31050,-2.752392944
0.31100,-2.447198537
0.31150,-1.531615313
0.31200,-0.6160320903
0.31250,-0.005643274905
0.31300,0.6047455405
0.31350,1.520328764
0.31400,2.435911987
0.31450,3.35149521
0.31500,3.046300802
0.31550,1.520328764
0.31600,0.6047455405
0.31650,-0.005643274905
0.31700,-0.005643274905
0.31750,-0.3108376826
0.31800,-0.005643274905
0.31850,0.6047455405
0.31900,1.520328764
0.31950,1.215134356
0.32000,-0.005643274905
0.32050,-0.005643274905
0.32100,-0.005643274905
0.32150,-0.005643274905
0.32200,-0.921226498
0.32250,-1.531615313
0.32300,-1.836809721
0.32350,-1.836809721
0.32400,-2.142004129
0.32450,-2.142004129
0.32500,-2.142004129
0.32550,-0.921226498
0.32600,-0.005643274905
0.32650,-0.005643274905
0.32700,-1.531615313
0.32750,-2.752392944
0.32800,-2.142004129
0.32850,-0.005643274905
0.32900,1.825523171
0.32950,1.825523171
0.33000,0.9099399482
0.33050,0.6047455405
0.33100,0.2995511328
0.33150,-0.3108376826
0.33200,-1.836809721
0.33250,-2.142004129
0.33300,-0.921226498
0.33350,-0.005643274905
0.33400,-0.005643274905
0.33450,-0.6160320903
0.33500,-1.531615313
0.33550,-1.836809721
0.33600,-1.836809721
0.33650,-1.531615313
0.33700,-1.226420906
0.33750,-0.6160320903
0.33800,-0.3108376826
0.33850,0.6047455405
0.33900,1.825523171
0.33950,2.741106394
0.34000,2.435911987
0.34050,1.520328764
0.34100,0.9099399482
0.34150,0.2995511328
0.34200,-0.3108376826
0.34250,-1.226420906
0.34300,-2.142004129
0.34350,-2.752392944
0.34400,-3.36278176
0.34450,-3.36278176
0.34500,-2.752392944
0.34550,-2.447198537
0.34600,-2.752392944
0.34650,-2.752392944
0.34700,-1.531615313
0.34750,-0.005643274905
0.34800,0.6047455405
0.34850,-0.005643274905
0.34900,-0.005643274905
0.34950,0.9099399482
0.35000,1.520328764
0.35050,0.9099399482
0.35100,0.2995511328
0.35150,0.2995511328
0.35200,0.9099399482
0.35250,0.9099399482
0.35300,0.6047455405
0.35350,0.2995511328
0.35400,-0.005643274905
0.35450,-0.6160320903
0.35500,-0.005643274905
0.35550,0.6047455405
0.35600,0.6047455405
0.35650,-0.005643274905
0.35700,-0.005643274905
0.35750,-0.005643274905
0.35800,-0.005643274905
0.35850,-0.3108376826
0.35900,-0.6160320903
0.35950,-0.6160320903
0.36000,-0.6160320903
0.36050,-0.6160320903
0.36100,-0.005643274905
0.36150,0.9099399482
0.36200,1.215134356
0.36250,0.6047455405
0.36300,0.2995511328
0.36350,1.215134356
0.36400,1.520328764
0.36450,0.9099399482
0.36500,-0.005643274905
0.36550,-0.005643274905
0.36600,0.2995511328
0.36650,0.6047455405
0.36700,0.2995511328
0.36750,-0.005643274905
0.36800,-0.6160320903
0.36850,-1.226420906
0.36900,-0.6160320903
0.36950,0.9099399482
0.37000,2.130717579
0.37050,1.520328764
0.37100,0.2995511328
0.37150,0.2995511328
0.37200,0.6047455405
0.37250,0.2995511328
0.37300,-0.005643274905
0.37350,0.2995511328
0.37400,0.6047455405
0.37450,0.2995511328
0.37500,-0.3108376826
0.37550,-0.005643274905
0.37600,0.9099399482
0.37650,1.520328764
0.37700,1.215134356
0.37750,0.9099399482
0.37800,0.9099399482
0.37850,1.215134356
0.37900,1.215134356
0.37950,1.215134356
0.38000,1.215134356
0.38050,0.6047455405
0.38100,-0.005643274905
0.38150,-0.005643274905
0.38200,0.6047455405
0.38250,0.6047455405
0.38300,-0.005643274905
0.38350,-0.005643274905
0.38400,0.6047455405
0.38450,0.2995511328
0.38500,-0.6160320903
0.38550,-0.921226498
0.38600,-0.3108376826
0.38650,-0.3108376826
0.38700,-1.226420906
0.38750,-1.226420906
0.38800,-0.005643274905
0.38850,0.9099399482
0.38900,0.2995511328
0.38950,-0.3108376826
0.39000,-0.005643274905
0.39050,0.2995511328
0.39100,-0.3108376826
0.39150,-1.531615313
0.39200,-0.6160320903
0.39250,0.6047455405
0.39300,0.9099399482
0.39350,0.2995511328
0.39400,-0.005643274905
0.39450,-0.005643274905
0.39500,-1.531615313
0.39550,-2.447198537
0.39600,-1.531615313
0.39650,-0.005643274905
0.39700,-0.005643274905
0.39750,-0.6160320903
0.39800,-0.921226498
0.39850,-0.3108376826
0.39900,-0.6160320903
0.39950,-1.226420906
0.40000,-0.3108376826
0.40050,0.9099399482
0.40100,1.215134356
0.40150,-0.005643274905
0.40200,-0.6160320903
0.40250,-0.3108376826
0.40300,-0.005643274905
0.40350,-0.6160320903
0.40400,-0.6160320903
0.40450,0.2995511328
0.40500,1.825523171
0.40550,1.520328764
0.40600,-0.005643274905
0.40650,-1.226420906
0.40700,-0.921226498
0.40750,-0.005643274905
0.40800,-0.3108376826
0.40850,-1.226420906
0.40900,-1.226420906
0.40950,-0.005643274905
0.41000,0.6047455405
0.41050,0.9099399482
0.41100,0.9099399482
0.41150,1.215134356
0.41200,1.215134356
0.41250,0.6047455405
0.41300,0.2995511328
0.41350,0.9099399482
0.41400,1.825523171
0.41450,1.825523171
0.41500,0.6047455405
0.41550,0.6047455405
0.41600,1.215134356
0.41650,1.215134356
0.41700,-0.005643274905
0.41750,-1.531615313
0.41800,-1.531615313
0.41850,-1.226420906
0.41900,-0.6160320903
0.41950,-0.005643274905
0.42000,0.2995511328
0.42050,0.2995511328
0.42100,-0.005643274905
0.42150,-0.921226498
0.42200,-1.226420906
0.42250,-0.3108376826
0.42300,-0.005643274905
0.42350,-0.005643274905
0.42400,-0.3108376826
0.42450,-0.921226498
0.42500,-0.005643274905
0.42550,1.825523171
0.42600,2.741106394
0.42650,1.520328764
0.42700,-0.005643274905
0.42750,-0.005643274905
0.42800,0.6047455405
0.42850,0.2995511328
0.42900,-0.3108376826
0.42950,-0.6160320903
0.43000,-0.005643274905
0.43050,-0.005643274905
0.43100,-0.6160320903
0.43150,-1.226420906
0.43200,-1.226420906
0.43250,-0.6160320903
0.43300,-0.6160320903
0.43350,-1.226420906
0.43400,-1.836809721
0.43450,-1.226420906
0.43500,-0.005643274905
0.43550,0.6047455405
0.43600,-0.005643274905
0.43650,-0.3108376826
0.43700,-0.3108376826
0.43750,0.2995511328
0.43800,0.2995511328
0.43850,-0.005643274905
0.43900,-0.005643274905
0.43950,0.2995511328
0.44000,0.2995511328
0.44050,-0.005643274905
0.44100,0.6047455405
0.44150,1.825523171
0.44200,2.435911987
0.44250,2.130717579
0.44300,2.130717579
0.44350,2.130717579
0.44400,1.520328764
0.44450,0.9099399482
0.44500,0.2995511328
0.44550,-0.005643274905
0.44600,-1.226420906
0.44650,-2.447198537
0.44700,-2.752392944
0.44750,-2.142004129
0.44800,-1.836809721
0.44850,-2.142004129
0.44900,-1.836809721
0.44950,-1.226420906
0.45000,-0.921226498
0.45050,-1.226420906
0.45100,-0.921226498
0.45150,-0.005643274905
0.45200,0.6047455405
0.45250,0.9099399482
0.45300,0.9099399482
0.45350,1.215134356
0.45400,1.215134356
0.45450,1.825523171
0.45500,2.435911987
0.45550,2.741106394
0.45600,2.741106394
0.45650,3.046300802
0.45700,4.267078433
0.45750,5.182661656
0.45800,3.961884025
0.45850,2.130717579
0.45900,1.825523171
0.45950,2.130717579
0.46000,0.9099399482
0.46050,-0.921226498
0.46100,-2.142004129
0.46150,-1.836809721
0.46200,-1.836809721
0.46250,-2.752392944
0.46300,-2.752392944
0.46350,-2.142004129
0.46400,-2.142004129
0.46450,-3.36278176
0.46500,-3.973170575
0.46550,-3.057587352
0.46600,-1.836809721
0.46650,-0.921226498
0.46700,-0.005643274905
0.46750,-0.005643274905
0.46800,-0.005643274905
0.46850,-0.6160320903
0.46900,-0.6160320903
0.46950,-0.005643274905
0.47000,0.2995511328
0.47050,-0.3108376826
0.47100,-0.3108376826
0.47150,0.6047455405
0.47200,1.825523171
0.47250,1.520328764
0.47300,0.2995511328
0.47350,-0.3108376826
0.47400,-0.3108376826
0.47450,-0.005643274905
0.47500,0.2995511328
0.47550,0.2995511328
0.47600,-0.3108376826
0.47650,-1.531615313
0.47700,-1.836809721
0.47750,-1.226420906
0.47800,-0.3108376826
0.47850,-0.005643274905
0.47900,-0.3108376826
0.47950,-0.005643274905
0.48000,-0.005643274905
0.48050,0.2995511328
0.48100,0.2995511328
0.48150,-0.005643274905
0.48200,-0.921226498
0.48250,-1.226420906
0.48300,-0.921226498
0.48350,-0.3108376826
0.48400,-0.3108376826
0.48450,-0.3108376826
0.48500,-0.005643274905
0.48550,0.2995511328
0.48600,0.2995511328
0.48650,0.9099399482
0.48700,1.825523171
0.48750,1.825523171
0.48800,-0.005643274905
0.48850,-1.226420906
0.48900,-0.3108376826
0.48950,1.215134356
0.49000,1.215134356
0.49050,-0.3108376826
0.49100,-1.226420906
0.49150,-0.3108376826
0.49200,0.2995511328
0.49250,-0.005643274905
0.49300,-0.3108376826
0.49350,-0.3108376826
0.49400,-0.3108376826
0.49450,-0.6160320903
0.49500,-0.921226498
0.49550,-0.005643274905
0.49600,0.6047455405
0.49650,-0.005643274905
0.49700,-0.6160320903
0.49750,-0.6160320903
0.49800,-0.3108376826
0.49850,-0.005643274905
0.49900,-0.3108376826
0.49950,-0.005643274905
0.50000,-0.005643274905
0.50050,-0.005643274905
0.50100,-0.005643274905
0.50150,-0.3108376826
0.50200,-0.005643274905
0.50250,0.6047455405
0.50300,1.215134356
0.50350,1.215134356
0.50400,0.6047455405
0.50450,0.2995511328
0.50500,0.9099399482
0.50550,1.520328764
0.50600,1.215134356
0.50650,0.6047455405
0.50700,0.2995511328
0.50750,0.2995511328
0.50800,-0.005643274905
0.50850,-0.005643274905
0.50900,0.6047455405
0.50950,1.520328764
0.51000,1.215134356
0.51050,-0.005643274905
0.51100,-0.3108376826
0.51150,-0.005643274905
0.51200,0.2995511328
0.51250,0.2995511328
0.51300,-0.005643274905
0.51350,-0.3108376826
0.51400,-0.6160320903
0.51450,-0.3108376826
0.51500,-0.005643274905
0.51550,-0.005643274905
0.51600,-0.005643274905
0.51650,-0.005643274905
0.51700,0.2995511328
0.51750,0.6047455405
0.51800,-0.005643274905
0.51850,-0.005643274905
0.51900,-0.005643274905
0.51950,0.2995511328
0.52000,-0.005643274905
0.52050,-0.005643274905
0.52100,-0.3108376826
0.52150,-0.005643274905
0.52200,-0.005643274905
0.52250,-0.005643274905
0.52300,-0.005643274905
0.52350,-0.005643274905
0.52400,-0.005643274905
0.52450,0.2995511328
0.52500,0.2995511328
0.52550,0.2995511328
0.52600,-0.005643274905
0.52650,-0.005643274905
0.52700,-0.005643274905
0.52750,-0.005643274905
0.52800,-0.005643274905
0.52850,0.2995511328
0.52900,0.9099399482
0.52950,0.9099399482
0.53000,-0.005643274905
0.53050,-0.3108376826
0.53100,-0.3108376826
0.53150,-0.005643274905
0.53200,-0.005643274905
0.53250,-0.005643274905
0.53300,0.6047455405
0.53350,1.215134356
0.53400,1.520328764
0.53450,0.9099399482
0.53500,-0.3108376826
0.53550,-1.836809721
0.53600,-1.531615313
0.53650,-0.6160320903
0.53700,-0.3108376826
0.53750,-0.921226498
0.53800,-1.531615313
0.53850,-0.921226498
0.53900,-0.005643274905
0.53950,0.2995511328
0.54000,0.6047455405
0.54050,0.9099399482
0.54100,0.9099399482
0.54150,-0.005643274905
0.54200,-0.921226498
0.54250,-0.6160320903
0.54300,0.2995511328
0.54350,0.6047455405
0.54400,-0.005643274905
0.54450,-0.921226498
0.54500,-0.921226498
0.54550,-0.6160320903
0.54600,-0.3108376826
0.54650,-0.3108376826
0.54700,-0.6160320903
0.54750,-0.6160320903
0.54800,-0.6160320903
0.54850,-0.921226498
0.54900,-1.836809721
0.54950,-2.142004129
0.55000,-1.531615313
0.55050,-0.005643274905
0.55100,1.215134356
0.55150,0.2995511328
0.55200,-0.6160320903
0.55250,-0.6160320903
0.55300,-0.3108376826
0.55350,-0.921226498
0.55400,-1.531615313
0.55450,-0.6160320903
0.55500,0.6047455405
0.55550,0.2995511328
0.55600,-0.6160320903
0.55650,-0.6160320903
0.55700,0.2995511328
0.55750,1.215134356
0.55800,-0.005643274905
0.55850,-0.3108376826
0.55900,0.2995511328
0.55950,1.520328764
0.56000,0.9099399482
0.56050,-0.3108376826
0.56100,-1.226420906
0.56150,-1.531615313
0.56200,-1.836809721
0.56250,-1.226420906
0.56300,0.2995511328
0.56350,1.215134356
0.56400,-0.005643274905
0.56450,-1.226420906
0.56500,-0.005643274905
0.56550,3.046300802
0.56600,4.267078433
0.56650,2.741106394
0.56700,0.9099399482
0.56750,1.215134356
0.56800,2.741106394
0.56850,3.35149521
0.56900,3.35149521
0.56950,3.35149521
0.57000,3.046300802
0.57050,1.215134356
0.57100,-0.921226498
0.57150,-2.447198537
0.57200,-2.142004129
0.57250,-0.921226498
0.57300,-1.226420906
0.57350,-3.057587352
0.57400,-3.973170575
0.57450,-2.752392944
0.57500,-0.6160320903
0.57550,-0.005643274905
0.57600,-0.3108376826
0.57650,-0.005643274905
0.57700,0.6047455405
0.57750,0.6047455405
0.57800,-0.921226498
0.57850,-2.142004129
0.57900,-1.226420906
0.57950,-0.005643274905
0.58000,0.2995511328
0.58050,-0.3108376826
0.58100,-1.226420906
0.58150,-1.531615313
0.58200,-1.226420906
0.58250,-0.3108376826
0.58300,-0.005643274905
0.58350,-0.005643274905
0.58400,-0.921226498
0.58450,-1.226420906
0.58500,-0.6160320903
0.58550,-0.005643274905
0.58600,-0.005643274905
0.58650,-0.005643274905
0.58700,-0.005643274905
0.58750,-0.005643274905
0.58800,-0.005643274905
0.58850,0.6047455405
0.58900,1.520328764
0.58950,1.215134356
0.59000,-0.005643274905
0.59050,-0.6160320903
0.59100,-0.005643274905
0.59150,0.9099399482
0.59200,0.6047455405
0.59250,-0.005643274905
0.59300,-0.005643274905
0.59350,0.6047455405
0.59400,0.9099399482
0.59450,0.2995511328
0.59500,-0.3108376826
0.59550,-0.921226498
0.59600,-0.921226498
0.59650,-0.6160320903
0.59700,-0.005643274905
0.59750,-0.005643274905
0.59800,-0.921226498
0.59850,-1.226420906
0.59900,-0.6160320903
0.59950,0.2995511328
0.60000,0.2995511328
0.60050,-0.3108376826
0.60100,-1.226420906
0.60150,-1.226420906
0.60200,-0.921226498
0.60250,-0.6160320903
0.60300,-0.3108376826
0.60350,-0.3108376826
0.60400,-0.3108376826
0.60450,-0.3108376826
0.60500,-0.3108376826
0.60550,-0.3108376826
0.60600,-0.3108376826
0.60650,-0.921226498
0.60700,-0.921226498
0.60750,-0.6160320903
0.60800,-0.005643274905
0.60850,-0.005643274905
0.60900,-0.005643274905
0.60950,-0.3108376826
0.61000,0.2995511328
0.61050,1.520328764
0.61100,2.435911987
0.61150,2.130717579
0.61200,0.6047455405
0.61250,-0.3108376826
0.61300,-0.3108376826
0.61350,-0.005643274905
0.61400,0.6047455405
0.61450,0.6047455405
0.61500,-0.005643274905
0.61550,0.6047455405
0.61600,1.520328764
0.61650,2.130717579
0.61700,1.215134356
0.61750,-0.005643274905
0.61800,-0.921226498
0.61850,-0.6160320903
0.61900,0.2995511328
0.61950,1.215134356
0.62000,0.9099399482
0.62050,-0.005643274905
0.62100,-0.3108376826
0.62150,0.2995511328
0.62200,1.215134356
0.62250,0.9099399482
0.62300,-0.005643274905
0.62350,-0.3108376826
0.62400,-0.005643274905
0.62450,-0.005643274905
0.62500,-0.6160320903
0.62550,-0.3108376826
0.62600,0.2995511328
0.62650,0.6047455405
0.62700,-0.005643274905
0.62750,-0.3108376826
0.62800,0.2995511328
0.62850,1.825523171
0.62900,1.520328764
0.62950,0.6047455405
0.63000,0.9099399482
0.63050,2.130717579
0.63100,2.435911987
0.63150,1.520328764
0.63200,-0.005643274905
0.63250,-0.921226498
0.63300,-2.142004129
0.63350,-2.447198537
0.63400,-1.531615313
0.63450,-0.6160320903
0.63500,-0.921226498
0.63550,-2.142004129
0.63600,-2.142004129
0.63650,-0.921226498
0.63700,-0.005643274905
0.63750,0.9099399482
0.63800,0.9099399482
0.63850,0.9099399482
0.63900,-0.005643274905
0.63950,-0.6160320903
0.64000,-0.3108376826
0.64050,-0.005643274905
0.64100,0.2995511328
0.64150,0.2995511328
0.64200,0.9099399482
0.64250,1.215134356
0.64300,0.2995511328
0.64350,-0.921226498
0.64400,-1.836809721
0.64450,-1.226420906
0.64500,-0.3108376826
0.64550,-0.005643274905
0.64600,1.215134356
0.64650,2.130717579
0.64700,1.825523171
0.64750,0.9099399482
0.64800,-0.005643274905
0.64850,0.6047455405
0.64900,0.9099399482
0.64950,0.6047455405
0.65000,-0.005643274905
0.65050,-0.6160320903
0.65100,-0.6160320903
0.65150,-0.3108376826
0.65200,-0.005643274905
0.65250,-0.005643274905
0.65300,0.2995511328
0.65350,0.6047455405
0.65400,0.6047455405
0.65450,0.2995511328
0.65500,-0.005643274905
0.65550,-0.005643274905
0.65600,0.2995511328
0.65650,0.2995511328
0.65700,-0.005643274905
0.65750,-0.005643274905
0.65800,0.2995511328
0.65850,0.2995511328
0.65900,-0.005643274905
0.65950,-0.005643274905
0.66000,-0.005643274905
0.66050,-0.6160320903
0.66100,-1.226420906
0.66150,-0.6160320903
0.66200,1.215134356
0.66250,1.520328764
0.66300,-0.005643274905
0.66350,-1.836809721
0.66400,-1.226420906
0.66450,-0.005643274905
0.66500,-0.005643274905
0.66550,-1.226420906
0.66600,-0.921226498
0.66650,0.2995511328
0.66700,0.6047455405
0.66750,-0.3108376826
0.66800,-0.3108376826
0.66850,0.6047455405
0.66900,1.215134356
0.66950,-0.005643274905
0.67000,-0.6160320903
0.67050,0.2995511328
0.67100,1.215134356
0.67150,0.2995511328
0.67200,-0.921226498
0.67250,-0.005643274905
0.67300,1.215134356
0.67350,0.6047455405
0.67400,-0.6160320903
0.67450,-0.6160320903
0.67500,0.9099399482
0.67550,1.520328764
0.67600,0.2995511328
0.67650,-0.3108376826
0.67700,-0.005643274905
0.67750,0.9099399482
0.67800,0.6047455405
0.67850,-0.005643274905
0.67900,-0.005643274905
0.67950,0.2995511328
0.68000,0.9099399482
0.68050,1.215134356
0.68100,0.9099399482
0.68150,0.9099399482
0.68200,0.6047455405
0.68250,0.6047455405
0.68300,0.9099399482
0.68350,0.9099399482
0.68400,0.2995511328
0.68450,-0.005643274905
0.68500,-0.005643274905
0.68550,-0.005643274905
0.68600,-0.6160320903
0.68650,-1.226420906
0.68700,-1.226420906
0.68750,-0.921226498
0.68800,-0.3108376826
0.68850,-0.005643274905
0.68900,-0.005643274905
0.68950,-0.005643274905
0.69000,-0.3108376826
0.69050,-0.6160320903
0.69100,-0.6160320903
0.69150,-0.005643274905
0.69200,0.2995511328
0.69250,-0.005643274905
0.69300,-0.6160320903
0.69350,-0.6160320903
0.69400,0.6047455405
0.69450,2.130717579
0.69500,2.130717579
0.69550,0.6047455405
0.69600,0.2995511328
0.69650,1.520328764
0.69700,2.435911987
0.69750,1.825523171
0.69800,0.6047455405
0.69850,0.2995511328
0.69900,0.6047455405
0.69950,0.6047455405
0.70000,-0.005643274905
0.70050,-0.6160320903
0.70100,-1.531615313
0.70150,-2.447198537
0.70200,-3.057587352
0.70250,-3.667976167
0.70300,-3.36278176
0.70350,-2.752392944
0.70400,-1.226420906
0.70450,-0.6160320903
0.70500,-1.226420906
0.70550,-2.142004129
0.70600,-1.531615313
0.70650,-0.005643274905
0.70700,1.215134356
0.70750,1.215134356
0.70800,1.215134356
0.70850,1.825523171
0.70900,1.825523171
0.70950,0.6047455405
0.71000,-0.3108376826
0.71050,-0.005643274905
0.71100,-0.3108376826
0.71150,-1.226420906
0.71200,-1.226420906
0.71250,-0.005643274905
0.71300,1.215134356
0.71350,0.6047455405
0.71400,-1.226420906
0.71450,-2.447198537
0.71500,-1.836809721
0.71550,-0.921226498
0.71600,-0.005643274905
0.71650,0.9099399482
0.71700,1.215134356
0.71750,-0.005643274905
0.71800,-1.531615313
0.71850,-1.531615313
0.71900,-0.6160320903
0.71950,-0.921226498
0.72000,-2.142004129
0.72050,-2.142004129
0.72100,-0.6160320903
0.72150,-0.005643274905
0.72200,-1.226420906
0.72250,-2.142004129
0.72300,-1.226420906
0.72350,0.2995511328
0.72400,0.2995511328
0.72450,-0.005643274905
0.72500,-0.005643274905
0.72550,0.6047455405
0.72600,1.520328764
0.72650,1.825523171
0.72700,1.825523171
0.72750,1.215134356
0.72800,-0.005643274905
0.72850,-1.226420906
0.72900,-0.6160320903
0.72950,-0.005643274905
0.73000,-0.005643274905
0.73050,-0.921226498
0.73100,-0.6160320903
0.73150,0.2995511328
0.73200,1.520328764
0.73250,0.9099399482
0.73300,-0.005643274905
0.73350,-0.3108376826
0.73400,-0.3108376826
0.73450,-0.005643274905
0.73500,-0.005643274905
0.73550,-0.005643274905
0.73600,-0.005643274905
0.73650,0.6047455405
0.73700,1.215134356
0.73750,1.215134356
0.73800,0.2995511328
0.73850,0.2995511328
0.73900,1.215134356
0.73950,2.435911987
0.74000,2.435911987
0.74050,1.825523171
0.74100,1.520328764
0.74150,1.215134356
0.74200,0.6047455405
0.74250,-0.005643274905
0.74300,-0.005643274905
0.74350,0.6047455405
0.74400,0.2995511328
0.74450,-0.6160320903
0.74500,-1.531615313
0.74550,-1.226420906
0.74600,-0.6160320903
0.74650,-0.005643274905
0.74700,0.2995511328
0.74750,0.2995511328
0.74800,-0.005643274905
0.74850,0.2995511328
0.74900,0.6047455405
0.74950,0.2995511328
0.75000,-0.6160320903
0.75050,-0.921226498
0.75100,-0.005643274905
0.75150,1.215134356
0.75200,0.9099399482
0.75250,-0.3108376826
0.75300,-1.226420906
0.75350,-1.531615313
0.75400,-1.226420906
0.75450,-0.921226498
0.75500,-0.005643274905
0.75550,0.6047455405
0.75600,0.2995511328
0.75650,-0.005643274905
0.75700,-0.005643274905
0.75750,-0.005643274905
0.75800,-0.3108376826
0.75850,-0.6160320903
0.75900,-0.3108376826
0.75950,-0.005643274905
0.76000,-0.005643274905
0.76050,-1.226420906
0.76100,-1.226420906
0.76150,-0.005643274905
0.76200,0.2995511328
0.76250,0.2995511328
0.76300,-0.005643274905
0.76350,0.6047455405
0.76400,1.215134356
0.76450,2.130717579
0.76500,3.961884025
0.76550,6.098244879
0.76600,7.31902251
0.76650,6.403439287
0.76700,4.572272841
0.76750,3.656689618
0.76800,3.35149521
0.76850,2.741106394
0.76900,1.215134356
0.76950,-0.921226498
0.77000,-2.752392944
0.77050,-4.278364983
0.77100,-4.888753798
0.77150,-5.193948206
0.77200,-5.499142614
0.77250,-6.109531429
0.77300,-6.109531429
0.77350,-5.499142614
0.77400,-3.973170575
0.77450,-2.142004129
0.77500,-0.6160320903
0.77550,-0.005643274905
0.77600,0.2995511328
0.77650,-0.005643274905
0.77700,-0.3108376826
0.77750,-0.3108376826
0.77800,-0.005643274905
0.77850,-0.005643274905
0.77900,-1.226420906
0.77950,-2.447198537
0.78000,-2.142004129
0.78050,-1.531615313
0.78100,-1.836809721
0.78150,-3.36278176
0.78200,-4.278364983
0.78250,-3.667976167
0.78300,-3.057587352
0.78350,-2.752392944
0.78400,-2.447198537
0.78450,-2.142004129
0.78500,-1.531615313
0.78550,-0.921226498
0.78600,-0.3108376826
0.78650,1.215134356
0.78700,2.741106394
0.78750,3.046300802
0.78800,2.435911987
0.78850,1.520328764
0.78900,1.215134356
0.78950,0.9099399482
0.79000,0.6047455405
0.79050,-0.005643274905
0.79100,-0.005643274905
0.79150,0.6047455405
0.79200,1.825523171
0.79250,1.825523171
0.79300,0.2995511328
0.79350,-1.226420906
0.79400,-1.226420906
0.79450,-0.005643274905
0.79500,1.215134356
0.79550,0.9099399482
0.79600,-0.005643274905
0.79650,-0.3108376826
0.79700,-0.005643274905
0.79750,-0.005643274905
0.79800,0.2995511328
0.79850,0.6047455405
0.79900,0.6047455405
0.79950,-0.005643274905
0.80000,-0.921226498
0.80050,-0.921226498
0.80100,-0.3108376826
0.80150,-0.3108376826
0.80200,-0.3108376826
0.80250,-0.005643274905
0.80300,0.2995511328
0.80350,0.6047455405
0.80400,-0.005643274905
0.80450,-0.3108376826
0.80500,-0.005643274905
0.80550,0.6047455405
0.80600,1.520328764
0.80650,2.130717579
0.80700,2.741106394
0.80750,3.046300802
0.80800,2.130717579
0.80850,0.6047455405
0.80900,0.2995511328
0.80950,1.520328764
0.81000,1.825523171
0.81050,0.6047455405
0.81100,-0.3108376826
0.81150,-0.005643274905
0.81200,1.520328764
0.81250,1.520328764
0.81300,-0.005643274905
0.81350,-0.921226498
0.81400,-0.005643274905
0.81450,-0.005643274905
0.81500,-0.6160320903
0.81550,-1.226420906
0.81600,0.2995511328
0.81650,2.130717579
0.81700,1.215134356
0.81750,-0.3108376826
0.81800,-0.6160320903
0.81850,0.6047455405
0.81900,1.215134356
0.81950,0.2995511328
0.82000,-0.005643274905
0.82050,0.2995511328
0.82100,0.6047455405
0.82150,0.6047455405
0.82200,0.9099399482
0.82250,1.825523171
0.82300,1.520328764
0.82350,0.2995511328
0.82400,-0.6160320903
0.82450,-0.005643274905
0.82500,0.9099399482
0.82550,0.2995511328
0.82600,-0.921226498
0.82650,-1.531615313
0.82700,-0.921226498
0.82750,-0.005643274905
0.82800,1.520328764
0.82850,1.520328764
0.82900,-0.005643274905
0.82950,-1.226420906
0.83000,-0.921226498
0.83050,-0.005643274905
0.83100,0.2995511328
0.83150,-0.005643274905
0.83200,-0.3108376826
0.83250,0.2995511328
0.83300,1.520328764
0.83350,0.9099399482
0.83400,-0.005643274905
0.83450,-0.005643274905
0.83500,0.9099399482
0.83550,0.9099399482
0.83600,0.6047455405
0.83650,0.6047455405
0.83700,0.9099399482
0.83750,-0.005643274905
0.83800,-1.531615313
0.83850,-1.226420906
0.83900,0.9099399482
0.83950,3.046300802
0.84000,3.35149521
0.84050,2.435911987
0.84100,2.130717579
0.84150,1.825523171
0.84200,0.6047455405
0.84250,-0.6160320903
0.84300,-0.6160320903
0.84350,-0.005643274905
0.84400,0.2995511328
0.84450,-0.005643274905
0.84500,-0.005643274905
0.84550,0.2995511328
0.84600,0.6047455405
0.84650,1.215134356
0.84700,2.130717579
0.84750,3.35149521
0.84800,3.35149521
0.84850,2.435911987
0.84900,2.130717579
0.84950,3.961884025
0.85000,7.31902251
0.85050,10.06577218
0.85100,10.9813554
0.85150,10.06577218
0.85200,7.31902251
0.85250,3.35149521
0.85300,-0.005643274905
0.85350,-2.142004129
0.85400,-3.36278176
0.85450,-4.888753798
0.85500,-7.33030906
0.85550,-10.38225314
0.85600,-12.8238084
0.85650,-13.73939162
0.85700,-13.12900281
0.85750,-11.60303077
0.85800,-9.771864321
0.85850,-8.856281098
0.85900,-8.551086691
0.85950,-7.33030906
0.86000,-5.193948206
0.86050,-3.667976167
0.86100,-2.447198537
0.86150,-1.836809721
0.86200,-0.6160320903
0.86250,-0.005643274905
0.86300,-0.005643274905
0.86350,-0.005643274905
0.86400,-0.6160320903
0.86450,-1.226420906
0.86500,-1.226420906
0.86550,-0.005643274905
0.86600,1.825523171
0.86650,2.741106394
0.86700,1.825523171
0.86750,0.6047455405
0.86800,0.6047455405
0.86850,0.9099399482
0.86900,-0.005643274905
0.86950,-1.531615313
0.87000,-2.447198537
0.87050,-1.226420906
0.87100,0.9099399482
0.87150,2.130717579
0.87200,1.520328764
0.87250,0.9099399482
0.87300,1.215134356
0.87350,1.520328764
0.87400,1.520328764
0.87450,0.9099399482
0.87500,0.2995511328
0.87550,0.2995511328
0.87600,0.6047455405
0.87650,0.6047455405
0.87700,0.2995511328
0.87750,-0.3108376826
0.87800,-0.6160320903
0.87850,0.2995511328
0.87900,1.825523171
0.87950,1.825523171
0.88000,0.9099399482
0.88050,1.215134356
0.88100,2.130717579
0.88150,1.825523171
0.88200,0.2995511328
0.88250,-0.6160320903
0.88300,-0.005643274905
0.88350,0.9099399482
0.88400,0.9099399482
0.88450,0.2995511328
0.88500,0.2995511328
0.88550,0.9099399482
0.88600,0.9099399482
0.88650,0.6047455405
0.88700,0.2995511328
0.88750,-0.005643274905
0.88800,0.2995511328
0.88850,0.9099399482
0.88900,1.520328764
0.88950,1.825523171
0.89000,1.825523171
0.89050,1.520328764
0.89100,0.9099399482
0.89150,-0.005643274905
0.89200,-0.005643274905
0.89250,0.6047455405
0.89300,0.2995511328
0.89350,-0.3108376826
0.89400,-0.3108376826
0.89450,1.215134356
0.89500,2.741106394
0.89550,2.435911987
0.89600,1.215134356
0.89650,0.9099399482
0.89700,1.520328764
0.89750,0.6047455405
0.89800,-0.921226498
0.89850,-1.531615313
0.89900,-1.226420906
0.89950,-0.6160320903
0.90000,-0.921226498
0.90050,-0.6160320903
0.90100,0.2995511328
0.90150,0.9099399482
0.90200,0.2995511328
0.90250,-0.3108376826
0.90300,-0.3108376826
0.90350,-0.005643274905
0.90400,0.2995511328
0.90450,-0.005643274905
0.90500,0.2995511328
0.90550,1.215134356
0.90600,2.130717579
0.90650,2.435911987
0.90700,2.130717579
0.90750,1.520328764
0.90800,0.9099399482
0.90850,0.6047455405
0.90900,1.825523171
0.90950,4.267078433
0.91000,5.487856064
0.91050,4.877467248
0.91100,3.046300802
0.91150,2.130717579
0.91200,2.130717579
0.91250,1.825523171
0.91300,1.520328764
0.91350,0.9099399482
0.91400,0.2995511328
0.91450,-0.3108376826
0.91500,-1.531615313
0.91550,-2.142004129
0.91600,-2.142004129
0.91650,-2.752392944
0.91700,-4.888753798
0.91750,-6.719920244
0.91800,-6.414725837
0.91850,-4.58355939
0.91900,-2.447198537
0.91950,-1.836809721
0.92000,-2.142004129
0.92050,-2.142004129
0.92100,-1.836809721
0.92150,-1.836809721
0.92200,-2.752392944
0.92250,-4.278364983
0.92300,-3.973170575
0.92350,-2.142004129
0.92400,-1.226420906
0.92450,-2.447198537
0.92500,-4.58355939
0.92550,-5.499142614
0.92600,-4.58355939
0.92650,-3.667976167
0.92700,-3.36278176
0.92750,-3.36278176
0.92800,-2.142004129
0.92850,-0.6160320903
0.92900,0.6047455405
0.92950,1.215134356
0.93000,1.520328764
0.93050,0.9099399482
0.93100,-0.005643274905
0.93150,-0.3108376826
0.93200,0.2995511328
0.93250,1.825523171
0.93300,2.435911987
0.93350,1.825523171
0.93400,0.2995511328
0.93450,-0.005643274905
0.93500,0.9099399482
0.93550,1.825523171
0.93600,1.825523171
0.93650,0.6047455405
0.93700,-0.005643274905
0.93750,-0.3108376826
0.93800,-0.005643274905
0.93850,0.9099399482
0.93900,1.215134356
0.93950,0.2995511328
0.94000,-0.6160320903
0.94050,-1.226420906
0.94100,-0.6160320903
0.94150,0.2995511328
0.94200,0.2995511328
0.94250,-0.005643274905
0.94300,-0.005643274905
0.94350,0.6047455405
0.94400,0.2995511328
0.94450,-0.3108376826
0.94500,-1.226420906
0.94550,-0.921226498
0.94600,-0.3108376826
0.94650,-0.005643274905
0.94700,-0.3108376826
0.94750,-0.3108376826
0.94800,-0.3108376826
0.94850,-0.6160320903
0.94900,-0.921226498
0.94950,-0.6160320903
0.95000,0.2995511328
0.95050,0.9099399482
0.95100,0.2995511328
0.95150,-0.005643274905
0.95200,-0.005643274905
0.95250,0.2995511328
0.95300,-0.005643274905
0.95350,-0.6160320903
0.95400,-0.6160320903
0.95450,-0.005643274905
0.95500,-0.005643274905
0.95550,-1.226420906
0.95600,-1.226420906
0.95650,-0.005643274905
0.95700,1.215134356
0.95750,0.9099399482
0.95800,0.6047455405
0.95850,0.9099399482
0.95900,0.9099399482
0.95950,-0.005643274905
0.96000,-1.226420906
0.96050,-0.3108376826
0.96100,0.6047455405
0.96150,0.6047455405
0.96200,0.2995511328
0.96250,0.6047455405
0.96300,1.215134356
0.96350,0.6047455405
0.96400,-0.3108376826
0.96450,-0.3108376826
0.96500,0.2995511328
0.96550,0.6047455405
0.96600,-0.005643274905
0.96650,-0.005643274905
0.96700,0.2995511328
0.96750,0.2995511328
0.96800,-0.005643274905
0.96850,-0.3108376826
0.96900,0.2995511328
0.96950,0.9099399482
0.97000,0.2995511328
0.97050,-0.005643274905
0.97100,-0.005643274905
0.97150,0.2995511328
0.97200,0.2995511328
0.97250,-0.3108376826
0.97300,-0.6160320903
0.97350,-0.005643274905
0.97400,0.9099399482
0.97450,0.9099399482
0.97500,-0.005643274905
0.97550,-0.6160320903
0.97600,-0.005643274905
0.97650,0.6047455405
0.97700,0.2995511328
0.97750,-0.3108376826
0.97800,-0.6160320903
0.97850,-0.6160320903
0.97900,-0.6160320903
0.97950,-0.6160320903
0.98000,-0.005643274905
0.98050,0.2995511328
0.98100,-0.3108376826
0.98150,-0.921226498
0.98200,-0.3108376826
0.98250,-0.005643274905
0.98300,-0.3108376826
0.98350,-0.921226498
0.98400,-0.005643274905
0.98450,1.520328764
0.98500,1.215134356
0.98550,-0.005643274905
0.98600,-0.005643274905
0.98650,0.9099399482
0.98700,1.215134356
0.98750,-0.005643274905
0.98800,-0.921226498
0.98850,-0.6160320903
0.98900,-0.3108376826
0.98950,-0.005643274905
0.99000,1.215134356
0.99050,1.825523171
0.99100,0.9099399482
0.99150,-0.6160320903
0.99200,-0.6160320903
0.99250,0.2995511328
0.99300,0.6047455405
0.99350,-0.005643274905
0.99400,-0.005643274905
0.99450,1.520328764
0.99500,2.741106394
0.99550,1.825523171
0.99600,0.9099399482
0.99650,1.520328764
0.99700,2.130717579
0.99750,0.6047455405
0.99800,-0.6160320903
0.99850,-0.3108376826
0.99900,0.9099399482
0.99950,1.825523171
1.00000,1.215134356
1.00050,0.6047455405
1.00100,0.6047455405
1.00150,0.2995511328
1.00200,-0.3108376826
1.00250,-1.226420906
1.00300,-1.226420906
1.00350,-0.921226498
1.00400,-0.3108376826
1.00450,-0.005643274905
1.00500,0.2995511328
1.00550,0.9099399482
1.00600,1.520328764
1.00650,2.741106394
1.00700,3.961884025
1.00750,3.656689618
1.00800,1.520328764
1.00850,-0.005643274905
1.00900,0.2995511328
1.00950,0.2995511328
1.01000,-0.6160320903
1.01050,-1.836809721
1.01100,-1.836809721
1.01150,-0.921226498
1.01200,-0.3108376826
1.01250,-0.005643274905
1.01300,-0.005643274905
1.01350,-0.6160320903
1.01400,-1.836809721
1.01450,-2.752392944
1.01500,-1.531615313
1.01550,-0.005643274905
1.01600,0.6047455405
1.01650,0.2995511328
1.01700,1.520328764
1.01750,4.267078433
1.01800,5.793050471
1.01850,5.487856064
1.01900,4.877467248
1.01950,4.877467248
1.02000,5.182661656
1.02050,4.572272841
1.02100,3.656689618
1.02150,3.656689618
1.02200,3.35149521
1.02250,2.130717579
1.02300,-0.005643274905
1.02350,-1.531615313
1.02400,-2.142004129
1.02450,-3.057587352
1.02500,-4.58355939
1.02550,-6.109531429
1.02600,-6.719920244
1.02650,-7.33030906
1.02700,-7.940697875
1.02750,-8.245892283
1.02800,-7.33030906
1.02850,-6.109531429
1.02900,-5.804337021
1.02950,-5.499142614
1.03000,-3.973170575
1.03050,-1.836809721
1.03100,-0.921226498
1.03150,-0.921226498
1.03200,-0.3108376826
1.03250,0.6047455405
1.03300,0.6047455405
1.03350,-0.921226498
1.03400,-1.531615313
1.03450,-0.3108376826
1.03500,0.6047455405
1.03550,-0.005643274905
1.03600,-1.531615313
1.03650,-1.836809721
1.03700,-0.921226498
1.03750,-0.005643274905
1.03800,0.2995511328
1.03850,0.9099399482
1.03900,0.9099399482
1.03950,-0.3108376826
1.04000,-1.531615313
1.04050,-0.6160320903
1.04100,0.6047455405
1.04150,0.6047455405
1.04200,-0.3108376826
1.04250,-0.921226498
1.04300,0.6047455405
1.04350,1.825523171
1.04400,1.520328764
1.04450,0.2995511328
1.04500,-0.005643274905
1.04550,0.6047455405
1.04600,0.9099399482
1.04650,1.520328764
1.04700,2.435911987
1.04750,2.130717579
1.04800,0.2995511328
1.04850,-0.6160320903
1.04900,0.2995511328
1.04950,2.130717579
1.05000,1.825523171
1.05050,-0.005643274905
1.05100,-0.921226498
1.05150,-0.005643274905
1.05200,1.215134356
1.05250,0.6047455405
1.05300,0.6047455405
1.05350,1.825523171
1.05400,2.435911987
1.05450,1.215134356
1.05500,-0.005643274905
1.05550,-0.005643274905
1.05600,0.9099399482
1.05650,0.2995511328
1.05700,-0.3108376826
1.05750,0.6047455405
1.05800,2.741106394
1.05850,3.35149521
1.05900,1.520328764
1.05950,0.2995511328
1.06000,0.6047455405
1.06050,0.6047455405
1.06100,-0.3108376826
1.06150,-0.6160320903
1.06200,-0.005643274905
1.06250,0.6047455405
1.06300,-0.005643274905
1.06350,-0.6160320903
1.06400,-0.6160320903
1.06450,-0.6160320903
1.06500,-1.226420906
1.06550,-1.226420906
1.06600,-0.6160320903
1.06650,-0.6160320903
1.06700,-0.921226498
1.06750,-1.531615313
1.06800,-0.921226498
1.06850,-0.3108376826
1.06900,-0.3108376826
1.06950,-0.005643274905
1.07000,-0.005643274905
1.07050,-0.005643274905
1.07100,-0.005643274905
1.07150,-0.005643274905
1.07200,0.9099399482
1.07250,0.9099399482
1.07300,-0.005643274905
1.07350,-0.6160320903
1.07400,-0.3108376826
1.07450,-0.005643274905
1.07500,-0.005643274905
1.07550,0.2995511328
1.07600,1.215134356
1.07650,1.520328764
1.07700,0.9099399482
1.07750,0.2995511328
1.07800,0.2995511328
1.07850,-0.005643274905
1.07900,-0.6160320903
1.07950,-0.6160320903
1.08000,-0.005643274905
1.08050,0.6047455405
1.08100,-0.005643274905
1.08150,-0.921226498
1.08200,-0.921226498
1.08250,-0.3108376826
1.08300,-0.3108376826
1.08350,-0.6160320903
1.08400,-0.6160320903
1.08450,-0.005643274905
1.08500,0.2995511328
1.08550,0.2995511328
1.08600,0.2995511328
1.08650,-0.005643274905
1.08700,-0.6160320903
1.08750,-1.226420906
1.08800,-1.226420906
1.08850,-0.005643274905
1.08900,0.9099399482
1.08950,1.825523171
1.09000,1.825523171
1.09050,0.9099399482
1.09100,0.2995511328
1.09150,1.215134356
1.09200,2.130717579
1.09250,1.825523171
1.09300,0.9099399482
1.09350,1.520328764
1.09400,3.35149521
1.09450,4.572272841
1.09500,3.961884025
1.09550,3.35149521
1.09600,3.961884025
1.09650,3.961884025
1.09700,1.825523171
1.09750,-0.3108376826
1.09800,-1.226420906
1.09850,-0.921226498
1.09900,-0.921226498
1.09950,-0.921226498
1.10000,-0.005643274905
1.10050,-0.005643274905
1.10100,-0.3108376826
1.10150,-1.531615313
1.10200,-1.531615313
1.10250,-0.921226498
1.10300,-0.6160320903
1.10350,-1.226420906
1.10400,-1.531615313
1.10450,-1.531615313
1.10500,-2.447198537
1.10550,-3.36278176
1.10600,-3.36278176
1.10650,-2.752392944
1.10700,-2.752392944
1.10750,-3.36278176
1.10800,-3.057587352
1.10850,-0.6160320903
1.10900,1.825523171
1.10950,3.046300802
1.11000,2.435911987
1.11050,0.9099399482
1.11100,-0.005643274905
1.11150,-0.005643274905
1.11200,0.2995511328
1.11250,0.6047455405
1.11300,0.6047455405
1.11350,1.825523171
1.11400,3.046300802
1.11450,3.35149521
1.11500,2.435911987
1.11550,1.520328764
1.11600,0.9099399482
1.11650,0.2995511328
1.11700,-0.921226498
1.11750,-2.447198537
1.11800,-3.057587352
1.11850,-3.36278176
1.11900,-3.667976167
1.11950,-3.973170575
1.12000,-4.278364983
1.12050,-4.888753798
1.12100,-5.193948206
1.12150,-4.58355939
1.12200,-3.36278176
1.12250,-2.447198537
1.12300,-2.447198537
1.12350,-3.057587352
1.12400,-2.752392944
1.12450,-2.142004129
1.12500,-1.226420906
1.12550,-0.005643274905
1.12600,-0.005643274905
1.12650,-0.005643274905
1.12700,-0.005643274905
1.12750,-0.005643274905
1.12800,-0.3108376826
1.12850,-1.836809721
1.12900,-3.057587352
1.12950,-2.142004129
1.13000,-0.005643274905
1.13050,0.2995511328
1.13100,-0.005643274905
1.13150,-0.005643274905
1.13200,0.6047455405
1.13250,0.9099399482
1.13300,-0.005643274905
1.13350,-0.6160320903
1.13400,-0.005643274905
1.13450,0.6047455405
1.13500,0.6047455405
1.13550,1.215134356
1.13600,2.435911987
1.13650,3.046300802
1.13700,1.825523171
1.13750,-0.005643274905
1.13800,0.2995511328
1.13850,1.215134356
1.13900,0.9099399482
1.13950,-0.005643274905
1.14000,0.2995511328
1.14050,1.520328764
1.14100,1.825523171
1.14150,1.215134356
1.14200,1.215134356
1.14250,2.130717579
1.14300,2.741106394
1.14350,1.520328764
1.14400,0.2995511328
1.14450,0.2995511328
1.14500,1.215134356
1.14550,1.520328764
1.14600,0.6047455405
1.14650,-0.005643274905
1.14700,0.9099399482
1.14750,2.130717579
1.14800,1.520328764
1.14850,0.2995511328
1.14900,-0.3108376826
1.14950,-0.005643274905
1.15000,0.2995511328
1.15050,0.2995511328
1.15100,0.2995511328
1.15150,-0.005643274905
1.15200,-0.005643274905
1.15250,-0.3108376826
1.15300,-0.005643274905
1.15350,0.2995511328
1.15400,-0.005643274905
1.15450,-0.3108376826
1.15500,-0.3108376826
1.15550,-0.005643274905
1.15600,-0.005643274905
1.15650,-0.005643274905
1.15700,0.6047455405
1.15750,1.520328764
1.15800,1.215134356
1.15850,-0.005643274905
1.15900,-0.921226498
1.15950,-0.921226498
1.16000,-0.3108376826
1.16050,-0.3108376826
1.16100,-0.005643274905
1.16150,0.2995511328
1.16200,0.2995511328
1.16250,-0.005643274905
1.16300,-0.005643274905
1.16350,-0.005643274905
1.16400,-0.005643274905
1.16450,-0.005643274905
1.16500,-0.3108376826
1.16550,-0.921226498
1.16600,-0.3108376826
1.16650,1.825523171
1.16700,3.961884025
1.16750,4.572272841
1.16800,3.656689618
1.16850,3.35149521
1.16900,3.961884025
1.16950,4.267078433
1.17000,3.046300802
1.17050,1.825523171
1.17100,1.215134356
1.17150,0.6047455405
1.17200,-0.3108376826
1.17250,-0.921226498
1.17300,-0.3108376826
1.17350,-0.005643274905
1.17400,-0.6160320903
1.17450,-2.752392944
1.17500,-3.973170575
1.17550,-3.667976167
1.17600,-3.36278176
1.17650,-3.057587352
1.17700,-2.752392944
1.17750,-1.836809721
1.17800,-0.6160320903
1.17850,-0.005643274905
1.17900,0.6047455405
1.17950,1.215134356
1.18000,1.825523171
1.18050,2.435911987
1.18100,3.046300802
1.18150,2.741106394
1.18200,2.130717579
1.18250,1.825523171
1.18300,2.130717579
1.18350,1.825523171
1.18400,0.9099399482
1.18450,-0.005643274905
1.18500,-0.005643274905
1.18550,0.9099399482
1.18600,1.520328764
1.18650,1.520328764
1.18700,0.2995511328
1.18750,-0.6160320903
1.18800,-0.921226498
1.18850,-0.005643274905
1.18900,0.6047455405
1.18950,0.6047455405
1.19000,-0.005643274905
1.19050,-0.921226498
1.19100,-1.836809721
1.19150,-2.142004129
1.19200,-1.836809721
1.19250,-2.142004129
1.19300,-2.752392944
1.19350,-3.36278176
1.19400,-3.057587352
1.19450,-2.142004129
1.19500,-0.921226498
1.19550,-0.005643274905
1.19600,0.6047455405
1.19650,1.215134356
1.19700,0.6047455405
1.19750,0.2995511328
1.19800,0.9099399482
1.19850,3.046300802
1.19900,4.267078433
1.19950,3.961884025
1.20000,2.741106394
1.20050,1.825523171
1.20100,0.9099399482
1.20150,-0.005643274905
1.20200,-1.531615313
1.20250,-2.752392944
1.20300,-4.58355939
1.20350,-6.414725837
1.20400,-7.635503467
1.20450,-7.940697875
1.20500,-7.940697875
1.20550,-7.940697875
1.20600,-8.245892283
1.20650,-7.635503467
1.20700,-6.109531429
1.20750,-3.973170575
1.20800,-2.752392944
1.20850,-1.531615313
1.20900,-0.6160320903
1.20950,-0.6160320903
1.21000,-0.6160320903
1.21050,-0.005643274905
1.21100,0.9099399482
1.21150,1.520328764
1.21200,0.2995511328
1.21250,-0.6160320903
1.21300,-0.005643274905
1.21350,2.130717579
1.21400,3.35149521
1.21450,2.741106394
1.21500,2.130717579
1.21550,2.130717579
1.21600,2.130717579
1.21650,0.9099399482
1.21700,-0.3108376826
1.21750,-0.3108376826
1.21800,0.2995511328
1.21850,1.215134356
1.21900,0.9099399482
1.21950,0.6047455405
1.22000,1.215134356
1.22050,1.520328764
1.22100,1.520328764
1.22150,1.215134356
1.22200,0.9099399482
1.22250,1.215134356
1.22300,1.520328764
1.22350,1.825523171
1.22400,1.520328764
1.22450,0.9099399482
1.22500,0.2995511328
1.22550,-0.005643274905
1.22600,-0.005643274905
1.22650,-0.005643274905
1.22700,0.9099399482
1.22750,1.825523171
1.22800,1.825523171
1.22850,0.6047455405
1.22900,-0.005643274905
1.22950,1.215134356
1.23000,3.046300802
1.23050,4.267078433
1.23100,3.961884025
1.23150,3.35149521
1.23200,2.741106394
1.23250,1.825523171
1.23300,1.825523171
1.23350,2.435911987
1.23400,2.130717579
1.23450,0.6047455405
1.23500,-0.6160320903
1.23550,-1.226420906
1.23600,-1.226420906
1.23650,-1.531615313
1.23700,-0.921226498
1.23750,-0.005643274905
1.23800,-0.005643274905
1.23850,-0.6160320903
1.23900,-1.226420906
1.23950,-0.005643274905
1.24000,1.215134356
1.24050,1.215134356
1.24100,0.6047455405
1.24150,0.6047455405
1.24200,1.520328764
1.24250,1.520328764
1.24300,-0.005643274905
1.24350,-0.6160320903
1.24400,-0.3108376826
1.24450,-0.005643274905
1.24500,0.2995511328
1.24550,-0.3108376826
1.24600,-1.531615313
1.24650,-2.752392944
1.24700,-2.752392944
1.24750,-1.836809721
1.24800,-0.3108376826
1.24850,0.2995511328
1.24900,-0.005643274905
1.24950,-1.531615313
1.25000,-3.36278176
1.25050,-3.667976167
1.25100,-2.752392944
1.25150,-2.142004129
1.25200,-2.142004129
1.25250,-2.447198537
1.25300,-1.226420906
1.25350,0.2995511328
1.25400,-0.005643274905
1.25450,-1.226420906
1.25500,-1.836809721
1.25550,-0.921226498
1.25600,-0.3108376826
1.25650,-0.921226498
1.25700,-1.531615313
1.25750,-1.226420906
1.25800,-1.226420906
1.25850,-1.531615313
1.25900,-1.531615313
1.25950,-0.3108376826
1.26000,0.6047455405
1.26050,0.9099399482
1.26100,0.6047455405
1.26150,0.2995511328
1.26200,-0.005643274905
1.26250,-0.6160320903
1.26300,-1.226420906
1.26350,-0.921226498
1.26400,-0.005643274905
1.26450,-0.005643274905
1.26500,-0.005643274905
1.26550,-0.005643274905
1.26600,-0.921226498
1.26650,-1.531615313
1.26700,-1.226420906
1.26750,-0.921226498
1.26800,-1.226420906
1.26850,-2.142004129
1.26900,-2.142004129
1.26950,-0.921226498
1.27000,-0.005643274905
1.27050,-0.005643274905
1.27100,-0.005643274905
1.27150,0.6047455405
1.27200,1.215134356
1.27250,0.9099399482
1.27300,-0.005643274905
1.27350,0.2995511328
1.27400,1.215134356
1.27450,1.215134356
1.27500,0.9099399482
1.27550,0.9099399482
1.27600,1.825523171
1.27650,2.741106394
1.27700,2.130717579
1.27750,0.6047455405
1.27800,-0.005643274905
1.27850,0.6047455405
1.27900,1.520328764
1.27950,2.130717579
1.28000,1.215134356
1.28050,0.6047455405
1.28100,0.6047455405
1.28150,0.9099399482
1.28200,0.6047455405
1.28250,-0.005643274905
1.28300,0.2995511328
1.28350,1.215134356
1.28400,1.215134356
1.28450,-0.005643274905
1.28500,-0.3108376826
1.28550,0.2995511328
1.28600,1.215134356
1.28650,0.9099399482
1.28700,-0.005643274905
1.28750,0.6047455405
1.28800,1.825523171
1.28850,1.520328764
1.28900,0.6047455405
1.28950,0.9099399482
1.29000,2.130717579
1.29050,2.130717579
1.29100,-0.005643274905
1.29150,-0.921226498
1.29200,-0.005643274905
1.29250,1.215134356
1.29300,1.215134356
1.29350,0.2995511328
1.29400,0.2995511328
1.29450,1.215134356
1.29500,0.9099399482
1.29550,-0.005643274905
1.29600,-0.005643274905
1.29650,0.9099399482
1.29700,1.520328764
1.29750,0.9099399482
1.29800,0.2995511328
1.29850,0.6047455405
1.29900,0.2995511328
1.29950,-0.005643274905
1.30000,-0.3108376826
1.30050,-0.005643274905
1.30100,-0.005643274905
1.30150,-0.005643274905
1.30200,-0.005643274905
1.30250,0.2995511328
1.30300,0.2995511328
1.30350,-0.3108376826
1.30400,-0.6160320903
1.30450,-0.3108376826
1.30500,-0.3108376826
1.30550,-0.005643274905
1.30600,1.520328764
1.30650,3.046300802
1.30700,3.046300802
1.30750,1.825523171
1.30800,1.825523171
1.30850,3.656689618
1.30900,5.182661656
1.30950,3.961884025
1.31000,1.825523171
1.31050,0.2995511328
1.31100,-0.005643274905
1.31150,-0.3108376826
1.31200,-1.836809721
1.31250,-3.973170575
1.31300,-6.414725837
1.31350,-7.33030906
1.31400,-6.109531429
1.31450,-3.973170575
1.31500,-3.36278176
1.31550,-4.58355939
1.31600,-4.58355939
1.31650,-1.836809721
1.31700,0.9099399482
1.31750,1.825523171
1.31800,1.520328764
1.31850,1.520328764
1.31900,1.825523171
1.31950,1.520328764
1.32000,0.6047455405
1.32050,0.2995511328
1.32100,0.6047455405
1.32150,-0.005643274905
1.32200,-1.531615313
1.32250,-2.447198537
1.32300,-2.752392944
1.32350,-2.752392944
1.32400,-2.752392944
1.32450,-1.836809721
1.32500,-0.6160320903
1.32550,-0.005643274905
1.32600,-0.005643274905
1.32650,-0.005643274905
1.32700,0.6047455405
1.32750,0.9099399482
1.32800,1.520328764
1.32850,2.435911987
1.32900,3.961884025
1.32950,4.267078433
1.33000,3.046300802
1.33050,2.435911987
1.33100,3.656689618
1.33150,4.877467248
1.33200,3.656689618
1.33250,1.825523171
1.33300,0.9099399482
1.33350,1.520328764
1.33400,0.9099399482
1.33450,-0.921226498
1.33500,-3.667976167
1.33550,-5.499142614
1.33600,-6.109531429
1.33650,-5.804337021
1.33700,-5.804337021
1.33750,-6.109531429
1.33800,-6.719920244
1.33850,-6.109531429
1.33900,-4.278364983
1.33950,-2.447198537
1.34000,-1.836809721
1.34050,-1.226420906
1.34100,0.2995511328
1.34150,1.825523171
1.34200,1.825523171
1.34250,1.215134356
1.34300,3.046300802
1.34350,6.403439287
1.34400,8.234605733
1.34450,6.708633695
1.34500,3.656689618
1.34550,2.130717579
1.34600,2.130717579
1.34650,2.741106394
1.34700,2.435911987
1.34750,1.215134356
1.34800,0.9099399482
1.34850,1.520328764
1.34900,3.046300802
1.34950,4.572272841
1.35000,5.487856064
1.35050,6.708633695
1.35100,7.624216918
1.35150,6.708633695
1.35200,3.961884025
1.35250,2.130717579
1.35300,2.130717579
1.35350,2.741106394
1.35400,1.215134356
1.35450,-1.226420906
1.35500,-3.057587352
1.35550,-3.973170575
1.35600,-4.888753798
1.35650,-5.804337021
1.35700,-6.414725837
1.35750,-7.33030906
1.35800,-9.161475506
1.35850,-10.68744754
1.35900,-10.38225314
1.35950,-10.07705873
1.36000,-11.60303077
1.36050,-14.04458603
1.36100,-14.65497484
1.36150,-13.12900281
1.36200,-12.21341958
1.36250,-11.90822518
1.36300,-10.68744754
1.36350,-8.245892283
1.36400,-6.109531429
1.36450,-4.278364983
1.36500,-1.836809721
1.36550,0.9099399482
1.36600,2.435911987
1.36650,2.435911987
1.36700,1.825523171
1.36750,2.130717579
1.36800,1.825523171
1.36850,1.215134356
1.36900,1.215134356
1.36950,1.825523171
1.37000,2.130717579
1.37050,1.825523171
1.37100,1.215134356
1.37150,1.520328764
1.37200,1.825523171
1.37250,1.520328764
1.37300,0.6047455405
1.37350,0.2995511328
1.37400,0.6047455405
1.37450,0.6047455405
1.37500,-0.005643274905
1.37550,-0.3108376826
1.37600,-0.3108376826
1.37650,-0.005643274905
1.37700,0.6047455405
1.37750,0.9099399482
1.37800,0.9099399482
1.37850,1.215134356
1.37900,1.825523171
1.37950,1.520328764
1.38000,0.6047455405
1.38050,-0.005643274905
1.38100,-0.005643274905
1.38150,0.2995511328
1.38200,0.6047455405
1.38250,0.9099399482
1.38300,0.6047455405
1.38350,-0.005643274905
1.38400,-0.005643274905
1.38450,0.6047455405
1.38500,1.825523171
1.38550,1.520328764
1.38600,0.2995511328
1.38650,-0.005643274905
1.38700,0.2995511328
1.38750,1.215134356
1.38800,1.215134356
1.38850,0.9099399482
1.38900,2.130717579
1.38950,4.267078433
1.39000,5.487856064
1.39050,5.182661656
1.39100,4.877467248
1.39150,4.877467248
1.39200,4.572272841
1.39250,3.046300802
1.39300,2.130717579
1.39350,4.267078433
1.39400,8.539800141
1.39450,11.59174422
1.39500,12.20213303
1.39550,10.67616099
1.39600,9.455383364
1.39650,8.234605733
1.39700,7.31902251
1.39750,6.403439287
1.39800,5.487856064
1.39850,4.267078433
1.39900,1.825523171
1.39950,-1.226420906
1.40000,-3.973170575
1.40050,-5.804337021
1.40100,-7.33030906
1.40150,-8.245892283
1.40200,-8.245892283
1.40250,-7.33030906
1.40300,-7.025114652
1.40350,-7.635503467
1.40400,-7.635503467
1.40450,-5.499142614
1.40500,-1.836809721
1.40550,0.9099399482
1.40600,1.520328764
1.40650,0.2995511328
1.40700,-0.921226498
1.40750,-0.6160320903
1.40800,0.6047455405
1.40850,2.741106394
1.40900,3.656689618
1.40950,2.435911987
1.41000,-0.005643274905
1.41050,-2.447198537
1.41100,-2.447198537
1.41150,0.2995511328
1.41200,3.656689618
1.41250,5.487856064
1.41300,6.403439287
1.41350,7.31902251
1.41400,8.234605733
1.41450,7.929411325
1.41500,7.31902251
1.41550,6.708633695
1.41600,5.487856064
1.41650,2.435911987
1.41700,-1.836809721
1.41750,-4.888753798
1.41800,-6.414725837
1.41850,-7.635503467
1.41900,-9.771864321
1.41950,-11.29783636
1.42000,-11.90822518
1.42050,-11.90822518
1.42100,-12.51861399
1.42150,-10.99264195
1.42200,-6.414725837
1.42250,-0.921226498
1.42300,2.130717579
1.42350,2.741106394
1.42400,2.435911987
1.42450,2.741106394
1.42500,2.130717579
1.42550,1.825523171
1.42600,3.656689618
1.42650,6.098244879
1.42700,7.013828102
1.42750,4.877467248
1.42800,2.435911987
1.42850,1.520328764
1.42900,2.435911987
1.42950,3.35149521
1.43000,3.656689618
1.43050,2.741106394
1.43100,0.2995511328
1.43150,-2.447198537
1.43200,-4.278364983
1.43250,-4.888753798
1.43300,-5.499142614
1.43350,-6.719920244
1.43400,-7.940697875
1.43450,-7.940697875
1.43500,-7.635503467
1.43550,-7.33030906
1.43600,-7.025114652
1.43650,-6.109531429
1.43700,-3.667976167
1.43750,-0.921226498
1.43800,1.215134356
1.43850,1.825523171
1.43900,1.215134356
1.43950,2.130717579
1.44000,4.572272841
1.44050,6.098244879
1.44100,5.487856064
1.44150,4.267078433
1.44200,4.572272841
1.44250,5.182661656
1.44300,3.35149521
1.44350,-0.6160320903
1.44400,-4.888753798
1.44450,-7.635503467
1.44500,-8.856281098
1.44550,-9.161475506
1.44600,-7.940697875
1.44650,-6.109531429
1.44700,-3.36278176
1.44750,0.9099399482
1.44800,7.624216918
1.44850,13.72810507
1.44900,16.16966033
1.44950,14.33849389
1.45000,11.28654981
1.45050,9.455383364
1.45100,8.539800141
1.45150,7.624216918
1.45200,7.013828102
1.45250,6.708633695
1.45300,5.487856064
1.45350,3.046300802
1.45400,1.215134356
1.45450,1.215134356
1.45500,0.9099399482
1.45550,-0.005643274905
1.45600,-0.6160320903
1.45650,-0.005643274905
1.45700,0.9099399482
1.45750,0.9099399482
1.45800,0.9099399482
1.45850,2.741106394
1.45900,5.793050471
1.45950,5.793050471
1.46000,2.130717579
1.46050,-2.142004129
1.46100,-3.667976167
1.46150,-2.752392944
1.46200,-2.752392944
1.46250,-5.193948206
1.46300,-8.245892283
1.46350,-10.07705873
1.46400,-10.38225314
1.46450,-10.38225314
1.46500,-10.07705873
1.46550,-7.940697875
1.46600,-3.973170575
1.46650,-0.005643274905
1.46700,2.435911987
1.46750,2.741106394
1.46800,2.130717579
1.46850,3.046300802
1.46900,3.961884025
1.46950,2.435911987
1.47000,-1.226420906
1.47050,-3.057587352
1.47100,-0.6160320903
1.47150,3.35149521
1.47200,4.572272841
1.47250,1.215134356
1.47300,-3.057587352
1.47350,-5.193948206
1.47400,-4.58355939
1.47450,-2.142004129
1.47500,0.9099399482
1.47550,3.656689618
1.47600,4.267078433
1.47650,3.046300802
1.47700,0.6047455405
1.47750,-1.226420906
1.47800,-3.057587352
1.47850,-3.973170575
1.47900,-3.973170575
1.47950,-4.888753798
1.48000,-7.33030906
1.48050,-9.771864321
1.48100,-10.38225314
1.48150,-8.245892283
1.48200,-5.499142614
1.48250,-3.36278176
1.48300,-1.531615313
1.48350,-0.005643274905
1.48400,1.215134356
1.48450,1.825523171
1.48500,3.35149521
1.48550,5.487856064
1.48600,7.013828102
1.48650,6.403439287
1.48700,3.961884025
1.48750,1.520328764
1.48800,-0.005643274905
1.48850,-0.921226498
1.48900,-2.447198537
1.48950,-3.973170575
1.49000,-5.193948206
1.49050,-5.499142614
1.49100,-5.193948206
1.49150,-4.888753798
1.49200,-5.804337021
1.49250,-6.719920244
1.49300,-4.888753798
1.49350,-0.6160320903
1.49400,2.741106394
1.49450,2.130717579
1.49500,0.6047455405
1.49550,3.046300802
1.49600,9.455383364
1.49650,13.72810507
1.49700,12.20213303
1.49750,7.929411325
1.49800,6.708633695
1.49850,7.013828102
1.49900,5.182661656
1.49950,1.825523171
1.50000,0.2995511328
1.50050,1.215134356
1.50100,0.2995511328
1.50150,-3.667976167
1.50200,-7.33030906
1.50250,-7.025114652
1.50300,-5.193948206
1.50350,-5.193948206
1.50400,-7.025114652
1.50450,-7.33030906
1.50500,-6.414725837
1.50550,-7.635503467
1.50600,-10.68744754
1.50650,-11.90822518
1.50700,-8.856281098
1.50750,-4.278364983
1.50800,-1.531615313
1.50850,-0.005643274905
1.50900,4.267078433
1.50950,9.760577772
1.51000,13.72810507
1.51050,14.9488827
1.51100,14.64368829
1.51150,14.64368829
1.51200,14.03329948
1.51250,12.20213303
1.51300,10.9813554
1.51350,10.67616099
1.51400,9.760577772
1.51450,6.403439287
1.51500,2.130717579
1.51550,-1.226420906
1.51600,-4.888753798
1.51650,-8.856281098
1.51700,-11.60303077
1.51750,-11.90822518
1.51800,-10.38225314
1.51850,-8.551086691
1.51900,-7.33030906
1.51950,-4.888753798
1.52000,-1.531615313
1.52050,0.9099399482
1.52100,3.046300802
1.52150,5.182661656
1.52200,7.31902251
1.52250,8.234605733
1.52300,7.929411325
1.52350,8.234605733
1.52400,10.37096659
1.52450,12.50732744
1.52500,12.81252185
1.52550,10.37096659
1.52600,6.708633695
1.52650,4.572272841
1.52700,3.961884025
1.52750,2.130717579
1.52800,-1.836809721
1.52850,-6.109531429
1.52900,-7.33030906
1.52950,-6.414725837
1.53000,-7.025114652
1.53050,-10.07705873
1.53100,-12.51861399
1.53150,-11.90822518
1.53200,-10.07705873
1.53250,-8.856281098
1.53300,-7.940697875
1.53350,-4.58355939
1.53400,-0.005643274905
1.53450,1.825523171
1.53500,0.9099399482
1.53550,-0.3108376826
1.53600,0.2995511328
1.53650,3.046300802
1.53700,4.572272841
1.53750,4.877467248
1.53800,5.487856064
1.53850,6.098244879
1.53900,5.182661656
1.53950,2.130717579
1.54000,-0.005643274905
1.54050,1.825523171
1.54100,6.403439287
1.54150,7.929411325
1.54200,4.267078433
1.54250,-0.005643274905
1.54300,-0.005643274905
1.54350,2.741106394
1.54400,4.267078433
1.54450,2.130717579
1.54500,-0.005643274905
1.54550,1.520328764
1.54600,2.741106394
1.54650,-1.226420906
1.54700,-7.940697875
1.54750,-8.551086691
1.54800,-0.6160320903
1.54850,6.403439287
1.54900,3.961884025
1.54950,-4.888753798
1.55000,-10.38225314
1.55050,-8.551086691
1.55100,-5.804337021
1.55150,-7.635503467
1.55200,-12.8238084
1.55250,-16.18094688
1.55300,-17.09653011
1.55350,-17.40172451
1.55400,-19.23289096
1.55450,-21.67444622
1.55500,-23.81080708
1.55550,-23.81080708
1.55600,-20.45366859
1.55650,-14.04458603
1.55700,-7.025114652
1.55750,-1.226420906
1.55800,2.435911987
1.55850,5.793050471
1.55900,8.539800141
1.55950,10.67616099
1.56000,11.89693863
1.56050,11.59174422
1.56100,9.760577772
1.56150,7.624216918
1.56200,6.708633695
1.56250,8.234605733
1.56300,10.67616099
1.56350,11.59174422
1.56400,10.37096659
1.56450,7.013828102
1.56500,2.435911987
1.56550,-0.3108376826
1.56600,-0.6160320903
1.56650,0.6047455405
1.56700,2.435911987
1.56750,3.656689618
1.56800,5.487856064
1.56850,7.929411325
1.56900,9.455383364
1.56950,8.844994548
1.57000,5.793050471
1.57050,2.130717579
1.57100,-1.226420906
1.57150,-4.888753798
1.57200,-7.025114652
1.57250,-6.719920244
1.57300,-6.414725837
1.57350,-8.551086691
1.57400,-11.29783636
1.57450,-10.38225314
1.57500,-3.667976167
1.57550,3.961884025
1.57600,7.624216918
1.57650,7.013828102
1.57700,6.403439287
1.57750,7.31902251
1.57800,7.929411325
1.57850,7.013828102
1.57900,5.182661656
1.57950,4.267078433
1.58000,4.267078433
1.58050,3.656689618
1.58100,1.215134356
1.58150,-2.142004129
1.58200,-5.193948206
1.58250,-6.414725837
1.58300,-6.414725837
1.58350,-7.33030906
1.58400,-7.940697875
1.58450,-4.888753798
1.58500,0.2995511328
1.58550,3.656689618
1.58600,4.267078433
1.58650,6.403439287
1.58700,11.59174422
1.58750,14.64368829
1.58800,13.11771626
1.58850,11.89693863
1.58900,14.03329948
1.58950,14.64368829
1.59000,9.455383364
1.59050,3.35149521
1.59100,4.267078433
1.59150,11.59174422
1.59200,14.64368829
1.59250,9.760577772
1.59300,2.130717579
1.59350,-0.921226498
1.59400,-0.005643274905
1.59450,-0.005643274905
1.59500,-2.447198537
1.59550,-5.499142614
1.59600,-7.025114652
1.59650,-7.33030906
1.59700,-7.635503467
1.59750,-8.856281098
1.59800,-10.07705873
1.59850,-10.07705873
1.59900,-10.07705873
1.59950,-11.90822518
1.60000,-12.8238084
1.60050,-10.38225314
1.60100,-6.109531429
1.60150,-4.278364983
1.60200,-4.58355939
1.60250,-2.447198537
1.60300,1.215134356
1.60350,1.825523171
1.60400,-2.447198537
1.60450,-6.109531429
1.60500,-6.109531429
1.60550,-5.804337021
1.60600,-7.635503467
1.60650,-7.940697875
1.60700,-3.057587352
1.60750,2.130717579
1.60800,4.877467248
1.60850,7.624216918
1.60900,13.72810507
1.60950,19.22160441
1.61000,18.30602119
1.61050,14.03329948
1.61100,13.72810507
1.61150,17.08524356
1.61200,17.69563237
1.61250,12.81252185
1.61300,6.098244879
1.61350,0.2995511328
1.61400,-5.499142614
1.61450,-12.21341958
1.61500,-16.48614129
1.61550,-17.09653011
1.61600,-16.48614129
1.61650,-16.7913357
1.61700,-17.40172451
1.61750,-16.7913357
1.61800,-15.87575248
1.61850,-14.96016925
1.61900,-13.12900281
1.61950,-9.771864321
1.62000,-7.025114652
1.62050,-5.499142614
1.62100,-3.973170575
1.62150,-1.836809721
1.62200,-0.6160320903
1.62250,-0.6160320903
1.62300,-0.3108376826
1.62350,1.215134356
1.62400,2.741106394
1.62450,1.215134356
1.62500,-1.226420906
1.62550,-1.836809721
1.62600,-0.005643274905
1.62650,0.9099399482
1.62700,-0.921226498
1.62750,-2.752392944
1.62800,-2.142004129
1.62850,-2.447198537
1.62900,-4.888753798
1.62950,-5.499142614
1.63000,-0.6160320903
1.63050,6.403439287
1.63100,9.760577772
1.63150,10.06577218
1.63200,14.03329948
1.63250,23.49432612
1.63300,31.73457513
1.63350,32.03976953
1.63400,27.46185342
1.63450,23.18913171
1.63500,21.05277086
1.63550,16.78004915
1.63600,8.844994548
1.63650,-0.3108376826
1.63700,-7.940697875
1.63750,-12.8238084
1.63800,-16.7913357
1.63850,-21.97964063
1.63900,-26.55755674
1.63950,-26.86275115
1.64000,-22.89522385
1.64050,-18.62250214
1.64100,-16.7913357
1.64150,-15.87575248
1.64200,-12.8238084
1.64250,-8.245892283
1.64300,-4.58355939
1.64350,-2.752392944
1.64400,-0.921226498
1.64450,0.9099399482
1.64500,2.435911987
1.64550,5.487856064
1.64600,11.28654981
1.64650,18.30602119
1.64700,21.05277086
1.64750,18.00082678
1.64800,13.42291066
1.64850,11.89693863
1.64900,13.72810507
1.64950,15.25407711
1.65000,14.64368829
1.65050,12.20213303
1.65100,9.150188956
1.65150,5.793050471
1.65200,-0.3108376826
1.65250,-7.33030906
1.65300,-10.07705873
1.65350,-3.973170575
1.65400,6.098244879
1.65450,11.89693863
1.65500,11.59174422
1.65550,14.33849389
1.65600,25.63068697
1.65650,39.36443532
1.65700,42.7215738
1.65750,33.26054716
1.65800,19.52679882
1.65850,9.455383364
1.65900,2.435911987
1.65950,-5.804337021
1.66000,-16.18094688
1.66050,-26.55755674
1.66100,-36.01858338
1.66150,-41.81727713
1.66200,-43.34324917
1.66250,-40.5964995
1.66300,-36.93416661
1.66350,-30.83027845
1.66400,-20.45366859
1.66450,-8.551086691
1.66500,-1.836809721
1.66550,-1.531615313
1.66600,-0.005643274905
1.66650,5.793050471
1.66700,9.760577772
1.66750,5.182661656
1.66800,-3.36278176
1.66850,-6.719920244
1.66900,-4.58355939
1.66950,-4.58355939
1.67000,-9.466669914
1.67050,-12.8238084
1.67100,-12.51861399
1.67150,-12.51861399
1.67200,-14.04458603
1.67250,-12.8238084
1.67300,-6.414725837
1.67350,-0.005643274905
1.67400,2.435911987
1.67450,3.961884025
1.67500,8.234605733
1.67550,13.11771626
1.67600,15.86446593
1.67650,17.08524356
1.67700,18.30602119
1.67750,17.39043796
1.67800,11.89693863
1.67850,4.572272841
1.67900,0.2995511328
1.67950,-1.836809721
1.68000,-6.719920244
1.68050,-12.21341958
1.68100,-13.43419721
1.68150,-8.856281098
1.68200,-3.667976167
1.68250,-0.921226498
1.68300,0.9099399482
1.68350,6.098244879
1.68400,11.89693863
1.68450,15.55927152
1.68500,17.39043796
1.68550,18.61121559
1.68600,17.69563237
1.68650,14.03329948
1.68700,9.455383364
1.68750,5.487856064
1.68800,0.2995511328
1.68850,-7.025114652
1.68900,-14.04458603
1.68950,-16.7913357
1.69000,-15.26536366
1.69050,-14.34978044
1.69100,-16.48614129
1.69150,-18.31730774
1.69200,-17.40172451
1.69250,-14.34978044
1.69300,-10.68744754
1.69350,-6.719920244
1.69400,-3.36278176
1.69450,-1.531615313
1.69500,-0.3108376826
1.69550,3.046300802
1.69600,9.150188956
1.69650,13.72810507
1.69700,14.03329948
1.69750,12.20213303
1.69800,10.9813554
1.69850,10.37096659
1.69900,8.539800141
1.69950,5.487856064
1.70000,2.741106394
1.70050,1.825523171
1.70100,1.215134356
1.70150,-0.6160320903
1.70200,-3.973170575
1.70250,-5.193948206
1.70300,-2.752392944
1.70350,1.825523171
1.70400,6.403439287
1.70450,9.150188956
1.70500,12.20213303
1.70550,15.86446593
1.70600,17.08524356
1.70650,14.33849389
1.70700,10.9813554
1.70750,10.67616099
1.70800,10.9813554
1.70850,5.793050471
1.70900,-3.667976167
1.70950,-11.90822518
1.71000,-16.48614129
1.71050,-19.23289096
1.71100,-23.20041826
1.71150,-27.16794556
1.71200,-28.99911201
1.71250,-29.30430641
1.71300,-27.77833438
1.71350,-22.28483504
1.71400,-12.21341958
1.71450,0.2995511328
1.71500,10.37096659
1.71550,14.9488827
1.71600,15.86446593
1.71650,19.22160441
1.71700,28.07224223
1.71750,37.53326887
1.71800,39.97482413
1.71850,37.83846328
1.71900,38.14365769
1.71950,40.58521295
1.72000,36.92288006
1.72050,24.71510375
1.72100,12.20213303
1.72150,6.098244879
1.72200,2.435911987
1.72250,-5.804337021
1.72300,-17.09653011
1.72350,-27.16794556
1.72400,-35.40819457
1.72450,-43.03805476
1.72500,-44.25883239
1.72550,-35.71338898
1.72600,-23.50561267
1.72650,-14.04458603
1.72700,-7.940697875
1.72750,-1.226420906
1.72800,4.572272841
1.72850,8.234605733
1.72900,11.89693863
1.72950,15.86446593
1.73000,16.16966033
1.73050,10.06577218
1.73100,4.572272841
1.73150,6.403439287
1.73200,10.06577218
1.73250,6.403439287
1.73300,-3.36278176
1.73350,-10.99264195
1.73400,-12.21341958
1.73450,-10.07705873
1.73500,-7.635503467
1.73550,-5.499142614
1.73600,-5.193948206
1.73650,-6.719920244
1.73700,-6.414725837
1.73750,-4.278364983
1.73800,-3.36278176
1.73850,-7.025114652
1.73900,-10.07705873
1.73950,-7.940697875
1.74000,-3.973170575
1.74050,-3.973170575
1.74100,-7.025114652
1.74150,-7.940697875
1.74200,-5.193948206
1.74250,-3.36278176
1.74300,-1.836809721
1.74350,2.435911987
1.74400,9.760577772
1.74450,14.03329948
1.74500,13.42291066
1.74550,12.20213303
1.74600,11.59174422
1.74650,6.403439287
1.74700,-4.888753798
1.74750,-13.73939162
1.74800,-12.8238084
1.74850,-8.856281098
1.74900,-13.73939162
1.74950,-24.7263903
1.75000,-28.08352878
1.75050,-21.06405741
1.75100,-14.65497484
1.75150,-15.57055807
1.75200,-15.57055807
1.75250,-5.499142614
1.75300,7.624216918
1.75350,13.42291066
1.75400,12.81252185
1.75450,14.03329948
1.75500,17.69563237
1.75550,16.78004915
1.75600,10.9813554
1.75650,5.793050471
1.75700,2.741106394
1.75750,-0.005643274905
1.75800,-2.447198537
1.75850,-2.752392944
1.75900,-3.057587352
1.75950,-4.888753798
1.76000,-4.888753798
1.76050,-2.447198537
1.76100,-3.057587352
1.76150,-7.940697875
1.76200,-9.466669914
1.76250,-1.836809721
1.76300,7.013828102
1.76350,8.539800141
1.76400,6.098244879
1.76450,9.455383364
1.76500,16.16966033
1.76550,17.69563237
1.76600,14.03329948
1.76650,11.89693863
1.76700,11.59174422
1.76750,10.9813554
1.76800,14.03329948
1.76850,23.49432612
1.76900,31.12418631
1.76950,29.29301986
1.77000,25.63068697
1.77050,32.03976953
1.77100,41.80599058
1.77150,40.28001854
1.77200,28.07224223
1.77250,19.83199323
1.77300,18.30602119
1.77350,11.28654981
1.77400,-5.499142614
1.77450,-22.28483504
1.77500,-32.35625049
1.77550,-42.73286035
1.77600,-57.68738633
1.77650,-69.58996823
1.77700,-70.20035705
1.77750,-65.01205212
1.77800,-61.34971922
1.77850,-57.68738633
1.77900,-49.14194291
1.77950,-36.32377779
1.78000,-23.50561267
1.78050,-10.38225314
1.78100,3.656689618
1.78150,15.25407711
1.78200,20.74757645
1.78250,20.74757645
1.78300,21.05277086
1.78350,23.18913171
1.78400,27.15665901
1.78450,34.4813248
1.78500,44.85793466
1.78550,51.26701722
1.78600,45.46832347
1.78650,32.03976953
1.78700,24.40990934
1.78750,25.93588138
1.78800,25.93588138
1.78850,14.33849389
1.78900,-3.057587352
1.78950,-16.48614129
1.79000,-25.64197352
1.79050,-35.71338898
1.79100,-42.12247154
1.79150,-34.18741694
1.79200,-14.96016925
1.79250,-1.836809721
1.79300,-2.752392944
1.79350,-7.33030906
1.79400,-3.973170575
1.79450,4.877467248
1.79500,10.37096659
1.79550,9.760577772
1.79600,7.013828102
1.79650,3.656689618
1.79700,-1.531615313
1.79750,-8.245892283
1.79800,-13.12900281
1.79850,-15.87575248
1.79900,-18.01211333
1.79950,-21.06405741
1.80000,-24.11600148
1.80050,-25.33677911
1.80100,-20.14847418
1.80150,-7.635503467
1.80200,4.572272841
1.80250,9.455383364
1.80300,8.234605733
1.80350,10.37096659
1.80400,19.83199323
1.80450,29.90340868
1.80500,35.09171361
1.80550,34.7865192
1.80600,30.5137975
1.80650,21.35796526
1.80700,10.37096659
1.80750,3.046300802
1.80800,0.2995511328
1.80850,-3.973170575
1.80900,-14.96016925
1.80950,-28.99911201
1.81000,-40.5964995
1.81050,-47.31077647
1.81100,-49.14194291
1.81150,-46.70038765
1.81200,-41.51208272
1.81250,-35.40819457
1.81300,-28.99911201
1.81350,-22.89522385
1.81400,-18.92769655
1.81450,-16.48614129
1.81500,-13.43419721
1.81550,-8.856281098
1.81600,-5.804337021
1.81650,-4.888753798
1.81700,-1.836809721
1.81750,3.656689618
1.81800,6.098244879
1.81850,2.435911987
1.81900,-0.6160320903
1.81950,4.572272841
1.82000,15.25407711
1.82050,22.8839373
1.82100,25.63068697
1.82150,24.71510375
1.82200,20.74757645
1.82250,14.64368829
1.82300,10.9813554
1.82350,11.59174422
1.82400,10.9813554
1.82450,10.67616099
1.82500,22.5787429
1.82550,50.351434
1.82600,75.68256984
1.82650,79.34490273
1.82700,66.5267376
1.82750,55.84493333
1.82800,51.57221163
1.82850,44.85793466
1.82900,32.65015835
1.82950,18.61121559
1.83000,0.9099399482
1.83050,-23.81080708
1.83100,-45.78480443
1.83150,-50.36272055
1.83200,-41.81727713
1.83250,-36.32377779
1.83300,-35.71338898
1.83350,-26.25236234
1.83400,-4.888753798
1.83450,12.81252185
1.83500,15.25407711
1.83550,10.06577218
1.83600,7.31902251
1.83650,4.267078433
1.83700,-4.58355939
1.83750,-16.48614129
1.83800,-24.7263903
1.83850,-31.13547286
1.83900,-39.68091628
1.83950,-48.22635969
1.84000,-50.97310936
1.84050,-47.92116528
1.84100,-42.12247154
1.84150,-34.18741694
1.84200,-22.89522385
1.84250,-9.771864321
1.84300,1.215134356
1.84350,7.624216918
1.84400,8.234605733
1.84450,4.877467248
1.84500,2.130717579
1.84550,1.520328764
1.84600,1.520328764
1.84650,0.2995511328
1.84700,-0.005643274905
1.84750,2.130717579
1.84800,3.046300802
1.84850,-0.005643274905
1.84900,-0.3108376826
1.84950,7.929411325
1.85000,22.8839373
1.85050,33.56574157
1.85100,38.14365769
1.85150,42.4163794
1.85200,48.21507314
1.85250,48.21507314
1.85300,40.89040736
1.85350,33.87093598
1.85400,32.03976953
1.85450,29.90340868
1.85500,22.27354849
1.85550,14.9488827
1.85600,14.03329948
1.85650,14.03329948
1.85700,5.487856064
1.85750,-9.161475506
1.85800,-18.01211333
1.85850,-14.65497484
1.85900,-4.888753798
1.85950,0.6047455405
1.86000,-0.6160320903
1.86050,-5.499142614
1.86100,-6.719920244
1.86150,-1.531615313
1.86200,4.267078433
1.86250,4.572272841
1.86300,-2.142004129
1.86350,-8.551086691
1.86400,-7.635503467
1.86450,-1.531615313
1.86500,3.046300802
1.86550,3.35149521
1.86600,1.520328764
1.86650,0.2995511328
1.86700,-1.531615313
1.86750,-7.33030906
1.86800,-15.26536366
1.86850,-21.97964063
1.86900,-24.42119589
1.86950,-25.33677911
1.87000,-27.47313997
1.87050,-29.60950082
1.87100,-28.08352878
1.87150,-24.11600148
1.87200,-22.28483504
1.87250,-21.97964063
1.87300,-15.87575248
1.87350,-2.752392944
1.87400,6.098244879
1.87450,5.487856064
1.87500,3.046300802
1.87550,9.455383364
1.87600,21.66315967
1.87650,28.37743664
1.87700,27.76704783
1.87750,26.5462702
1.87800,25.93588138
1.87850,18.91641
1.87900,5.182661656
1.87950,-7.025114652
1.88000,-13.12900281
1.88050,-15.57055807
1.88100,-16.18094688
1.88150,-12.8238084
1.88200,-6.414725837
1.88250,-2.447198537
1.88300,-0.921226498
1.88350,3.046300802
1.88400,11.89693863
1.88450,18.91641
1.88500,17.39043796
1.88550,10.9813554
1.88600,6.708633695
1.88650,7.31902251
1.88700,8.234605733
1.88750,4.572272841
1.88800,-3.667976167
1.88850,-12.8238084
1.88900,-18.31730774
1.88950,-20.758863
1.89000,-24.11600148
1.89050,-30.52508405
1.89100,-36.32377779
1.89150,-37.54455542
1.89200,-32.96663931
1.89250,-24.7263903
1.89300,-18.01211333
1.89350,-14.96016925
1.89400,-13.43419721
1.89450,-6.109531429
1.89500,8.844994548
1.89550,21.35796526
1.89600,20.44238204
1.89650,11.89693863
1.89700,10.9813554
1.89750,20.44238204
1.89800,27.46185342
1.89850,24.40990934
1.89900,18.00082678
1.89950,16.78004915
1.90000,18.00082678
1.90050,16.16966033
1.90100,15.55927152
1.90150,19.52679882
1.90200,22.5787429
1.90250,17.69563237
1.90300,8.539800141
1.90350,3.35149521
1.90400,3.046300802
1.90450,2.435911987
1.90500,-0.005643274905
1.90550,-3.667976167
1.90600,-8.551086691
1.90650,-15.26536366
1.90700,-18.01211333
1.90750,-11.90822518
1.90800,-1.836809721
1.90850,2.435911987
1.90900,-0.6160320903
1.90950,-4.888753798
1.91000,-4.888753798
1.91050,-2.447198537
1.91100,-1.531615313
1.91150,-2.752392944
1.91200,-3.973170575
1.91250,-2.447198537
1.91300,-0.3108376826
1.91350,-2.142004129
1.91400,-7.940697875
1.91450,-12.21341958
1.91500,-9.466669914
1.91550,-2.752392944
1.91600,1.215134356
1.91650,2.435911987
1.91700,4.572272841
1.91750,7.929411325
1.91800,9.455383364
1.91850,8.844994548
1.91900,7.929411325
1.91950,5.487856064
1.92000,0.6047455405
1.92050,-3.667976167
1.92100,-3.973170575
1.92150,-2.447198537
1.92200,-5.804337021
1.92250,-11.90822518
1.92300,-13.12900281
1.92350,-5.804337021
1.92400,4.572272841
1.92450,15.25407711
1.92500,28.07224223
1.92550,42.4163794
1.92600,51.57221163
1.92650,53.09818367
1.92700,50.96182281
1.92750,49.74104518
1.92800,46.07871229
1.92850,36.61768565
1.92900,21.35796526
1.92950,1.825523171
1.93000,-20.758863
1.93050,-44.25883239
1.93100,-63.18088567
1.93150,-75.08346757
1.93200,-82.71332776
1.93250,-88.51202151
1.93300,-90.34318795
1.93350,-83.01852217
1.93400,-66.84321856
1.93450,-47.61597088
1.93500,-31.13547286
1.93550,-16.7913357
1.93600,-2.752392944
1.93650,9.760577772
1.93700,17.69563237
1.93750,23.49432612
1.93800,33.56574157
1.93850,47.29948992
1.93900,53.09818367
1.93950,43.02676821
1.94000,25.32549256
1.94050,13.72810507
1.94100,10.67616099
1.94150,9.150188956
1.94200,6.098244879
1.94250,5.487856064
1.94300,7.929411325
1.94350,8.844994548
1.94400,8.539800141
1.94450,12.20213303
1.94500,18.61121559
1.94550,21.66315967
1.94600,18.61121559
1.94650,14.33849389
1.94700,13.42291066
1.94750,16.16966033
1.94800,26.24107579
1.94850,43.94235143
1.94900,59.20207182
1.94950,59.81246063
1.95000,48.21507314
1.95050,39.66962973
1.95100,41.19560176
1.95150,41.50079617
1.95200,28.98782546
1.95250,6.708633695
1.95300,-14.96016925
1.95350,-32.96663931
1.95400,-49.14194291
1.95450,-62.87569126
1.95500,-72.64191231
1.95550,-78.74580046
1.95600,-78.13541165
1.95650,-65.92763534
1.95700,-44.86922121
1.95750,-27.47313997
1.95800,-20.14847418
1.95850,-17.09653011
1.95900,-9.161475506
1.95950,1.215134356
1.96000,5.793050471
1.96050,2.741106394
1.96100,-0.921226498
1.96150,-2.752392944
1.96200,-5.499142614
1.96250,-12.51861399
1.96300,-19.84327978
1.96350,-23.50561267
1.96400,-23.20041826
1.96450,-21.97964063
1.96500,-18.31730774
1.96550,-7.940697875
1.96600,7.013828102
1.96650,18.00082678
1.96700,16.78004915
1.96750,8.539800141
1.96800,9.760577772
1.96850,28.07224223
1.96900,54.3189613
1.96950,72.32543135
1.97000,79.95529154
1.97050,86.66956851
1.97100,97.65656719
1.97150,103.4552609
1.97200,93.9942343
1.97250,72.93582017
1.97300,51.57221163
1.97350,33.26054716
1.97400,10.9813554
1.97450,-17.70691892
1.97500,-47.00558206
1.97550,-68.67438501
1.97600,-82.10293895
1.97650,-92.1743544
1.97700,-100.109409
1.97750,-101.9405754
1.97800,-96.75227052
1.97850,-87.59643829
1.97900,-78.44060605
1.97950,-70.20035705
1.98000,-61.65491363
1.98050,-52.19388699
1.98100,-39.98611068
1.98150,-25.33677911
1.98200,-10.07705873
1.98250,-0.005643274905
1.98300,0.6047455405
1.98350,-5.193948206
1.98400,-9.771864321
1.98450,-5.193948206
1.98500,6.708633695
1.98550,18.00082678
1.98600,21.96835408
1.98650,21.35796526
1.98700,22.5787429
1.98750,25.32549256
1.98800,24.71510375
1.98850,19.22160441
1.98900,13.11771626
1.98950,10.06577218
1.99000,7.31902251
1.99050,2.435911987
1.99100,-0.005643274905
1.99150,2.435911987
1.99200,9.760577772
1.99250,16.78004915
1.99300,19.52679882
1.99350,18.30602119
1.99400,14.9488827
1.99450,14.03329948
1.99500,20.13718763
1.99550,32.65015835
1.99600,42.4163794
1.99650,41.50079617
1.99700,30.5137975
1.99750,17.08524356
1.99800,10.06577218
1.99850,11.89693863
1.99900,18.00082678
1.99950,21.96835408
2.00000,21.66315967
2.00050,22.27354849
2.00100,27.76704783
2.00150,34.17613039
2.00200,34.4813248
2.00250,26.8514646
2.00300,15.25407711
2.00350,2.435911987
2.00400,-13.12900281
2.00450,-32.35625049
2.00500,-51.58349818
2.00550,-67.14841297
2.00600,-77.21982842
2.00650,-80.57696691
2.00700,-75.69385638
2.00750,-64.4016633
2.00800,-50.66791495
2.00850,-37.84974983
2.00900,-26.25236234
2.00950,-17.09653011
2.01000,-12.8238084
2.01050,-13.12900281
2.01100,-14.04458603
2.01150,-11.60303077
2.01200,-4.888753798
2.01250,3.961884025
2.01300,14.03329948
2.01350,23.18913171
2.01400,30.5137975
2.01450,36.61768565
2.01500,44.24754584
2.01550,54.01376689
2.01600,62.2540159
2.01650,64.69557116
2.01700,61.64362708
2.01750,55.53973893
2.01800,45.16312906
2.01850,28.68263105
2.01900,7.31902251
2.01950,-13.73939162
2.02000,-32.05105608
2.02050,-47.61597088
2.02100,-58.60296955
2.02150,-62.57049685
2.02200,-60.73933041
2.02250,-57.99258074
2.02300,-53.10947021
2.02350,-39.68091628
2.02400,-18.01211333
2.02450,0.2995511328
2.02500,8.539800141
2.02550,12.81252185
2.02600,22.5787429
2.02650,32.95535276
2.02700,35.09171361
2.02750,28.37743664
2.02800,22.8839373
2.02850,21.35796526
2.02900,18.00082678
2.02950,9.455383364
2.03000,-1.531615313
2.03050,-10.07705873
2.03100,-14.96016925
2.03150,-14.96016925
2.03200,-12.21341958
2.03250,-10.99264195
2.03300,-13.43419721
2.03350,-14.96016925
2.03400,-12.21341958
2.03450,-8.245892283
2.03500,-7.33030906
2.03550,-7.025114652
2.03600,-2.447198537
2.03650,4.877467248
2.03700,8.234605733
2.03750,5.487856064
2.03800,0.6047455405
2.03850,-0.921226498
2.03900,0.6047455405
2.03950,6.403439287
2.04000,15.55927152
2.04050,23.18913171
2.04100,24.71510375
2.04150,20.13718763
2.04200,14.33849389
2.04250,10.37096659
2.04300,8.234605733
2.04350,7.013828102
2.04400,7.31902251
2.04450,6.708633695
2.04500,3.961884025
2.04550,-0.6160320903
2.04600,-4.278364983
2.04650,-3.667976167
2.04700,-0.005643274905
2.04750,4.267078433
2.04800,5.793050471
2.04850,5.182661656
2.04900,5.793050471
2.04950,8.539800141
2.05000,10.9813554
2.05050,10.67616099
2.05100,8.844994548
2.05150,9.455383364
2.05200,12.50732744
2.05250,14.9488827
2.05300,14.03329948
2.05350,7.929411325
2.05400,-1.836809721
2.05450,-11.29783636
2.05500,-15.57055807
2.05550,-16.48614129
2.05600,-19.53808537
2.05650,-26.55755674
2.05700,-31.44066727
2.05750,-30.83027845
2.05800,-28.38872319
2.05850,-26.25236234
2.05900,-17.70691892
2.05950,0.2995511328
2.06000,21.05277086
2.06050,36.92288006
2.06100,53.40337807
2.06150,81.48126358
2.06200,114.4422596
2.06250,132.7539241
2.06300,126.9552303
2.06350,106.507205
2.06400,81.17606917
2.06450,49.74104518
2.06500,8.234605733
2.06550,-37.54455542
2.06600,-77.52502283
2.06650,-104.0769363
2.06700,-113.5379629
2.06750,-108.6548524
2.06800,-99.49902019
2.06850,-95.53149289
2.06900,-93.08993762
2.06950,-79.35618928
2.07000,-51.27830377
2.07050,-22.28483504
2.07100,-4.278364983
2.07150,7.929411325
2.07200,22.8839373
2.07250,34.17613039
2.07300,32.03976953
2.07350,20.44238204
2.07400,9.760577772
2.07450,-1.226420906
2.07500,-18.31730774
2.07550,-34.18741694
2.07600,-34.18741694
2.07650,-19.53808537
2.07700,-8.245892283
2.07750,-9.466669914
2.07800,-14.34978044
2.07850,-12.8238084
2.07900,-7.33030906
2.07950,-2.752392944
2.08000,1.825523171
2.08050,8.539800141
2.08100,12.81252185
2.08150,11.89693863
2.08200,8.844994548
2.08250,6.708633695
2.08300,3.656689618
2.08350,-0.005643274905
2.08400,-0.921226498
2.08450,1.215134356
2.08500,1.520328764
2.08550,-2.447198537
2.08600,-6.719920244
2.08650,-5.499142614
2.08700,-0.005643274905
2.08750,7.31902251
2.08800,15.25407711
2.08850,21.05277086
2.08900,21.05277086
2.08950,16.78004915
2.09000,14.03329948
2.09050,15.86446593
2.09100,18.30602119
2.09150,17.39043796
2.09200,15.25407711
2.09250,11.89693863
2.09300,3.961884025
2.09350,-8.245892283
2.09400,-18.62250214
2.09450,-22.28483504
2.09500,-22.89522385
2.09550,-26.25236234
2.09600,-31.44066727
2.09650,-31.74586168
2.09700,-25.94716793
2.09750,-17.40172451
2.09800,-9.466669914
2.09850,-0.921226498
2.09900,9.150188956
2.09950,20.13718763
2.10000,27.76704783
2.10050,28.98782546
2.10100,24.40990934
2.10150,16.47485474
2.10200,7.929411325
2.10250,1.520328764
2.10300,-1.226420906
2.10350,-1.836809721
2.10400,-2.752392944
2.10450,-6.109531429
2.10500,-7.940697875
2.10550,-4.278364983
2.10600,2.741106394
2.10650,7.929411325
2.10700,10.06577218
2.10750,13.11771626
2.10800,20.13718763
2.10850,28.07224223
2.10900,33.56574157
2.10950,35.70210243
2.11000,36.00729683
2.11050,33.87093598
2.11100,29.29301986
2.11150,24.40990934
2.11200,20.44238204
2.11250,16.16966033
2.11300,10.9813554
2.11350,4.877467248
2.11400,-2.142004129
2.11450,-12.21341958
2.11500,-21.97964063
2.11550,-27.16794556
2.11600,-26.25236234
2.11650,-23.81080708
2.11700,-23.20041826
2.11750,-21.97964063
2.11800,-20.14847418
2.11850,-20.45366859
2.11900,-26.55755674
2.11950,-33.27183371
2.12000,-34.79780575
2.12050,-31.13547286
2.12100,-28.38872319
2.12150,-27.16794556
2.12200,-21.06405741
2.12250,-5.499142614
2.12300,14.33849389
2.12350,29.90340868
2.12400,38.4488521
2.12450,44.55274025
2.12500,53.40337807
2.12550,64.08518234
2.12600,69.88387609
2.12650,64.08518234
2.12700,46.6891011
2.12750,25.02029816
2.12800,6.098244879
2.12850,-8.245892283
2.12900,-22.59002944
2.12950,-37.54455542
2.13000,-51.27830377
2.13050,-59.82374718
2.13100,-60.434136
2.13150,-51.27830377
2.13200,-32.96663931
2.13250,-12.8238084
2.13300,0.2995511328
2.13350,6.098244879
2.13400,10.9813554
2.13450,18.00082678
2.13500,23.18913171
2.13550,25.63068697
2.13600,30.5137975
2.13650,41.50079617
2.13700,51.57221163
2.13750,53.40337807
2.13800,51.26701722
2.13850,55.23454452
2.13900,64.39037675
2.13950,68.05270964
2.14000,58.591683
2.14050,40.58521295
2.14100,20.44238204
2.14150,-0.005643274905
2.14200,-21.97964063
2.14250,-45.17441561
2.14300,-67.75880178
2.14350,-85.76527184
2.14400,-92.78474322
2.14450,-87.90163269
2.14500,-77.83021724
2.14550,-71.11594027
2.14600,-65.01205212
2.14650,-51.27830377
2.14700,-30.52508405
2.14750,-12.8238084
2.14800,-3.36278176
2.14850,3.046300802
2.14900,11.59174422
2.14950,18.91641
2.15000,21.35796526
2.15050,23.18913171
2.15100,29.29301986
2.15150,35.09171361
2.15200,34.4813248
2.15250,28.98782546
2.15300,25.63068697
2.15350,24.10471493
2.15400,16.78004915
2.15450,0.2995511328
2.15500,-17.40172451
2.15550,-28.38872319
2.15600,-31.74586168
2.15650,-32.6614449
2.15700,-34.18741694
2.15750,-35.10300016
2.15800,-34.79780575
2.15850,-32.6614449
2.15900,-28.6939176
2.15950,-22.28483504
2.16000,-14.96016925
2.16050,-8.245892283
2.16100,-4.58355939
2.16150,-3.057587352
2.16200,-1.836809721
2.16250,0.6047455405
2.16300,5.487856064
2.16350,11.28654981
2.16400,15.55927152
2.16450,18.91641
2.16500,24.10471493
2.16550,32.65015835
2.16600,41.19560176
2.16650,46.3839067
2.16700,48.52026755
2.16750,51.87740603
2.16800,57.67609978
2.16850,60.11765504
2.16900,52.48779485
2.16950,35.39690802
2.17000,18.00082678
2.17050,7.013828102
2.17100,-0.3108376826
2.17150,-13.12900281
2.17200,-33.27183371
2.17250,-54.33024785
2.17300,-68.97957942
2.17350,-76.60943961
2.17400,-81.79774454
2.17450,-83.62891099
2.17500,-76.91463402
2.17550,-56.77180311
2.17600,-25.94716793
2.17650,5.793050471
2.17700,30.8189919
2.17750,47.90987873
2.17800,62.2540159
2.17850,74.4617922
2.17900,79.03970832
2.17950,70.79945931
2.18000,52.79298926
2.18050,35.09171361
2.18100,22.5787429
2.18150,10.9813554
2.18200,-3.973170575
2.18250,-20.758863
2.18300,-35.71338898
2.18350,-48.83674851
2.18400,-60.434136
2.18450,-64.70685771
2.18500,-58.90816396
2.18550,-47.61597088
2.18600,-39.37572187
2.18650,-33.57702812
2.18700,-25.64197352
2.18750,-15.87575248
2.18800,-9.161475506
2.18850,-6.414725837
2.18900,-2.142004129
2.18950,5.793050471
2.19000,12.20213303
2.19050,10.67616099
2.19100,3.35149521
2.19150,-3.057587352
2.19200,-7.025114652
2.19250,-11.29783636
2.19300,-18.92769655
2.19350,-25.94716793
2.19400,-25.94716793
2.19450,-17.40172451
2.19500,-5.804337021
2.19550,2.130717579
2.19600,7.31902251
2.19650,14.03329948
2.19700,24.71510375
2.19750,36.61768565
2.19800,44.85793466
2.19850,46.6891011
2.19900,41.50079617
2.19950,30.8189919
2.20000,18.91641
2.20050,10.37096659
2.20100,3.656689618
2.20150,-6.414725837
2.20200,-20.758863
2.20250,-29.30430641
2.20300,-23.81080708
2.20350,-10.38225314
2.20400,-1.531615313
2.20450,0.9099399482
2.20500,5.487856064
2.20550,15.55927152
2.20600,23.79952053
2.20650,22.5787429
2.20700,14.03329948
2.20750,4.877467248
2.20800,-4.58355939
2.20850,-14.96016925
2.20900,-21.36925181
2.20950,-17.70691892
2.21000,-6.719920244
2.21050,2.435911987
2.21100,6.098244879
2.21150,7.929411325
2.21200,11.59174422
2.21250,16.16966033
2.21300,20.74757645
2.21350,26.8514646
2.21400,32.95535276
2.21450,35.70210243
2.21500,34.4813248
2.21550,31.12418631
2.21600,26.8514646
2.21650,21.35796526
2.21700,14.9488827
2.21750,10.67616099
2.21800,11.28654981
2.21850,14.9488827
2.21900,20.74757645
2.21950,27.76704783
2.22000,33.26054716
2.22050,32.65015835
2.22100,26.8514646
2.22150,21.35796526
2.22200,19.83199323
2.22250,18.61121559
2.22300,9.455383364
2.22350,-7.33030906
2.22400,-26.25236234
2.22450,-40.29130509
2.22500,-48.5315541
2.22550,-51.88869258
2.22600,-51.88869258
2.22650,-50.05752614
2.22700,-48.5315541
2.22750,-45.47961002
2.22800,-36.32377779
2.22850,-18.92769655
2.22900,0.9099399482
2.22950,14.33849389
2.23000,17.08524356
2.23050,12.20213303
2.23100,3.046300802
2.23150,-10.07705873
2.23200,-25.33677911
2.23250,-34.18741694
2.23300,-30.83027845
2.23350,-21.36925181
2.23400,-17.40172451
2.23450,-20.14847418
2.23500,-20.14847418
2.23550,-12.21341958
2.23600,-3.057587352
2.23650,1.215134356
2.23700,7.013828102
2.23750,22.5787429
2.23800,42.7215738
2.23850,53.70857248
2.23900,50.6566284
2.23950,43.02676821
2.24000,40.28001854
2.24050,40.58521295
2.24100,37.53326887
2.24150,28.98782546
2.24200,17.39043796
2.24250,3.961884025
2.24300,-10.68744754
2.24350,-24.11600148
2.24400,-32.35625049
2.24450,-39.37572187
2.24500,-50.66791495
2.24550,-63.18088567
2.24600,-65.01205212
2.24650,-51.27830377
2.24700,-32.05105608
2.24750,-19.53808537
2.24800,-15.26536366
2.24850,-9.771864321
2.24900,2.435911987
2.24950,19.83199323
2.25000,37.22807446
2.25050,53.70857248
2.25100,68.05270964
2.25150,79.34490273
2.25200,85.75398529
2.25250,83.92281884
2.25300,71.71504253
2.25350,46.07871229
2.25400,11.28654981
2.25450,-23.81080708
2.25500,-52.4990814
2.25550,-74.77827316
2.25600,-93.08993762
2.25650,-106.823686
2.25700,-112.0119909
2.25750,-108.0444636
2.25800,-99.19382578
2.25850,-88.81721592
2.25900,-76.60943961
2.25950,-61.34971922
2.26000,-43.34324917
2.26050,-23.50561267
2.26100,-0.005643274905
2.26150,23.49432612
2.26200,39.05924091
2.26250,39.05924091
2.26300,29.59821427
2.26350,25.93588138
2.26400,36.31249124
2.26450,51.87740603
2.26500,60.11765504
2.26550,58.591683
2.26600,53.09818367
2.26650,48.82546196
2.26700,45.16312906
2.26750,38.4488521
2.26800,28.37743664
2.26850,17.08524356
2.26900,9.760577772
2.26950,10.06577218
2.27000,15.86446593
2.27050,23.79952053
2.27100,32.65015835
2.27150,43.63715703
2.27200,54.01376689
2.27250,58.591683
2.27300,56.15012774
2.27350,50.6566284
2.27400,42.7215738
2.27450,25.63068697
2.27500,-2.752392944
2.27550,-34.79780575
2.27600,-60.12894159
2.27650,-77.21982842
2.27700,-88.81721592
2.27750,-93.70032644
2.27800,-88.51202151
2.27850,-75.38866198
2.27900,-58.90816396
2.27950,-38.46013865
2.28000,-12.8238084
2.28050,8.844994548
2.28100,14.9488827
2.28150,6.098244879
2.28200,-0.6160320903
2.28250,5.487856064
2.28300,17.69563237
2.28350,21.35796526
2.28400,15.25407711
2.28450,10.06577218
2.28500,11.59174422
2.28550,11.59174422
2.28600,3.35149521
2.28650,-7.635503467
2.28700,-10.68744754
2.28750,-4.278364983
2.28800,2.741106394
2.28850,4.877467248
2.28900,6.098244879
2.28950,11.28654981
2.29000,16.78004915
2.29050,15.25407711
2.29100,5.182661656
2.29150,-6.414725837
2.29200,-11.29783636
2.29250,-8.856281098
2.29300,-4.278364983
2.29350,-2.752392944
2.29400,-3.36278176
2.29450,-1.531615313
2.29500,3.046300802
2.29550,7.31902251
2.29600,7.31902251
2.29650,4.572272841
2.29700,1.520328764
2.29750,-2.142004129
2.29800,-7.025114652
2.29850,-10.68744754
2.29900,-10.68744754
2.29950,-9.466669914
2.30000,-10.68744754
2.30050,-11.90822518
2.30100,-7.940697875
2.30150,-0.005643274905
2.30200,7.929411325
2.30250,12.50732744
2.30300,16.78004915
2.30350,22.8839373
2.30400,28.37743664
2.30450,30.8189919
2.30500,31.42938072
2.30550,34.4813248
2.30600,42.4163794
2.30650,50.6566284
2.30700,51.26701722
2.30750,43.63715703
2.30800,37.53326887
2.30850,41.19560176
2.30900,48.52026755
2.30950,45.77351788
2.31000,29.59821427
2.31050,8.844994548
2.31100,-10.38225314
2.31150,-27.16794556
2.31200,-35.71338898
2.31250,-32.35625049
2.31300,-24.42119589
2.31350,-25.64197352
2.31400,-34.18741694
2.31450,-35.10300016
2.31500,-24.42119589
2.31550,-15.87575248
2.31600,-18.31730774
2.31650,-23.20041826
2.31700,-25.03158471
2.31750,-30.52508405
2.31800,-46.08999884
2.31850,-63.48608008
2.31900,-72.64191231
2.31950,-75.38866198
2.32000,-75.69385638
2.32050,-70.20035705
2.32100,-57.07699752
2.32150,-46.08999884
2.32200,-44.5640268
2.32250,-43.95363798
2.32300,-32.6614449
2.32350,-14.65497484
2.32400,-2.752392944
2.32450,-0.921226498
2.32500,-0.6160320903
2.32550,5.487856064
2.32600,17.69563237
2.32650,29.90340868
2.32700,36.92288006
2.32750,38.14365769
2.32800,38.4488521
2.32850,43.02676821
2.32900,48.82546196
2.32950,48.52026755
2.33000,40.89040736
2.33050,32.03976953
2.33100,25.02029816
2.33150,22.27354849
2.33200,27.15665901
2.33250,41.50079617
2.33300,55.23454452
2.33350,56.15012774
2.33400,47.29948992
2.33450,43.94235143
2.33500,48.82546196
2.33550,48.21507314
2.33600,33.26054716
2.33650,10.67616099
2.33700,-9.771864321
2.33750,-30.21988964
2.33800,-51.88869258
2.33850,-68.3691906
2.33900,-74.47307875
2.33950,-75.99905079
2.34000,-78.74580046
2.34050,-77.83021724
2.34100,-66.53802415
2.34150,-48.5315541
2.34200,-32.6614449
2.34250,-18.01211333
2.34300,-0.3108376826
2.34350,17.08524356
2.34400,24.71510375
2.34450,19.22160441
2.34500,10.06577218
2.34550,6.098244879
2.34600,7.31902251
2.34650,8.234605733
2.34700,4.877467248
2.34750,-0.005643274905
2.34800,1.520328764
2.34850,13.72810507
2.34900,33.26054716
2.34950,49.43585077
2.35000,56.15012774
2.35050,58.89687741
2.35100,65.30595997
2.35150,73.24101457
2.35200,72.93582017
2.35250,60.42284945
2.35300,41.50079617
2.35350,21.96835408
2.35400,1.520328764
2.35450,-21.06405741
2.35500,-41.51208272
2.35550,-51.58349818
2.35600,-52.80427581
2.35650,-52.4990814
2.35700,-53.71985903
2.35750,-49.44713732
2.35800,-36.01858338
2.35850,-20.14847418
2.35900,-10.07705873
2.35950,-3.973170575
2.36000,6.403439287
2.36050,20.74757645
2.36100,30.8189919
2.36150,33.56574157
2.36200,35.09171361
2.36250,39.97482413
2.36300,43.33196262
2.36350,39.36443532
2.36400,29.90340868
2.36450,19.22160441
2.36500,7.624216918
2.36550,-2.447198537
2.36600,-6.719920244
2.36650,-4.278364983
2.36700,-1.531615313
2.36750,-4.278364983
2.36800,-6.719920244
2.36850,-0.005643274905
2.36900,11.89693863
2.36950,18.61121559
2.37000,11.89693863
2.37050,-6.414725837
2.37100,-31.44066727
2.37150,-55.55102548
2.37200,-69.89516264
2.37250,-73.25230112
2.37300,-70.81074586
2.37350,-68.06399619
2.37400,-61.65491363
2.37450,-48.22635969
2.37500,-33.27183371
2.37550,-24.11600148
2.37600,-20.45366859
2.37650,-14.04458603
2.37700,-1.836809721
2.37750,11.89693863
2.37800,20.44238204
2.37850,19.83199323
2.37900,12.20213303
2.37950,3.656689618
2.38000,-0.005643274905
2.38050,-0.3108376826
2.38100,-4.58355939
2.38150,-13.12900281
2.38200,-15.87575248
2.38250,-8.856281098
2.38300,-1.531615313
2.38350,-2.447198537
2.38400,-7.33030906
2.38450,-6.109531429
2.38500,-0.005643274905
2.38550,3.35149521
2.38600,2.435911987
2.38650,1.825523171
2.38700,3.656689618
2.38750,3.35149521
2.38800,-0.005643274905
2.38850,-3.057587352
2.38900,-2.142004129
2.38950,0.6047455405
2.39000,2.130717579
2.39050,2.130717579
2.39100,2.741106394
2.39150,7.31902251
2.39200,15.55927152
2.39250,26.24107579
2.39300,35.09171361
2.39350,40.89040736
2.39400,43.94235143
2.39450,46.3839067
2.39500,49.43585077
2.39550,50.96182281
2.39600,49.43585077
2.39650,45.16312906
2.39700,40.89040736
2.39750,35.39690802
2.39800,25.32549256
2.39850,9.760577772
2.39900,-4.278364983
2.39950,-10.99264195
2.40000,-13.12900281
2.40050,-18.31730774
2.40100,-26.86275115
2.40150,-32.35625049
2.40200,-32.05105608
2.40250,-28.38872319
2.40300,-21.97964063
2.40350,-8.856281098
2.40400,8.234605733
2.40450,20.74757645
2.40500,25.63068697
2.40550,31.42938072
2.40600,43.94235143
2.40650,53.70857248
2.40700,49.74104518
2.40750,32.95535276
2.40800,14.64368829
2.40850,-0.005643274905
2.40900,-13.43419721
2.40950,-24.7263903
2.41000,-31.44066727
2.41050,-34.18741694
2.41100,-36.01858338
2.41150,-38.46013865
2.41200,-39.98611068
2.41250,-37.23936101
2.41300,-30.52508405
2.41350,-21.97964063
2.41400,-17.09653011
2.41450,-20.14847418
2.41500,-28.38872319
2.41550,-33.27183371
2.41600,-27.47313997
2.41650,-11.29783636
2.41700,7.624216918
2.41750,23.18913171
2.41800,34.17613039
2.41850,45.16312906
2.41900,58.89687741
2.41950,69.57868168
2.42000,69.57868168
2.42050,57.67609978
2.42100,40.89040736
2.42150,24.71510375
2.42200,7.624216918
2.42250,-8.245892283
2.42300,-20.45366859
2.42350,-31.44066727
2.42400,-49.14194291
2.42450,-69.89516264
2.42500,-72.03152349
2.42550,-48.22635969
2.42600,-22.89522385
2.42650,-26.25236234
2.42700,-52.4990814
2.42750,-65.31724652
2.42800,-44.86922121
2.42850,-6.414725837
2.42900,27.76704783
2.42950,56.45532215
2.43000,86.66956851
2.43050,114.1370652
2.43100,128.7863968
2.43150,131.8383409
2.43200,132.7539241
2.43250,133.3643129
2.43300,124.5136751
2.43350,97.65656719
2.43400,55.23454452
2.43450,7.013828102
2.43500,-38.15494424
2.43550,-77.21982842
2.43600,-108.6548524
2.43650,-130.6288498
2.43700,-143.7522093
2.43750,-148.3301254
2.43800,-145.5833757
2.43850,-131.544433
2.43900,-103.4665475
2.43950,-66.23282975
2.44000,-31.44066727
2.44050,-7.025114652
2.44100,8.539800141
2.44150,19.83199323
2.44200,24.71510375
2.44250,20.44238204
2.44300,12.20213303
2.44350,6.403439287
2.44400,2.435911987
2.44450,-5.804337021
2.44500,-19.84327978
2.44550,-32.05105608
2.44600,-35.40819457
2.44650,-31.74586168
2.44700,-27.47313997
2.44750,-25.94716793
2.44800,-25.64197352
2.44850,-21.67444622
2.44900,-13.73939162
2.44950,-6.109531429
2.45000,-2.142004129
2.45050,-0.3108376826
2.45100,4.267078433
2.45150,14.64368829
2.45200,27.76704783
2.45250,39.66962973
2.45300,47.60468433
2.45350,52.79298926
2.45400,59.50726623
2.45450,70.1890705
2.45500,80.56568036
2.45550,81.78645799
2.45600,69.57868168
2.45650,50.351434
2.45700,32.65015835
2.45750,18.91641
2.45800,4.267078433
2.45850,-14.96016925
2.45900,-37.23936101
2.45950,-56.4666087
2.46000,-66.84321856
2.46050,-67.75880178
2.46100,-65.01205212
2.46150,-65.31724652
2.46200,-65.01205212
2.46250,-55.85621988
2.46300,-38.15494424
2.46350,-24.7263903
2.46400,-22.28483504
2.46450,-22.28483504
2.46500,-14.96016925
2.46550,-3.973170575
2.46600,0.6047455405
2.46650,-0.005643274905
2.46700,2.741106394
2.46750,11.28654981
2.46800,20.13718763
2.46850,28.37743664
2.46900,38.7540465
2.46950,50.351434
2.47000,56.15012774
2.47050,53.40337807
2.47100,47.29948992
2.47150,44.85793466
2.47200,44.85793466
2.47250,39.36443532
2.47300,25.32549256
2.47350,10.67616099
2.47400,6.403439287
2.47450,10.67616099
2.47500,12.20213303
2.47550,6.403439287
2.47600,-0.005643274905
2.47650,-2.752392944
2.47700,-5.499142614
2.47750,-14.04458603
2.47800,-23.81080708
2.47850,-30.21988964
2.47900,-37.54455542
2.47950,-46.08999884
2.48000,-45.17441561
2.48050,-25.03158471
2.48100,2.741106394
2.48150,15.86446593
2.48200,7.31902251
2.48250,-6.719920244
2.48300,-11.60303077
2.48350,-7.33030906
2.48400,-3.973170575
2.48450,-5.193948206
2.48500,-8.551086691
2.48550,-10.38225314
2.48600,-10.38225314
2.48650,-9.771864321
2.48700,-7.025114652
2.48750,1.215134356
2.48800,17.69563237
2.48850,36.61768565
2.48900,48.82546196
2.48950,53.40337807
2.49000,59.50726623
2.49050,70.1890705
2.49100,75.07218102
2.49150,63.16959912
2.49200,40.58521295
2.49250,22.8839373
2.49300,16.47485474
2.49350,13.42291066
2.49400,4.572272841
2.49450,-7.025114652
2.49500,-12.21341958
2.49550,-6.414725837
2.49600,4.572272841
2.49650,12.50732744
2.49700,10.37096659
2.49750,-3.36278176
2.49800,-26.86275115
2.49850,-52.19388699
2.49900,-68.67438501
2.49950,-71.42113468
2.50000,-67.75880178
2.50050,-66.53802415
2.50100,-65.62244093
2.50150,-55.24583107
2.50200,-34.18741694
2.50250,-12.51861399
2.50300,1.215134356
2.50350,11.59174422
2.50400,23.79952053
2.50450,34.4813248
2.50500,37.22807446
2.50550,34.7865192
2.50600,32.95535276
2.50650,31.12418631
2.50700,25.02029816
2.50750,14.33849389
2.50800,3.35149521
2.50850,-9.466669914
2.50900,-26.25236234
2.50950,-40.90169391
2.51000,-42.73286035
2.51050,-31.44066727
2.51100,-17.09653011
2.51150,-6.719920244
2.51200,1.520328764
2.51250,11.59174422
2.51300,19.83199323
2.51350,19.52679882
2.51400,11.28654981
2.51450,0.2995511328
2.51500,-8.245892283
2.51550,-16.18094688
2.51600,-25.94716793
2.51650,-39.37572187
2.51700,-53.10947021
2.51750,-58.90816396
2.51800,-50.36272055
2.51850,-29.60950082
2.51900,-9.771864321
2.51950,-0.6160320903
2.52000,4.877467248
2.52050,21.35796526
2.52100,48.82546196
2.52150,71.71504253
2.52200,79.65009714
2.52250,81.48126358
2.52300,85.75398529
2.52350,86.0591797
2.52400,68.96829287
2.52450,37.83846328
2.52500,8.234605733
2.52550,-13.73939162
2.52600,-34.49261135
2.52650,-54.02505344
2.52700,-62.87569126
2.52750,-55.55102548
2.52800,-39.98611068
2.52850,-26.86275115
2.52900,-19.84327978
2.52950,-13.73939162
2.53000,-0.005643274905
2.53050,29.29301986
2.53100,69.27348727
2.53150,99.79292804
2.53200,103.4552609
2.53250,87.89034614
2.53300,73.54620898
2.53350,65.30595997
2.53400,49.13065637
2.53450,16.78004915
2.53500,-18.92769655
2.53550,-45.47961002
2.53600,-66.84321856
2.53650,-90.03799355
2.53700,-108.0444636
2.53750,-110.1808245
2.53800,-101.0249922
2.53850,-95.83668729
2.53900,-97.66785374
2.53950,-91.56396559
2.54000,-68.3691906
2.54050,-39.98611068
2.54100,-23.20041826
2.54150,-18.92769655
2.54200,-14.96016925
2.54250,-7.940697875
2.54300,-6.414725837
2.54350,-13.12900281
2.54400,-17.09653011
2.54450,-7.940697875
2.54500,7.929411325
2.54550,19.22160441
2.54600,23.79952053
2.54650,28.68263105
2.54700,34.7865192
2.54750,36.92288006
2.54800,32.03976953
2.54850,25.93588138
2.54900,21.96835408
2.54950,18.91641
2.55000,15.25407711
2.55050,10.9813554
2.55100,6.098244879
2.55150,0.9099399482
2.55200,-2.752392944
2.55250,-2.447198537
2.55300,1.215134356
2.55350,7.31902251
2.55400,14.64368829
2.55450,23.49432612
2.55500,31.73457513
2.55550,35.70210243
2.55600,33.87093598
2.55650,28.07224223
2.55700,21.35796526
2.55750,15.55927152
2.55800,9.455383364
2.55850,0.2995511328
2.55900,-10.99264195
2.55950,-17.70691892
2.56000,-14.96016925
2.56050,-8.551086691
2.56100,-7.635503467
2.56150,-8.245892283
2.56200,-0.6160320903
2.56250,11.59174422
2.56300,14.64368829
2.56350,4.572272841
2.56400,-5.804337021
2.56450,-7.940697875
2.56500,-8.551086691
2.56550,-12.51861399
2.56600,-12.8238084
2.56650,-3.36278176
2.56700,9.455383364
2.56750,17.69563237
2.56800,21.35796526
2.56850,24.10471493
2.56900,23.79952053
2.56950,17.39043796
2.57000,9.760577772
2.57050,5.182661656
2.57100,0.2995511328
2.57150,-10.68744754
2.57200,-26.55755674
2.57250,-39.98611068
2.57300,-46.08999884
2.57350,-43.64844358
2.57400,-34.18741694
2.57450,-22.28483504
2.57500,-13.73939162
2.57550,-9.466669914
2.57600,-6.719920244
2.57650,-3.667976167
2.57700,-1.531615313
2.57750,1.825523171
2.57800,9.455383364
2.57850,19.22160441
2.57900,26.8514646
2.57950,32.95535276
2.58000,39.66962973
2.58050,46.3839067
2.58100,50.6566284
2.58150,54.6241557
2.58200,59.50726623
2.58250,59.81246063
2.58300,50.351434
2.58350,34.4813248
2.58400,21.35796526
2.58450,11.59174422
2.58500,0.2995511328
2.58550,-13.73939162
2.58600,-29.60950082
2.58650,-48.5315541
2.58700,-69.58996823
2.58750,-82.71332776
2.58800,-77.21982842
2.58850,-55.24583107
2.58900,-26.86275115
2.58950,-1.531615313
2.59000,14.9488827
2.59050,18.61121559
2.59100,12.20213303
2.59150,8.539800141
2.59200,15.25407711
2.59250,24.71510375
2.59300,25.32549256
2.59350,18.91641
2.59400,14.9488827
2.59450,14.64368829
2.59500,10.67616099
2.59550,2.741106394
2.59600,-6.109531429
2.59650,-16.48614129
2.59700,-25.33677911
2.59750,-22.28483504
2.59800,-2.752392944
2.59850,18.00082678
2.59900,23.49432612
2.59950,16.47485474
2.60000,12.50732744
2.60050,14.03329948
2.60100,9.150188956
2.60150,-4.888753798
2.60200,-19.23289096
2.60250,-28.99911201
2.60300,-39.37572187
2.60350,-48.22635969
2.60400,-43.95363798
2.60450,-24.7263903
2.60500,-7.940697875
2.60550,-5.193948206
2.60600,-5.499142614
2.60650,6.708633695
2.60700,29.29301986
2.60750,46.99429551
2.60800,53.70857248
2.60850,56.45532215
2.60900,56.76051656
2.60950,48.52026755
2.61000,31.42938072
2.61050,17.08524356
2.61100,12.20213303
2.61150,7.929411325
2.61200,-6.109531429
2.61250,-24.11600148
2.61300,-28.08352878
2.61350,-15.26536366
2.61400,-5.499142614
2.61450,-15.26536366
2.61500,-36.32377779
2.61550,-44.5640268
2.61600,-28.99911201
2.61650,-4.58355939
2.61700,6.403439287
2.61750,-0.3108376826
2.61800,-15.57055807
2.61850,-27.77833438
2.61900,-33.27183371
2.61950,-33.57702812
2.62000,-31.13547286
2.62050,-31.44066727
2.62100,-37.84974983
2.62150,-45.47961002
2.62200,-43.64844358
2.62250,-26.55755674
2.62300,-4.58355939
2.62350,5.487856064
2.62400,-1.531615313
2.62450,-13.73939162
2.62500,-14.04458603
2.62550,-0.3108376826
2.62600,16.16966033
2.62650,24.40990934
2.62700,26.5462702
2.62750,29.90340868
2.62800,35.39690802
2.62850,36.61768565
2.62900,30.20860309
2.62950,22.27354849
2.63000,18.00082678
2.63050,16.16966033
2.63100,10.9813554
2.63150,2.741106394
2.63200,-3.36278176
2.63250,-4.278364983
2.63300,-3.057587352
2.63350,-4.278364983
2.63400,-7.635503467
2.63450,-8.245892283
2.63500,-6.109531429
2.63550,-5.499142614
2.63600,-9.161475506
2.63650,-14.34978044
2.63700,-15.87575248
2.63750,-14.04458603
2.63800,-9.466669914
2.63850,-0.005643274905
2.63900,15.55927152
2.63950,28.98782546
2.64000,28.07224223
2.64050,14.9488827
2.64100,3.961884025
2.64150,4.267078433
2.64200,9.455383364
2.64250,12.20213303
2.64300,12.81252185
2.64350,12.50732744
2.64400,5.182661656
2.64450,-10.07705873
2.64500,-22.28483504
2.64550,-18.31730774
2.64600,-4.58355939
2.64650,1.520328764
2.64700,-4.278364983
2.64750,-11.29783636
2.64800,-11.90822518
2.64850,-13.12900281
2.64900,-21.67444622
2.64950,-30.21988964
2.65000,-24.11600148
2.65050,-2.752392944
2.65100,19.22160441
2.65150,27.76704783
2.65200,23.79952053
2.65250,21.35796526
2.65300,28.98782546
2.65350,42.4163794
2.65400,50.6566284
2.65450,49.43585077
2.65500,42.11118499
2.65550,30.20860309
2.65600,13.11771626
2.65650,-5.193948206
2.65700,-19.84327978
2.65750,-30.52508405
2.65800,-40.90169391
2.65850,-49.75233173
2.65900,-50.05752614
2.65950,-40.5964995
2.66000,-28.38872319
2.66050,-15.57055807
2.66100,2.741106394
2.66150,25.63068697
2.66200,41.50079617
2.66250,45.77351788
2.66300,48.82546196
2.66350,55.84493333
2.66400,54.3189613
2.66450,33.56574157
2.66500,5.487856064
2.66550,-7.025114652
2.66600,-3.973170575
2.66650,-1.836809721
2.66700,-6.414725837
2.66750,-7.940697875
2.66800,-4.888753798
2.66850,-7.635503467
2.66900,-17.70691892
2.66950,-21.67444622
2.67000,-13.12900281
2.67050,-6.109531429
2.67100,-12.8238084
2.67150,-26.25236234
2.67200,-32.35625049
2.67250,-29.30430641
2.67300,-23.50561267
2.67350,-15.26536366
2.67400,0.2995511328
2.67450,22.5787429
2.67500,43.02676821
2.67550,52.18260044
2.67600,47.90987873
2.67650,37.83846328
2.67700,31.73457513
2.67750,25.63068697
2.67800,0.9099399482
2.67850,-45.78480443
2.67900,-81.79774454
2.67950,-69.89516264
2.68000,-22.28483504
2.68050,4.267078433
2.68100,-20.758863
2.68150,-67.45360738
2.68200,-85.15488302
2.68250,-61.96010804
2.68300,-24.42119589
2.68350,3.961884025
2.68400,18.30602119
2.68450,22.27354849
2.68500,22.27354849
2.68550,28.37743664
2.68600,42.4163794
2.68650,52.18260044
2.68700,47.90987873
2.68750,39.36443532
2.68800,41.19560176
2.68850,49.13065637
2.68900,45.77351788
2.68950,25.93588138
2.69000,-0.005643274905
2.69050,-22.28483504
2.69100,-38.76533305
2.69150,-48.83674851
2.69200,-54.63544225
2.69250,-61.65491363
2.69300,-71.72632908
2.69350,-75.38866198
2.69400,-63.79127448
2.69450,-43.64844358
2.69500,-28.38872319
2.69550,-19.84327978
2.69600,-8.551086691
2.69650,7.013828102
2.69700,15.86446593
2.69750,12.20213303
2.69800,5.182661656
2.69850,5.182661656
2.69900,12.20213303
2.69950,19.22160441
2.70000,23.18913171
2.70050,25.02029816
2.70100,25.02029816
2.70150,20.13718763
2.70200,10.9813554
2.70250,2.435911987
2.70300,-1.226420906
2.70350,-0.921226498
2.70400,0.6047455405
2.70450,-0.005643274905
2.70500,-3.36278176
2.70550,-7.940697875
2.70600,-9.771864321
2.70650,-6.719920244
2.70700,-0.6160320903
2.70750,4.877467248
2.70800,9.150188956
2.70850,11.89693863
2.70900,12.50732744
2.70950,12.20213303
2.71000,12.20213303
2.71050,13.11771626
2.71100,14.33849389
2.71150,16.47485474
2.71200,19.52679882
2.71250,20.44238204
2.71300,14.64368829
2.71350,2.435911987
2.71400,-9.771864321
2.71450,-18.01211333
2.71500,-22.28483504
2.71550,-21.36925181
2.71600,-10.07705873
2.71650,10.67616099
2.71700,29.59821427
2.71750,37.53326887
2.71800,41.19560176
2.71850,51.26701722
2.71900,65.30595997
2.71950,73.85140339
2.72000,75.37737543
2.72050,72.32543135
2.72100,57.67609978
2.72150,21.66315967
2.72200,-22.89522385
2.72250,-48.22635969
2.72300,-44.86922121
2.72350,-34.18741694
2.72400,-38.46013865
2.72450,-53.71985903
2.72500,-66.23282975
2.72550,-74.16788435
2.72600,-81.18735572
2.72650,-82.71332776
2.72700,-70.50555145
2.72750,-48.83674851
2.72800,-30.83027845
2.72850,-22.28483504
2.72900,-17.70691892
2.72950,-13.43419721
2.73000,-9.771864321
2.73050,-3.973170575
2.73100,7.31902251
2.73150,21.66315967
2.73200,31.12418631
2.73250,33.87093598
2.73300,37.83846328
2.73350,47.29948992
2.73400,56.15012774
2.73450,55.53973893
2.73500,44.24754584
2.73550,27.76704783
2.73600,7.31902251
2.73650,-20.758863
2.73700,-53.71985903
2.73750,-73.86268994
2.73800,-67.75880178
2.73850,-45.78480443
2.73900,-32.96663931
2.73950,-35.40819457
2.74000,-34.79780575
2.74050,-16.48614129
2.74100,9.760577772
2.74150,27.76704783
2.74200,39.36443532
2.74250,57.98129419
2.74300,82.3968468
2.74350,94.90981752
2.74400,86.3643741
2.74450,67.74751523
2.74500,52.18260044
2.74550,40.28001854
2.74600,22.5787429
2.74650,-3.36278176
2.74700,-29.60950082
2.74750,-46.08999884
2.74800,-49.14194291
2.74850,-41.20688831
2.74900,-27.16794556
2.74950,-12.21341958
2.75000,-3.973170575
2.75050,-7.940697875
2.75100,-20.758863
2.75150,-28.6939176
2.75200,-24.7263903
2.75250,-15.57055807
2.75300,-13.12900281
2.75350,-16.7913357
2.75400,-18.31730774
2.75450,-16.48614129
2.75500,-15.26536366
2.75550,-10.99264195
2.75600,3.046300802
2.75650,22.27354849
2.75700,29.90340868
2.75750,20.44238204
2.75800,5.793050471
2.75850,-2.447198537
2.75900,-6.414725837
2.75950,-11.29783636
2.76000,-13.43419721
2.76050,-10.38225314
2.76100,-8.551086691
2.76150,-14.34978044
2.76200,-21.06405741
2.76250,-19.23289096
2.76300,-10.07705873
2.76350,-2.752392944
2.76400,-0.921226498
2.76450,-0.005643274905
2.76500,2.130717579
2.76550,4.877467248
2.76600,8.539800141
2.76650,15.55927152
2.76700,23.49432612
2.76750,26.5462702
2.76800,24.10471493
2.76850,19.52679882
2.76900,15.25407711
2.76950,11.28654981
2.77000,10.67616099
2.77050,14.64368829
2.77100,19.52679882
2.77150,20.13718763
2.77200,18.61121559
2.77250,20.44238204
2.77300,22.5787429
2.77350,19.22160441
2.77400,10.9813554
2.77450,3.656689618
2.77500,-3.057587352
2.77550,-12.8238084
2.77600,-21.67444622
2.77650,-21.97964063
2.77700,-16.7913357
2.77750,-17.09653011
2.77800,-20.14847418
2.77850,-12.51861399
2.77900,6.708633695
2.77950,21.96835408
2.78000,21.66315967
2.78050,15.86446593
2.78100,17.08524356
2.78150,24.40990934
2.78200,33.87093598
2.78250,48.82546196
2.78300,66.2215432
2.78350,69.88387609
2.78400,51.57221163
2.78450,25.02029816
2.78500,7.013828102
2.78550,-3.057587352
2.78600,-15.87575248
2.78650,-33.57702812
2.78700,-48.83674851
2.78750,-52.4990814
2.78800,-38.15494424
2.78850,-7.025114652
2.78900,19.22160441
2.78950,15.25407711
2.79000,-16.7913357
2.79050,-47.92116528
2.79100,-60.434136
2.79150,-69.89516264
2.79200,-89.42760473
2.79250,-101.3301866
2.79300,-84.84968862
2.79350,-51.88869258
2.79400,-30.52508405
2.79450,-24.11600148
2.79500,-14.65497484
2.79550,1.825523171
2.79600,13.11771626
2.79650,13.11771626
2.79700,10.37096659
2.79750,10.06577218
2.79800,8.844994548
2.79850,7.929411325
2.79900,10.37096659
2.79950,11.89693863
2.80000,6.403439287
2.80050,-0.005643274905
2.80100,0.6047455405
2.80150,5.793050471
2.80200,4.572272841
2.80250,-0.921226498
2.80300,-0.005643274905
2.80350,6.098244879
2.80400,8.539800141
2.80450,5.793050471
2.80500,7.624216918
2.80550,14.33849389
2.80600,15.55927152
2.80650,8.844994548
2.80700,5.793050471
2.80750,11.59174422
2.80800,16.16966033
2.80850,11.89693863
2.80900,6.098244879
2.80950,7.31902251
2.81000,11.89693863
2.81050,10.67616099
2.81100,4.267078433
2.81150,-0.921226498
2.81200,-4.58355939
2.81250,-7.025114652
2.81300,-5.193948206
2.81350,3.656689618
2.81400,14.64368829
2.81450,19.83199323
2.81500,20.44238204
2.81550,23.18913171
2.81600,27.46185342
2.81650,27.15665901
2.81700,20.44238204
2.81750,12.20213303
2.81800,6.403439287
2.81850,1.520328764
2.81900,-3.36278176
2.81950,-6.414725837
2.82000,-6.109531429
2.82050,-5.499142614
2.82100,-4.888753798
2.82150,-1.836809721
2.82200,3.961884025
2.82250,7.929411325
2.82300,10.06577218
2.82350,15.86446593
2.82400,24.71510375
2.82450,22.8839373
2.82500,0.2995511328
2.82550,-31.74586168
2.82600,-50.05752614
2.82650,-44.86922121
2.82700,-27.77833438
2.82750,-15.26536366
2.82800,-10.07705873
2.82850,-5.804337021
2.82900,-0.005643274905
2.82950,6.098244879
2.83000,11.59174422
2.83050,16.16966033
2.83100,14.9488827
2.83150,4.267078433
2.83200,-8.856281098
2.83250,-14.34978044
2.83300,-9.466669914
2.83350,-4.278364983
2.83400,-7.025114652
2.83450,-12.8238084
2.83500,-10.99264195
2.83550,-1.226420906
2.83600,5.182661656
2.83650,4.572272841
2.83700,4.877467248
2.83750,11.89693863
2.83800,20.13718763
2.83850,21.05277086
2.83900,16.47485474
2.83950,15.25407711
2.84000,18.30602119
2.84050,22.27354849
2.84100,23.49432612
2.84150,20.74757645
2.84200,11.28654981
2.84250,-4.278364983
2.84300,-16.18094688
2.84350,-16.48614129
2.84400,-11.29783636
2.84450,-13.12900281
2.84500,-20.45366859
2.84550,-18.92769655
2.84600,-4.888753798
2.84650,5.793050471
2.84700,2.130717579
2.84750,-3.667976167
2.84800,6.708633695
2.84850,33.56574157
2.84900,56.15012774
2.84950,60.11765504
2.85000,52.79298926
2.85050,48.52026755
2.85100,48.82546196
2.85150,40.28001854
2.85200,14.9488827
2.85250,-14.65497484
2.85300,-30.21988964
2.85350,-25.94716793
2.85400,-16.7913357
2.85450,-17.09653011
2.85500,-25.33677911
2.85550,-34.49261135
2.85600,-46.39519325
2.85650,-63.18088567
2.85700,-75.69385638
2.85750,-69.58996823
2.85800,-47.31077647
2.85850,-26.25236234
2.85900,-18.62250214
2.85950,-19.23289096
2.86000,-18.01211333
2.86050,-12.51861399
2.86100,-6.109531429
