type,name,time_units,begin_time,frequency,count,units
signal,"Noraxon Ultium-RT LAT. TRICEPS","s",0.00000,2000,53240,"uV"

time,value
0.00000,-2.453451895
0.00050,-2.453451895
0.00100,-2.453451895
0.00150,-1.537868672
0.00200,-0.3170910413
0.00250,-0.01189663358
0.00300,-1.232674264
0.00350,-2.148257487
0.00400,-1.84306308
0.00450,-0.9274798567
0.00500,-1.537868672
0.00550,-2.453451895
0.00600,-2.148257487
0.00650,-1.537868672
0.00700,-1.537868672
0.00750,-2.758646303
0.00800,-3.674229526
0.00850,-3.369035118
0.00900,-3.369035118
0.00950,-3.979423934
0.01000,-4.284618341
0.01050,-3.063840711
0.01100,-2.148257487
0.01150,-2.453451895
0.01200,-3.369035118
0.01250,-3.063840711
0.01300,-2.148257487
0.01350,-1.84306308
0.01400,-2.148257487
0.01450,-2.453451895
0.01500,-2.148257487
0.01550,-2.148257487
0.01600,-2.148257487
0.01650,-2.453451895
0.01700,-2.758646303
0.01750,-2.758646303
0.01800,-2.758646303
0.01850,-2.758646303
0.01900,-2.453451895
0.01950,-1.84306308
0.02000,-0.622285449
0.02050,0.5984921818
0.02100,0.9036865895
0.02150,-0.01189663358
0.02200,-0.9274798567
0.02250,-1.232674264
0.02300,-0.9274798567
0.02350,-1.232674264
0.02400,-1.232674264
0.02450,-0.3170910413
0.02500,-0.01189663358
0.02550,-0.3170910413
0.02600,-0.622285449
0.02650,-0.01189663358
0.02700,1.819269813
0.02750,2.429658628
0.02800,0.9036865895
0.02850,-1.232674264
0.02900,-2.758646303
0.02950,-2.758646303
0.03000,-1.84306308
0.03050,-1.232674264
0.03100,-1.232674264
0.03150,-0.9274798567
0.03200,-0.01189663358
0.03250,0.9036865895
0.03300,2.734853036
0.03350,5.481602705
0.03400,8.228352374
0.03450,8.83874119
0.03500,6.702380336
0.03550,3.955630667
0.03600,3.040047443
0.03650,3.955630667
0.03700,5.176408297
0.03750,5.786797113
0.03800,5.481602705
0.03850,5.176408297
0.03900,4.87121389
0.03950,4.87121389
0.04000,4.87121389
0.04050,3.650436259
0.04100,2.12446422
0.04150,1.208880997
0.04200,1.514075405
0.04250,1.514075405
0.04300,0.5984921818
0.04350,-0.01189663358
0.04400,0.9036865895
0.04450,2.734853036
0.04500,2.429658628
0.04550,0.2932977741
0.04600,-1.232674264
0.04650,-0.01189663358
0.04700,2.12446422
0.04750,3.650436259
0.04800,4.87121389
0.04850,6.09199152
0.04900,7.312769151
0.04950,7.007574744
0.05000,5.481602705
0.05050,4.260825074
0.05100,3.955630667
0.05150,3.955630667
0.05200,3.345241851
0.05250,2.734853036
0.05300,2.12446422
0.05350,1.514075405
0.05400,0.9036865895
0.05450,0.2932977741
0.05500,0.5984921818
0.05550,0.9036865895
0.05600,0.5984921818
0.05650,0.9036865895
0.05700,1.514075405
0.05750,1.819269813
0.05800,0.5984921818
0.05850,-0.01189663358
0.05900,-0.01189663358
0.05950,-0.01189663358
0.06000,-0.01189663358
0.06050,-0.622285449
0.06100,-0.622285449
0.06150,-0.9274798567
0.06200,-2.148257487
0.06250,-2.758646303
0.06300,-2.148257487
0.06350,-1.84306308
0.06400,-3.674229526
0.06450,-5.505395972
0.06500,-5.200201565
0.06550,-3.063840711
0.06600,-2.453451895
0.06650,-2.758646303
0.06700,-2.758646303
0.06750,-3.063840711
0.06800,-4.589812749
0.06850,-5.505395972
0.06900,-3.979423934
0.06950,-2.148257487
0.07000,-2.758646303
0.07050,-4.895007157
0.07100,-4.284618341
0.07150,-1.537868672
0.07200,-0.9274798567
0.07250,-2.758646303
0.07300,-3.674229526
0.07350,-2.453451895
0.07400,-2.148257487
0.07450,-3.674229526
0.07500,-3.979423934
0.07550,-2.453451895
0.07600,-1.537868672
0.07650,-3.369035118
0.07700,-5.200201565
0.07750,-5.505395972
0.07800,-5.505395972
0.07850,-5.81059038
0.07900,-5.81059038
0.07950,-4.589812749
0.08000,-3.674229526
0.08050,-4.284618341
0.08100,-4.589812749
0.08150,-3.979423934
0.08200,-3.063840711
0.08250,-2.758646303
0.08300,-2.148257487
0.08350,-1.537868672
0.08400,-2.148257487
0.08450,-2.758646303
0.08500,-2.453451895
0.08550,-0.9274798567
0.08600,-0.3170910413
0.08650,-0.3170910413
0.08700,-0.01189663358
0.08750,2.429658628
0.08800,4.260825074
0.08850,3.650436259
0.08900,2.734853036
0.08950,2.734853036
0.09000,3.040047443
0.09050,2.734853036
0.09100,2.734853036
0.09150,3.345241851
0.09200,4.260825074
0.09250,4.260825074
0.09300,4.260825074
0.09350,4.566019482
0.09400,4.566019482
0.09450,3.345241851
0.09500,2.429658628
0.09550,2.734853036
0.09600,3.650436259
0.09650,3.650436259
0.09700,3.650436259
0.09750,4.260825074
0.09800,5.176408297
0.09850,5.481602705
0.09900,4.87121389
0.09950,4.566019482
0.10000,4.260825074
0.10050,3.345241851
0.10100,1.514075405
0.10150,0.5984921818
0.10200,-0.01189663358
0.10250,-0.01189663358
0.10300,0.9036865895
0.10350,1.514075405
0.10400,0.5984921818
0.10450,-1.537868672
0.10500,-2.758646303
0.10550,-1.84306308
0.10600,-0.622285449
0.10650,-1.537868672
0.10700,-2.758646303
0.10750,-2.453451895
0.10800,-0.9274798567
0.10850,-0.01189663358
0.10900,-0.01189663358
0.10950,0.5984921818
0.11000,1.514075405
0.11050,1.514075405
0.11100,0.5984921818
0.11150,0.5984921818
0.11200,2.12446422
0.11250,3.040047443
0.11300,2.734853036
0.11350,2.429658628
0.11400,2.734853036
0.11450,2.734853036
0.11500,1.514075405
0.11550,0.2932977741
0.11600,0.2932977741
0.11650,0.5984921818
0.11700,-0.01189663358
0.11750,-1.537868672
0.11800,-3.063840711
0.11850,-3.674229526
0.11900,-4.284618341
0.11950,-4.589812749
0.12000,-4.284618341
0.12050,-3.063840711
0.12100,-2.453451895
0.12150,-2.758646303
0.12200,-2.758646303
0.12250,-2.148257487
0.12300,-0.3170910413
0.12350,0.5984921818
0.12400,0.9036865895
0.12450,0.5984921818
0.12500,0.5984921818
0.12550,1.208880997
0.12600,1.514075405
0.12650,1.514075405
0.12700,0.2932977741
0.12750,-0.3170910413
0.12800,-0.622285449
0.12850,-0.01189663358
0.12900,0.2932977741
0.12950,-0.01189663358
0.13000,-1.232674264
0.13050,-3.674229526
0.13100,-4.895007157
0.13150,-3.979423934
0.13200,-2.148257487
0.13250,-1.84306308
0.13300,-2.758646303
0.13350,-3.369035118
0.13400,-3.063840711
0.13450,-2.758646303
0.13500,-3.369035118
0.13550,-2.758646303
0.13600,-0.9274798567
0.13650,0.2932977741
0.13700,-0.01189663358
0.13750,-0.622285449
0.13800,0.2932977741
0.13850,1.514075405
0.13900,0.9036865895
0.13950,-0.01189663358
0.14000,-0.01189663358
0.14050,0.9036865895
0.14100,0.9036865895
0.14150,-0.3170910413
0.14200,-1.232674264
0.14250,-0.622285449
0.14300,-0.01189663358
0.14350,-0.3170910413
0.14400,-0.9274798567
0.14450,-1.232674264
0.14500,-0.9274798567
0.14550,-0.3170910413
0.14600,0.2932977741
0.14650,0.9036865895
0.14700,0.2932977741
0.14750,-0.622285449
0.14800,-1.232674264
0.14850,-0.9274798567
0.14900,-0.622285449
0.14950,-0.622285449
0.15000,-0.01189663358
0.15050,1.208880997
0.15100,1.208880997
0.15150,-0.01189663358
0.15200,-0.3170910413
0.15250,0.2932977741
0.15300,0.9036865895
0.15350,0.9036865895
0.15400,0.5984921818
0.15450,0.5984921818
0.15500,0.9036865895
0.15550,0.5984921818
0.15600,0.5984921818
0.15650,1.208880997
0.15700,1.819269813
0.15750,0.5984921818
0.15800,-0.3170910413
0.15850,-0.9274798567
0.15900,-0.01189663358
0.15950,-0.01189663358
0.16000,-0.3170910413
0.16050,-1.232674264
0.16100,-2.148257487
0.16150,-2.758646303
0.16200,-2.758646303
0.16250,-2.148257487
0.16300,-1.232674264
0.16350,-0.3170910413
0.16400,-0.3170910413
0.16450,-0.9274798567
0.16500,-1.232674264
0.16550,-0.9274798567
0.16600,-0.3170910413
0.16650,0.2932977741
0.16700,0.9036865895
0.16750,1.208880997
0.16800,1.208880997
0.16850,1.819269813
0.16900,2.429658628
0.16950,3.040047443
0.17000,2.734853036
0.17050,1.819269813
0.17100,2.12446422
0.17150,3.040047443
0.17200,3.650436259
0.17250,3.040047443
0.17300,1.819269813
0.17350,1.208880997
0.17400,0.9036865895
0.17450,0.9036865895
0.17500,0.9036865895
0.17550,1.208880997
0.17600,1.208880997
0.17650,1.208880997
0.17700,1.514075405
0.17750,2.12446422
0.17800,3.345241851
0.17850,3.650436259
0.17900,2.429658628
0.17950,0.9036865895
0.18000,0.2932977741
0.18050,0.5984921818
0.18100,1.208880997
0.18150,1.208880997
0.18200,0.9036865895
0.18250,1.208880997
0.18300,1.514075405
0.18350,1.208880997
0.18400,0.2932977741
0.18450,-0.01189663358
0.18500,-0.01189663358
0.18550,0.5984921818
0.18600,-0.01189663358
0.18650,-0.622285449
0.18700,-1.232674264
0.18750,-0.9274798567
0.18800,-0.9274798567
0.18850,-0.9274798567
0.18900,-0.9274798567
0.18950,-0.622285449
0.19000,-0.622285449
0.19050,-1.232674264
0.19100,-1.84306308
0.19150,-2.453451895
0.19200,-2.453451895
0.19250,-2.453451895
0.19300,-1.84306308
0.19350,-1.537868672
0.19400,-1.537868672
0.19450,-2.148257487
0.19500,-2.758646303
0.19550,-2.453451895
0.19600,-1.537868672
0.19650,-0.622285449
0.19700,-0.01189663358
0.19750,0.2932977741
0.19800,1.208880997
0.19850,2.734853036
0.19900,4.87121389
0.19950,5.176408297
0.20000,3.955630667
0.20050,2.12446422
0.20100,1.208880997
0.20150,1.514075405
0.20200,1.819269813
0.20250,1.208880997
0.20300,1.514075405
0.20350,2.429658628
0.20400,3.040047443
0.20450,2.12446422
0.20500,0.5984921818
0.20550,0.2932977741
0.20600,0.9036865895
0.20650,1.514075405
0.20700,1.208880997
0.20750,1.208880997
0.20800,1.819269813
0.20850,2.429658628
0.20900,2.12446422
0.20950,1.514075405
0.21000,1.208880997
0.21050,1.819269813
0.21100,2.12446422
0.21150,1.208880997
0.21200,-0.01189663358
0.21250,-0.9274798567
0.21300,-1.232674264
0.21350,-0.9274798567
0.21400,-1.232674264
0.21450,-1.84306308
0.21500,-2.453451895
0.21550,-2.148257487
0.21600,-1.537868672
0.21650,-0.9274798567
0.21700,-0.622285449
0.21750,-0.01189663358
0.21800,-0.01189663358
0.21850,0.2932977741
0.21900,0.2932977741
0.21950,0.9036865895
0.22000,1.819269813
0.22050,2.12446422
0.22100,1.819269813
0.22150,0.9036865895
0.22200,0.5984921818
0.22250,1.208880997
0.22300,1.514075405
0.22350,1.819269813
0.22400,2.12446422
0.22450,2.12446422
0.22500,1.514075405
0.22550,0.2932977741
0.22600,-0.01189663358
0.22650,0.5984921818
0.22700,1.819269813
0.22750,0.9036865895
0.22800,-1.84306308
0.22850,-4.284618341
0.22900,-3.674229526
0.22950,-0.9274798567
0.23000,-0.01189663358
0.23050,-1.232674264
0.23100,-2.453451895
0.23150,-2.148257487
0.23200,-1.232674264
0.23250,-1.232674264
0.23300,-1.232674264
0.23350,-0.9274798567
0.23400,-1.232674264
0.23450,-2.148257487
0.23500,-2.758646303
0.23550,-2.148257487
0.23600,-1.537868672
0.23650,-2.453451895
0.23700,-4.284618341
0.23750,-5.200201565
0.23800,-4.284618341
0.23850,-3.063840711
0.23900,-3.674229526
0.23950,-5.200201565
0.24000,-6.420979195
0.24050,-5.505395972
0.24100,-3.674229526
0.24150,-2.453451895
0.24200,-2.758646303
0.24250,-2.758646303
0.24300,-1.537868672
0.24350,-0.01189663358
0.24400,-0.3170910413
0.24450,-2.148257487
0.24500,-3.674229526
0.24550,-2.758646303
0.24600,-1.232674264
0.24650,-1.232674264
0.24700,-2.148257487
0.24750,-2.148257487
0.24800,-1.232674264
0.24850,-0.622285449
0.24900,-0.622285449
0.24950,-1.232674264
0.25000,-2.453451895
0.25050,-3.979423934
0.25100,-4.589812749
0.25150,-3.674229526
0.25200,-2.148257487
0.25250,-2.148257487
0.25300,-2.758646303
0.25350,-2.758646303
0.25400,-2.148257487
0.25450,-1.84306308
0.25500,-2.148257487
0.25550,-2.148257487
0.25600,-1.84306308
0.25650,-1.84306308
0.25700,-1.537868672
0.25750,-0.01189663358
0.25800,0.2932977741
0.25850,-0.3170910413
0.25900,-1.84306308
0.25950,-1.84306308
0.26000,-0.3170910413
0.26050,0.2932977741
0.26100,-0.01189663358
0.26150,-0.01189663358
0.26200,0.9036865895
0.26250,1.514075405
0.26300,-0.01189663358
0.26350,-1.232674264
0.26400,-0.01189663358
0.26450,2.12446422
0.26500,2.734853036
0.26550,1.208880997
0.26600,0.9036865895
0.26650,2.12446422
0.26700,2.429658628
0.26750,1.514075405
0.26800,0.5984921818
0.26850,0.9036865895
0.26900,1.514075405
0.26950,1.208880997
0.27000,0.9036865895
0.27050,1.208880997
0.27100,2.12446422
0.27150,2.12446422
0.27200,1.208880997
0.27250,0.5984921818
0.27300,0.9036865895
0.27350,1.514075405
0.27400,0.9036865895
0.27450,0.2932977741
0.27500,1.208880997
0.27550,2.429658628
0.27600,3.345241851
0.27650,2.734853036
0.27700,1.514075405
0.27750,1.208880997
0.27800,1.514075405
0.27850,1.819269813
0.27900,1.819269813
0.27950,1.514075405
0.28000,0.5984921818
0.28050,-0.01189663358
0.28100,-0.01189663358
0.28150,-0.01189663358
0.28200,-1.537868672
0.28250,-2.758646303
0.28300,-3.063840711
0.28350,-2.148257487
0.28400,-1.232674264
0.28450,-1.537868672
0.28500,-1.537868672
0.28550,-0.9274798567
0.28600,-0.622285449
0.28650,-1.537868672
0.28700,-2.148257487
0.28750,-1.537868672
0.28800,-1.232674264
0.28850,-1.537868672
0.28900,-2.453451895
0.28950,-2.148257487
0.29000,-1.84306308
0.29050,-2.758646303
0.29100,-3.674229526
0.29150,-3.063840711
0.29200,-1.537868672
0.29250,-0.3170910413
0.29300,-0.01189663358
0.29350,1.514075405
0.29400,3.650436259
0.29450,4.87121389
0.29500,4.260825074
0.29550,3.040047443
0.29600,1.819269813
0.29650,0.9036865895
0.29700,0.2932977741
0.29750,0.9036865895
0.29800,1.208880997
0.29850,0.5984921818
0.29900,-0.01189663358
0.29950,-0.01189663358
0.30000,-0.01189663358
0.30050,-0.622285449
0.30100,-1.232674264
0.30150,-0.3170910413
0.30200,0.9036865895
0.30250,0.2932977741
0.30300,-1.84306308
0.30350,-3.369035118
0.30400,-2.148257487
0.30450,-0.622285449
0.30500,-0.3170910413
0.30550,-1.232674264
0.30600,-1.232674264
0.30650,-0.01189663358
0.30700,1.514075405
0.30750,3.040047443
0.30800,3.955630667
0.30850,3.955630667
0.30900,3.650436259
0.30950,3.650436259
0.31000,3.345241851
0.31050,1.819269813
0.31100,-0.01189663358
0.31150,-0.01189663358
0.31200,0.5984921818
0.31250,1.208880997
0.31300,0.9036865895
0.31350,0.9036865895
0.31400,1.819269813
0.31450,2.734853036
0.31500,3.040047443
0.31550,3.040047443
0.31600,2.734853036
0.31650,1.208880997
0.31700,-0.3170910413
0.31750,-0.9274798567
0.31800,-0.3170910413
0.31850,0.5984921818
0.31900,0.5984921818
0.31950,0.5984921818
0.32000,0.5984921818
0.32050,0.9036865895
0.32100,0.9036865895
0.32150,1.819269813
0.32200,2.734853036
0.32250,2.12446422
0.32300,-0.01189663358
0.32350,-0.3170910413
0.32400,0.5984921818
0.32450,0.9036865895
0.32500,-0.3170910413
0.32550,-1.537868672
0.32600,-0.622285449
0.32650,-0.01189663358
0.32700,-1.232674264
0.32750,-2.453451895
0.32800,-1.84306308
0.32850,-0.3170910413
0.32900,-0.01189663358
0.32950,-0.622285449
0.33000,-0.3170910413
0.33050,0.9036865895
0.33100,1.514075405
0.33150,0.9036865895
0.33200,1.208880997
0.33250,2.12446422
0.33300,1.819269813
0.33350,0.9036865895
0.33400,0.9036865895
0.33450,2.12446422
0.33500,2.734853036
0.33550,1.514075405
0.33600,0.2932977741
0.33650,-0.01189663358
0.33700,0.2932977741
0.33750,-0.01189663358
0.33800,-0.01189663358
0.33850,-0.01189663358
0.33900,-0.01189663358
0.33950,-1.537868672
0.34000,-3.979423934
0.34050,-4.589812749
0.34100,-3.063840711
0.34150,-1.537868672
0.34200,-1.537868672
0.34250,-2.758646303
0.34300,-3.674229526
0.34350,-3.674229526
0.34400,-4.284618341
0.34450,-5.505395972
0.34500,-5.81059038
0.34550,-4.589812749
0.34600,-3.674229526
0.34650,-3.674229526
0.34700,-3.369035118
0.34750,-1.537868672
0.34800,-0.01189663358
0.34850,-0.01189663358
0.34900,-0.3170910413
0.34950,0.2932977741
0.35000,1.819269813
0.35050,2.429658628
0.35100,1.514075405
0.35150,0.9036865895
0.35200,1.208880997
0.35250,1.514075405
0.35300,0.9036865895
0.35350,-0.3170910413
0.35400,-1.537868672
0.35450,-1.84306308
0.35500,-1.84306308
0.35550,-0.622285449
0.35600,0.2932977741
0.35650,0.9036865895
0.35700,0.2932977741
0.35750,-0.01189663358
0.35800,-0.01189663358
0.35850,-0.01189663358
0.35900,-0.01189663358
0.35950,-0.01189663358
0.36000,0.5984921818
0.36050,1.208880997
0.36100,0.5984921818
0.36150,-0.622285449
0.36200,-1.537868672
0.36250,-0.01189663358
0.36300,0.9036865895
0.36350,-0.01189663358
0.36400,-1.84306308
0.36450,-2.453451895
0.36500,-0.622285449
0.36550,-0.01189663358
0.36600,-0.622285449
0.36650,-2.453451895
0.36700,-2.758646303
0.36750,-2.148257487
0.36800,-1.84306308
0.36850,-2.148257487
0.36900,-2.148257487
0.36950,-1.537868672
0.37000,-1.232674264
0.37050,-0.622285449
0.37100,0.2932977741
0.37150,1.208880997
0.37200,1.208880997
0.37250,1.208880997
0.37300,3.040047443
0.37350,5.176408297
0.37400,6.09199152
0.37450,6.397185928
0.37500,7.617963559
0.37550,8.533546782
0.37600,7.312769151
0.37650,5.176408297
0.37700,4.260825074
0.37750,4.87121389
0.37800,4.260825074
0.37850,2.429658628
0.37900,1.819269813
0.37950,3.040047443
0.38000,4.260825074
0.38050,4.260825074
0.38100,4.260825074
0.38150,4.260825074
0.38200,3.650436259
0.38250,2.734853036
0.38300,1.819269813
0.38350,1.819269813
0.38400,1.514075405
0.38450,0.9036865895
0.38500,0.2932977741
0.38550,-0.01189663358
0.38600,-0.01189663358
0.38650,-0.01189663358
0.38700,-0.01189663358
0.38750,0.5984921818
0.38800,0.2932977741
0.38850,-0.3170910413
0.38900,-0.01189663358
0.38950,0.2932977741
0.39000,0.2932977741
0.39050,-0.622285449
0.39100,-0.622285449
0.39150,0.5984921818
0.39200,1.514075405
0.39250,0.5984921818
0.39300,-0.01189663358
0.39350,0.5984921818
0.39400,1.819269813
0.39450,2.12446422
0.39500,1.514075405
0.39550,1.208880997
0.39600,1.208880997
0.39650,0.9036865895
0.39700,-0.01189663358
0.39750,-0.622285449
0.39800,-0.622285449
0.39850,-0.3170910413
0.39900,-0.01189663358
0.39950,-0.3170910413
0.40000,-0.3170910413
0.40050,-0.01189663358
0.40100,-0.01189663358
0.40150,-0.01189663358
0.40200,-0.3170910413
0.40250,-0.622285449
0.40300,-0.01189663358
0.40350,0.5984921818
0.40400,0.2932977741
0.40450,-0.01189663358
0.40500,-0.01189663358
0.40550,0.5984921818
0.40600,-0.3170910413
0.40650,-1.84306308
0.40700,-1.537868672
0.40750,-0.01189663358
0.40800,-0.01189663358
0.40850,-2.148257487
0.40900,-3.063840711
0.40950,-1.232674264
0.41000,0.9036865895
0.41050,0.2932977741
0.41100,-1.232674264
0.41150,-1.537868672
0.41200,-0.9274798567
0.41250,-1.84306308
0.41300,-3.063840711
0.41350,-2.148257487
0.41400,0.2932977741
0.41450,1.514075405
0.41500,0.2932977741
0.41550,-0.9274798567
0.41600,-1.232674264
0.41650,-0.622285449
0.41700,-0.622285449
0.41750,-0.3170910413
0.41800,0.2932977741
0.41850,0.5984921818
0.41900,0.5984921818
0.41950,-0.01189663358
0.42000,-0.3170910413
0.42050,-0.622285449
0.42100,-0.3170910413
0.42150,-0.01189663358
0.42200,0.5984921818
0.42250,0.9036865895
0.42300,0.5984921818
0.42350,0.9036865895
0.42400,0.9036865895
0.42450,0.9036865895
0.42500,1.514075405
0.42550,2.429658628
0.42600,2.734853036
0.42650,2.12446422
0.42700,1.514075405
0.42750,1.819269813
0.42800,1.819269813
0.42850,0.2932977741
0.42900,-0.622285449
0.42950,-0.622285449
0.43000,-0.01189663358
0.43050,-0.01189663358
0.43100,-0.01189663358
0.43150,0.2932977741
0.43200,0.5984921818
0.43250,-0.01189663358
0.43300,-0.3170910413
0.43350,0.2932977741
0.43400,1.819269813
0.43450,1.514075405
0.43500,0.5984921818
0.43550,1.208880997
0.43600,2.429658628
0.43650,2.429658628
0.43700,1.208880997
0.43750,0.2932977741
0.43800,0.5984921818
0.43850,0.2932977741
0.43900,-0.622285449
0.43950,-1.537868672
0.44000,-1.232674264
0.44050,-0.9274798567
0.44100,-2.148257487
0.44150,-3.369035118
0.44200,-3.369035118
0.44250,-2.758646303
0.44300,-1.537868672
0.44350,-0.3170910413
0.44400,0.2932977741
0.44450,1.208880997
0.44500,1.819269813
0.44550,1.819269813
0.44600,1.819269813
0.44650,1.514075405
0.44700,1.208880997
0.44750,0.9036865895
0.44800,0.9036865895
0.44850,0.5984921818
0.44900,0.5984921818
0.44950,0.9036865895
0.45000,0.9036865895
0.45050,-0.01189663358
0.45100,-0.3170910413
0.45150,-0.622285449
0.45200,-0.622285449
0.45250,-0.9274798567
0.45300,-0.9274798567
0.45350,-0.3170910413
0.45400,-0.01189663358
0.45450,-0.3170910413
0.45500,-0.622285449
0.45550,-0.01189663358
0.45600,0.2932977741
0.45650,-0.3170910413
0.45700,-1.84306308
0.45750,-1.84306308
0.45800,-0.9274798567
0.45850,-0.3170910413
0.45900,-0.9274798567
0.45950,-1.232674264
0.46000,-0.9274798567
0.46050,-0.01189663358
0.46100,0.9036865895
0.46150,1.208880997
0.46200,1.514075405
0.46250,1.819269813
0.46300,2.734853036
0.46350,2.734853036
0.46400,1.514075405
0.46450,-0.01189663358
0.46500,-0.622285449
0.46550,-0.01189663358
0.46600,-0.01189663358
0.46650,-0.622285449
0.46700,-1.84306308
0.46750,-1.84306308
0.46800,-1.232674264
0.46850,-1.232674264
0.46900,-1.232674264
0.46950,-0.9274798567
0.47000,-0.622285449
0.47050,-1.232674264
0.47100,-1.84306308
0.47150,-1.232674264
0.47200,-0.01189663358
0.47250,-0.01189663358
0.47300,-1.232674264
0.47350,-2.758646303
0.47400,-3.063840711
0.47450,-2.148257487
0.47500,-1.537868672
0.47550,-2.148257487
0.47600,-2.758646303
0.47650,-2.758646303
0.47700,-1.537868672
0.47750,-0.622285449
0.47800,-0.622285449
0.47850,-0.622285449
0.47900,-0.01189663358
0.47950,1.819269813
0.48000,1.819269813
0.48050,-0.01189663358
0.48100,-0.9274798567
0.48150,-0.9274798567
0.48200,-0.622285449
0.48250,-0.622285449
0.48300,-0.01189663358
0.48350,0.5984921818
0.48400,1.208880997
0.48450,-0.01189663358
0.48500,-0.9274798567
0.48550,-1.232674264
0.48600,-1.84306308
0.48650,-3.674229526
0.48700,-5.505395972
0.48750,-4.895007157
0.48800,-2.758646303
0.48850,-1.84306308
0.48900,-3.063840711
0.48950,-3.674229526
0.49000,-2.758646303
0.49050,-1.537868672
0.49100,-0.9274798567
0.49150,-0.622285449
0.49200,0.2932977741
0.49250,0.5984921818
0.49300,-0.3170910413
0.49350,-1.537868672
0.49400,-2.148257487
0.49450,-2.453451895
0.49500,-2.453451895
0.49550,-2.758646303
0.49600,-2.453451895
0.49650,-2.148257487
0.49700,-2.148257487
0.49750,-2.148257487
0.49800,-1.84306308
0.49850,-1.537868672
0.49900,-2.148257487
0.49950,-2.758646303
0.50000,-1.84306308
0.50050,-0.9274798567
0.50100,-0.9274798567
0.50150,-1.537868672
0.50200,-1.537868672
0.50250,-0.9274798567
0.50300,-0.9274798567
0.50350,-1.232674264
0.50400,-0.622285449
0.50450,0.2932977741
0.50500,1.208880997
0.50550,1.208880997
0.50600,1.208880997
0.50650,1.208880997
0.50700,1.208880997
0.50750,0.9036865895
0.50800,1.514075405
0.50850,1.819269813
0.50900,1.208880997
0.50950,0.2932977741
0.51000,0.5984921818
0.51050,3.345241851
0.51100,5.176408297
0.51150,4.566019482
0.51200,3.040047443
0.51250,2.429658628
0.51300,2.429658628
0.51350,2.12446422
0.51400,1.514075405
0.51450,1.514075405
0.51500,1.514075405
0.51550,0.9036865895
0.51600,0.2932977741
0.51650,1.208880997
0.51700,2.429658628
0.51750,1.819269813
0.51800,0.9036865895
0.51850,1.208880997
0.51900,2.12446422
0.51950,1.819269813
0.52000,0.2932977741
0.52050,-0.622285449
0.52100,-0.622285449
0.52150,-0.622285449
0.52200,-0.9274798567
0.52250,-0.622285449
0.52300,-0.3170910413
0.52350,-1.232674264
0.52400,-2.148257487
0.52450,-1.537868672
0.52500,0.2932977741
0.52550,1.208880997
0.52600,0.2932977741
0.52650,-0.3170910413
0.52700,-0.3170910413
0.52750,-0.622285449
0.52800,-1.537868672
0.52850,-2.453451895
0.52900,-3.063840711
0.52950,-3.979423934
0.53000,-4.895007157
0.53050,-3.979423934
0.53100,-1.537868672
0.53150,-0.3170910413
0.53200,-1.537868672
0.53250,-3.063840711
0.53300,-2.453451895
0.53350,-0.622285449
0.53400,-0.01189663358
0.53450,-0.3170910413
0.53500,-0.622285449
0.53550,-0.3170910413
0.53600,-0.01189663358
0.53650,-0.01189663358
0.53700,-0.01189663358
0.53750,-0.01189663358
0.53800,0.2932977741
0.53850,0.9036865895
0.53900,1.819269813
0.53950,3.040047443
0.54000,3.040047443
0.54050,2.12446422
0.54100,1.208880997
0.54150,0.9036865895
0.54200,1.514075405
0.54250,1.514075405
0.54300,0.5984921818
0.54350,0.2932977741
0.54400,0.9036865895
0.54450,1.819269813
0.54500,1.514075405
0.54550,0.5984921818
0.54600,0.2932977741
0.54650,0.5984921818
0.54700,0.9036865895
0.54750,0.5984921818
0.54800,-0.01189663358
0.54850,-0.9274798567
0.54900,-1.84306308
0.54950,-1.84306308
0.55000,-0.9274798567
0.55050,-0.622285449
0.55100,-2.148257487
0.55150,-3.369035118
0.55200,-2.453451895
0.55250,-0.3170910413
0.55300,-0.01189663358
0.55350,-0.9274798567
0.55400,-1.84306308
0.55450,-1.232674264
0.55500,-0.622285449
0.55550,-0.9274798567
0.55600,-1.232674264
0.55650,-0.9274798567
0.55700,-0.622285449
0.55750,-0.9274798567
0.55800,-1.84306308
0.55850,-2.453451895
0.55900,-1.84306308
0.55950,-0.622285449
0.56000,0.9036865895
0.56050,2.429658628
0.56100,1.514075405
0.56150,-0.622285449
0.56200,-1.84306308
0.56250,-0.622285449
0.56300,0.5984921818
0.56350,0.9036865895
0.56400,0.2932977741
0.56450,-0.01189663358
0.56500,-0.3170910413
0.56550,-0.3170910413
0.56600,-0.01189663358
0.56650,0.9036865895
0.56700,0.9036865895
0.56750,-0.01189663358
0.56800,-1.232674264
0.56850,-1.232674264
0.56900,-1.232674264
0.56950,-1.537868672
0.57000,-1.84306308
0.57050,-0.622285449
0.57100,0.5984921818
0.57150,0.2932977741
0.57200,-0.9274798567
0.57250,-2.148257487
0.57300,-2.758646303
0.57350,-2.453451895
0.57400,-1.84306308
0.57450,-0.9274798567
0.57500,-0.3170910413
0.57550,-0.01189663358
0.57600,0.5984921818
0.57650,2.12446422
0.57700,3.040047443
0.57750,2.429658628
0.57800,2.12446422
0.57850,2.734853036
0.57900,3.040047443
0.57950,2.429658628
0.58000,1.819269813
0.58050,2.12446422
0.58100,2.429658628
0.58150,1.819269813
0.58200,0.9036865895
0.58250,0.2932977741
0.58300,0.2932977741
0.58350,0.2932977741
0.58400,0.5984921818
0.58450,0.9036865895
0.58500,-0.01189663358
0.58550,-0.622285449
0.58600,-0.3170910413
0.58650,0.9036865895
0.58700,0.9036865895
0.58750,-0.01189663358
0.58800,-0.9274798567
0.58850,-0.01189663358
0.58900,-0.01189663358
0.58950,-0.9274798567
0.59000,-3.063840711
0.59050,-3.063840711
0.59100,-2.148257487
0.59150,-1.537868672
0.59200,-1.232674264
0.59250,-0.9274798567
0.59300,-0.01189663358
0.59350,0.5984921818
0.59400,1.819269813
0.59450,2.734853036
0.59500,3.040047443
0.59550,2.734853036
0.59600,3.040047443
0.59650,3.650436259
0.59700,3.345241851
0.59750,2.12446422
0.59800,1.514075405
0.59850,2.12446422
0.59900,2.734853036
0.59950,2.429658628
0.60000,1.819269813
0.60050,1.514075405
0.60100,0.9036865895
0.60150,0.5984921818
0.60200,1.208880997
0.60250,2.429658628
0.60300,2.734853036
0.60350,1.208880997
0.60400,-0.01189663358
0.60450,-0.01189663358
0.60500,0.2932977741
0.60550,-0.01189663358
0.60600,-0.9274798567
0.60650,-1.537868672
0.60700,-1.84306308
0.60750,-1.84306308
0.60800,-2.758646303
0.60850,-3.369035118
0.60900,-3.674229526
0.60950,-3.369035118
0.61000,-3.063840711
0.61050,-2.758646303
0.61100,-3.063840711
0.61150,-3.063840711
0.61200,-2.453451895
0.61250,-2.148257487
0.61300,-2.453451895
0.61350,-3.063840711
0.61400,-3.674229526
0.61450,-3.063840711
0.61500,-1.232674264
0.61550,-0.01189663358
0.61600,-0.3170910413
0.61650,-1.537868672
0.61700,-1.232674264
0.61750,0.5984921818
0.61800,2.429658628
0.61850,2.734853036
0.61900,2.429658628
0.61950,2.429658628
0.62000,2.12446422
0.62050,1.514075405
0.62100,0.9036865895
0.62150,1.819269813
0.62200,3.040047443
0.62250,3.955630667
0.62300,4.260825074
0.62350,5.176408297
0.62400,5.481602705
0.62450,4.260825074
0.62500,2.734853036
0.62550,2.429658628
0.62600,3.040047443
0.62650,2.734853036
0.62700,1.819269813
0.62750,1.819269813
0.62800,2.429658628
0.62850,2.12446422
0.62900,0.9036865895
0.62950,-0.01189663358
0.63000,-0.01189663358
0.63050,-0.01189663358
0.63100,-0.01189663358
0.63150,0.2932977741
0.63200,0.2932977741
0.63250,-0.622285449
0.63300,-2.148257487
0.63350,-2.148257487
0.63400,-0.9274798567
0.63450,-0.01189663358
0.63500,-0.3170910413
0.63550,-0.9274798567
0.63600,-1.537868672
0.63650,-2.148257487
0.63700,-3.369035118
0.63750,-3.369035118
0.63800,-1.84306308
0.63850,-0.3170910413
0.63900,-0.01189663358
0.63950,-0.3170910413
0.64000,-0.622285449
0.64050,-0.3170910413
0.64100,-0.01189663358
0.64150,0.5984921818
0.64200,0.2932977741
0.64250,-0.01189663358
0.64300,-0.01189663358
0.64350,-0.01189663358
0.64400,-0.01189663358
0.64450,-0.01189663358
0.64500,-0.01189663358
0.64550,0.2932977741
0.64600,0.9036865895
0.64650,0.5984921818
0.64700,-0.01189663358
0.64750,0.2932977741
0.64800,0.5984921818
0.64850,0.5984921818
0.64900,-0.01189663358
0.64950,-0.3170910413
0.65000,-1.232674264
0.65050,-1.84306308
0.65100,-2.148257487
0.65150,-1.232674264
0.65200,-0.01189663358
0.65250,-0.01189663358
0.65300,-0.3170910413
0.65350,-0.9274798567
0.65400,-1.232674264
0.65450,-0.9274798567
0.65500,-0.9274798567
0.65550,-0.9274798567
0.65600,-0.9274798567
0.65650,-0.3170910413
0.65700,-0.01189663358
0.65750,-0.01189663358
0.65800,-0.01189663358
0.65850,-0.01189663358
0.65900,-0.01189663358
0.65950,-1.537868672
0.66000,-3.063840711
0.66050,-3.063840711
0.66100,-1.537868672
0.66150,-0.3170910413
0.66200,-0.622285449
0.66250,-1.232674264
0.66300,-0.9274798567
0.66350,-0.622285449
0.66400,-1.84306308
0.66450,-3.369035118
0.66500,-3.063840711
0.66550,-1.232674264
0.66600,-0.01189663358
0.66650,-0.622285449
0.66700,-0.622285449
0.66750,0.9036865895
0.66800,2.429658628
0.66850,2.734853036
0.66900,2.12446422
0.66950,2.12446422
0.67000,2.734853036
0.67050,2.734853036
0.67100,2.12446422
0.67150,2.12446422
0.67200,1.819269813
0.67250,1.208880997
0.67300,0.2932977741
0.67350,-0.01189663358
0.67400,-0.01189663358
0.67450,0.2932977741
0.67500,0.5984921818
0.67550,1.208880997
0.67600,1.208880997
0.67650,0.2932977741
0.67700,-0.622285449
0.67750,-1.232674264
0.67800,-0.9274798567
0.67850,-0.622285449
0.67900,-0.622285449
0.67950,-0.622285449
0.68000,-0.3170910413
0.68050,-0.01189663358
0.68100,-0.01189663358
0.68150,-0.622285449
0.68200,-0.9274798567
0.68250,-0.622285449
0.68300,-0.01189663358
0.68350,0.2932977741
0.68400,0.5984921818
0.68450,-0.01189663358
0.68500,-0.622285449
0.68550,-0.3170910413
0.68600,0.5984921818
0.68650,1.208880997
0.68700,0.9036865895
0.68750,0.2932977741
0.68800,0.5984921818
0.68850,1.514075405
0.68900,2.12446422
0.68950,2.429658628
0.69000,2.429658628
0.69050,2.12446422
0.69100,2.12446422
0.69150,2.429658628
0.69200,2.734853036
0.69250,3.040047443
0.69300,3.040047443
0.69350,3.345241851
0.69400,3.650436259
0.69450,3.650436259
0.69500,2.734853036
0.69550,2.12446422
0.69600,2.12446422
0.69650,2.429658628
0.69700,2.429658628
0.69750,1.819269813
0.69800,0.9036865895
0.69850,0.2932977741
0.69900,-0.01189663358
0.69950,-0.01189663358
0.70000,0.5984921818
0.70050,0.9036865895
0.70100,0.9036865895
0.70150,0.5984921818
0.70200,0.2932977741
0.70250,-0.3170910413
0.70300,-1.537868672
0.70350,-3.063840711
0.70400,-3.369035118
0.70450,-2.453451895
0.70500,-2.148257487
0.70550,-2.148257487
0.70600,-2.758646303
0.70650,-3.063840711
0.70700,-2.758646303
0.70750,-1.537868672
0.70800,-0.9274798567
0.70850,-0.9274798567
0.70900,-1.537868672
0.70950,-1.537868672
0.71000,-0.3170910413
0.71050,1.514075405
0.71100,3.345241851
0.71150,4.566019482
0.71200,5.176408297
0.71250,5.786797113
0.71300,5.786797113
0.71350,5.176408297
0.71400,4.260825074
0.71450,3.345241851
0.71500,2.429658628
0.71550,1.514075405
0.71600,0.9036865895
0.71650,1.208880997
0.71700,2.12446422
0.71750,2.12446422
0.71800,1.819269813
0.71850,1.208880997
0.71900,0.9036865895
0.71950,0.9036865895
0.72000,0.5984921818
0.72050,-0.01189663358
0.72100,-0.3170910413
0.72150,-0.622285449
0.72200,-0.9274798567
0.72250,-1.232674264
0.72300,-1.232674264
0.72350,-0.622285449
0.72400,-0.01189663358
0.72450,-0.01189663358
0.72500,-0.9274798567
0.72550,-2.148257487
0.72600,-1.537868672
0.72650,0.2932977741
0.72700,0.9036865895
0.72750,-0.3170910413
0.72800,-1.537868672
0.72850,-0.9274798567
0.72900,-0.01189663358
0.72950,-0.01189663358
0.73000,-0.9274798567
0.73050,-1.232674264
0.73100,-0.622285449
0.73150,-0.3170910413
0.73200,-0.9274798567
0.73250,-0.9274798567
0.73300,-0.01189663358
0.73350,-0.01189663358
0.73400,-1.232674264
0.73450,-1.537868672
0.73500,-0.9274798567
0.73550,-0.3170910413
0.73600,-0.9274798567
0.73650,-2.148257487
0.73700,-2.453451895
0.73750,-2.453451895
0.73800,-3.063840711
0.73850,-3.063840711
0.73900,-2.453451895
0.73950,-2.453451895
0.74000,-3.674229526
0.74050,-3.979423934
0.74100,-2.758646303
0.74150,-1.537868672
0.74200,-1.84306308
0.74250,-2.758646303
0.74300,-2.148257487
0.74350,-1.537868672
0.74400,-2.453451895
0.74450,-3.674229526
0.74500,-3.063840711
0.74550,-0.9274798567
0.74600,-0.01189663358
0.74650,-0.01189663358
0.74700,0.9036865895
0.74750,2.429658628
0.74800,3.650436259
0.74850,3.040047443
0.74900,2.429658628
0.74950,2.12446422
0.75000,1.514075405
0.75050,0.5984921818
0.75100,-0.01189663358
0.75150,-0.622285449
0.75200,-0.3170910413
0.75250,-0.01189663358
0.75300,-0.01189663358
0.75350,0.2932977741
0.75400,-0.01189663358
0.75450,-0.622285449
0.75500,-0.3170910413
0.75550,-0.01189663358
0.75600,-0.01189663358
0.75650,-0.622285449
0.75700,-0.622285449
0.75750,-0.622285449
0.75800,-0.622285449
0.75850,-0.3170910413
0.75900,-0.01189663358
0.75950,0.9036865895
0.76000,0.5984921818
0.76050,0.2932977741
0.76100,0.9036865895
0.76150,2.12446422
0.76200,1.819269813
0.76250,-0.01189663358
0.76300,-1.232674264
0.76350,-0.9274798567
0.76400,-0.622285449
0.76450,-1.232674264
0.76500,-1.537868672
0.76550,-0.622285449
0.76600,-0.01189663358
0.76650,0.2932977741
0.76700,1.208880997
0.76750,2.734853036
0.76800,3.650436259
0.76850,2.429658628
0.76900,1.208880997
0.76950,1.208880997
0.77000,1.514075405
0.77050,1.208880997
0.77100,0.9036865895
0.77150,1.514075405
0.77200,2.12446422
0.77250,1.514075405
0.77300,0.9036865895
0.77350,1.819269813
0.77400,3.345241851
0.77450,3.955630667
0.77500,3.040047443
0.77550,2.429658628
0.77600,3.040047443
0.77650,3.955630667
0.77700,3.650436259
0.77750,2.12446422
0.77800,0.5984921818
0.77850,-0.01189663358
0.77900,0.2932977741
0.77950,0.9036865895
0.78000,1.208880997
0.78050,0.9036865895
0.78100,0.2932977741
0.78150,-0.01189663358
0.78200,-1.232674264
0.78250,-2.453451895
0.78300,-3.063840711
0.78350,-3.063840711
0.78400,-3.369035118
0.78450,-3.979423934
0.78500,-4.589812749
0.78550,-4.895007157
0.78600,-4.895007157
0.78650,-4.895007157
0.78700,-4.895007157
0.78750,-4.895007157
0.78800,-3.979423934
0.78850,-2.453451895
0.78900,-0.01189663358
0.78950,1.819269813
0.79000,1.208880997
0.79050,-1.232674264
0.79100,-2.758646303
0.79150,-2.148257487
0.79200,-1.232674264
0.79250,-2.148257487
0.79300,-3.369035118
0.79350,-3.063840711
0.79400,-1.537868672
0.79450,-0.9274798567
0.79500,-0.622285449
0.79550,-0.3170910413
0.79600,-0.3170910413
0.79650,-1.537868672
0.79700,-3.063840711
0.79750,-3.063840711
0.79800,-1.84306308
0.79850,-1.537868672
0.79900,-1.84306308
0.79950,-2.453451895
0.80000,-1.84306308
0.80050,-1.232674264
0.80100,-1.537868672
0.80150,-1.84306308
0.80200,-2.148257487
0.80250,-1.84306308
0.80300,-1.232674264
0.80350,-0.622285449
0.80400,-0.01189663358
0.80450,-0.01189663358
0.80500,-0.01189663358
0.80550,0.2932977741
0.80600,1.208880997
0.80650,1.819269813
0.80700,1.819269813
0.80750,1.819269813
0.80800,2.12446422
0.80850,1.819269813
0.80900,1.208880997
0.80950,0.9036865895
0.81000,1.514075405
0.81050,2.12446422
0.81100,2.12446422
0.81150,0.9036865895
0.81200,0.2932977741
0.81250,0.9036865895
0.81300,2.12446422
0.81350,2.429658628
0.81400,1.514075405
0.81450,0.2932977741
0.81500,-0.01189663358
0.81550,-0.3170910413
0.81600,-0.622285449
0.81650,-0.9274798567
0.81700,-0.622285449
0.81750,-0.3170910413
0.81800,-0.9274798567
0.81850,-2.148257487
0.81900,-2.758646303
0.81950,-1.537868672
0.82000,-0.9274798567
0.82050,-1.537868672
0.82100,-2.758646303
0.82150,-2.148257487
0.82200,-1.232674264
0.82250,-1.537868672
0.82300,-2.758646303
0.82350,-3.063840711
0.82400,-1.537868672
0.82450,-0.622285449
0.82500,-1.232674264
0.82550,-1.537868672
0.82600,-0.622285449
0.82650,-0.01189663358
0.82700,-0.3170910413
0.82750,-1.537868672
0.82800,-1.232674264
0.82850,-0.01189663358
0.82900,0.9036865895
0.82950,0.2932977741
0.83000,-0.01189663358
0.83050,-0.622285449
0.83100,-0.9274798567
0.83150,-0.622285449
0.83200,-0.01189663358
0.83250,-0.01189663358
0.83300,-0.01189663358
0.83350,-0.622285449
0.83400,-0.01189663358
0.83450,0.5984921818
0.83500,0.2932977741
0.83550,-0.622285449
0.83600,-0.9274798567
0.83650,-0.3170910413
0.83700,-0.01189663358
0.83750,-0.01189663358
0.83800,0.5984921818
0.83850,2.429658628
0.83900,3.650436259
0.83950,2.734853036
0.84000,0.5984921818
0.84050,0.5984921818
0.84100,3.040047443
0.84150,5.176408297
0.84200,5.786797113
0.84250,5.481602705
0.84300,6.09199152
0.84350,7.312769151
0.84400,7.923157967
0.84450,6.397185928
0.84500,4.260825074
0.84550,3.040047443
0.84600,3.040047443
0.84650,4.260825074
0.84700,5.176408297
0.84750,5.786797113
0.84800,6.397185928
0.84850,6.702380336
0.84900,6.702380336
0.84950,6.702380336
0.85000,6.702380336
0.85050,7.617963559
0.85100,9.143935597
0.85150,10.05951882
0.85200,9.754324413
0.85250,9.449130005
0.85300,8.83874119
0.85350,8.533546782
0.85400,7.923157967
0.85450,6.702380336
0.85500,4.566019482
0.85550,2.12446422
0.85600,-0.01189663358
0.85650,-0.9274798567
0.85700,-2.148257487
0.85750,-3.674229526
0.85800,-4.895007157
0.85850,-5.200201565
0.85900,-5.505395972
0.85950,-7.336562418
0.86000,-9.77811768
0.86050,-10.3885065
0.86100,-9.167728865
0.86150,-8.557340049
0.86200,-10.08331209
0.86250,-11.60928413
0.86300,-11.91447853
0.86350,-11.60928413
0.86400,-11.30408972
0.86450,-10.99889531
0.86500,-10.08331209
0.86550,-9.472923272
0.86600,-9.77811768
0.86650,-10.3885065
0.86700,-9.167728865
0.86750,-7.031368011
0.86800,-6.115784788
0.86850,-7.336562418
0.86900,-8.862534457
0.86950,-10.08331209
0.87000,-10.6937009
0.87050,-11.30408972
0.87100,-11.60928413
0.87150,-10.99889531
0.87200,-10.3885065
0.87250,-9.77811768
0.87300,-8.557340049
0.87350,-7.641756826
0.87400,-7.641756826
0.87450,-8.862534457
0.87500,-9.472923272
0.87550,-8.862534457
0.87600,-7.336562418
0.87650,-6.420979195
0.87700,-6.420979195
0.87750,-6.420979195
0.87800,-5.200201565
0.87850,-3.369035118
0.87900,-2.148257487
0.87950,-3.674229526
0.88000,-5.505395972
0.88050,-4.589812749
0.88100,-0.9274798567
0.88150,2.429658628
0.88200,3.040047443
0.88250,1.514075405
0.88300,0.9036865895
0.88350,2.12446422
0.88400,3.345241851
0.88450,3.345241851
0.88500,3.040047443
0.88550,2.734853036
0.88600,2.12446422
0.88650,1.819269813
0.88700,2.12446422
0.88750,2.734853036
0.88800,2.734853036
0.88850,2.429658628
0.88900,2.12446422
0.88950,2.12446422
0.89000,1.819269813
0.89050,1.208880997
0.89100,1.208880997
0.89150,1.819269813
0.89200,1.819269813
0.89250,1.208880997
0.89300,0.2932977741
0.89350,-0.3170910413
0.89400,-0.01189663358
0.89450,0.5984921818
0.89500,1.514075405
0.89550,2.12446422
0.89600,2.429658628
0.89650,2.429658628
0.89700,3.040047443
0.89750,3.650436259
0.89800,3.650436259
0.89850,3.345241851
0.89900,3.040047443
0.89950,3.650436259
0.90000,4.260825074
0.90050,5.481602705
0.90100,7.007574744
0.90150,8.228352374
0.90200,8.83874119
0.90250,8.83874119
0.90300,7.923157967
0.90350,7.312769151
0.90400,7.007574744
0.90450,7.617963559
0.90500,7.617963559
0.90550,6.702380336
0.90600,6.09199152
0.90650,7.617963559
0.90700,9.754324413
0.90750,10.36471323
0.90800,8.83874119
0.90850,7.617963559
0.90900,7.007574744
0.90950,6.702380336
0.91000,5.786797113
0.91050,5.481602705
0.91100,5.481602705
0.91150,5.786797113
0.91200,6.09199152
0.91250,6.397185928
0.91300,7.617963559
0.91350,9.449130005
0.91400,10.36471323
0.91450,10.05951882
0.91500,9.449130005
0.91550,9.143935597
0.91600,9.143935597
0.91650,8.83874119
0.91700,7.923157967
0.91750,6.397185928
0.91800,5.786797113
0.91850,5.786797113
0.91900,5.481602705
0.91950,4.87121389
0.92000,4.87121389
0.92050,5.176408297
0.92100,4.260825074
0.92150,2.12446422
0.92200,1.208880997
0.92250,2.734853036
0.92300,3.955630667
0.92350,3.345241851
0.92400,1.819269813
0.92450,1.208880997
0.92500,1.208880997
0.92550,1.208880997
0.92600,0.5984921818
0.92650,0.9036865895
0.92700,0.9036865895
0.92750,-0.3170910413
0.92800,-3.979423934
0.92850,-7.946951234
0.92900,-10.6937009
0.92950,-11.91447853
0.93000,-12.52486735
0.93050,-12.83006176
0.93100,-12.83006176
0.93150,-12.83006176
0.93200,-12.21967294
0.93250,-10.99889531
0.93300,-9.77811768
0.93350,-8.862534457
0.93400,-7.946951234
0.93450,-7.641756826
0.93500,-7.641756826
0.93550,-8.252145642
0.93600,-8.557340049
0.93650,-8.252145642
0.93700,-7.641756826
0.93750,-6.115784788
0.93800,-3.369035118
0.93850,-1.232674264
0.93900,-1.232674264
0.93950,-2.758646303
0.94000,-3.674229526
0.94050,-3.369035118
0.94100,-2.453451895
0.94150,-1.84306308
0.94200,-1.232674264
0.94250,-0.01189663358
0.94300,-0.01189663358
0.94350,-1.232674264
0.94400,-3.063840711
0.94450,-4.284618341
0.94500,-4.589812749
0.94550,-4.589812749
0.94600,-3.979423934
0.94650,-3.063840711
0.94700,-3.063840711
0.94750,-3.063840711
0.94800,-2.453451895
0.94850,-1.537868672
0.94900,-0.9274798567
0.94950,-0.9274798567
0.95000,-0.622285449
0.95050,-0.01189663358
0.95100,-0.01189663358
0.95150,-0.01189663358
0.95200,-0.3170910413
0.95250,-0.01189663358
0.95300,0.2932977741
0.95350,1.819269813
0.95400,3.040047443
0.95450,3.345241851
0.95500,3.650436259
0.95550,4.87121389
0.95600,6.397185928
0.95650,6.397185928
0.95700,4.260825074
0.95750,3.040047443
0.95800,3.650436259
0.95850,4.260825074
0.95900,3.040047443
0.95950,1.208880997
0.96000,1.514075405
0.96050,2.12446422
0.96100,1.819269813
0.96150,0.9036865895
0.96200,1.514075405
0.96250,2.734853036
0.96300,2.12446422
0.96350,0.5984921818
0.96400,-0.01189663358
0.96450,0.9036865895
0.96500,1.514075405
0.96550,1.208880997
0.96600,1.819269813
0.96650,3.040047443
0.96700,3.040047443
0.96750,2.12446422
0.96800,1.819269813
0.96850,2.12446422
0.96900,2.12446422
0.96950,1.208880997
0.97000,1.208880997
0.97050,2.429658628
0.97100,3.040047443
0.97150,1.514075405
0.97200,-0.01189663358
0.97250,-0.3170910413
0.97300,0.5984921818
0.97350,1.208880997
0.97400,0.5984921818
0.97450,-0.3170910413
0.97500,-1.232674264
0.97550,-1.84306308
0.97600,-2.453451895
0.97650,-2.148257487
0.97700,-1.232674264
0.97750,-0.01189663358
0.97800,-0.01189663358
0.97850,-0.01189663358
0.97900,-0.3170910413
0.97950,-0.01189663358
0.98000,0.2932977741
0.98050,-0.01189663358
0.98100,-0.3170910413
0.98150,-0.01189663358
0.98200,0.5984921818
0.98250,1.819269813
0.98300,2.12446422
0.98350,2.429658628
0.98400,3.345241851
0.98450,4.260825074
0.98500,3.650436259
0.98550,2.12446422
0.98600,1.208880997
0.98650,1.514075405
0.98700,1.514075405
0.98750,1.514075405
0.98800,1.819269813
0.98850,2.429658628
0.98900,2.12446422
0.98950,0.5984921818
0.99000,-0.01189663358
0.99050,0.5984921818
0.99100,2.429658628
0.99150,2.734853036
0.99200,1.514075405
0.99250,-0.01189663358
0.99300,-0.01189663358
0.99350,0.5984921818
0.99400,0.5984921818
0.99450,0.5984921818
0.99500,0.5984921818
0.99550,0.2932977741
0.99600,-0.01189663358
0.99650,-0.622285449
0.99700,-0.3170910413
0.99750,-0.01189663358
0.99800,-0.01189663358
0.99850,-0.3170910413
0.99900,-0.3170910413
0.99950,0.2932977741
1.00000,0.2932977741
1.00050,-0.9274798567
1.00100,-1.537868672
1.00150,-0.9274798567
1.00200,0.2932977741
1.00250,0.9036865895
1.00300,1.819269813
1.00350,3.345241851
1.00400,4.566019482
1.00450,4.566019482
1.00500,3.955630667
1.00550,3.040047443
1.00600,2.429658628
1.00650,0.5984921818
1.00700,-0.622285449
1.00750,-0.3170910413
1.00800,0.5984921818
1.00850,1.208880997
1.00900,0.9036865895
1.00950,0.9036865895
1.01000,1.514075405
1.01050,2.429658628
1.01100,2.734853036
1.01150,2.429658628
1.01200,2.12446422
1.01250,1.514075405
1.01300,0.5984921818
1.01350,0.2932977741
1.01400,-0.01189663358
1.01450,0.2932977741
1.01500,0.9036865895
1.01550,2.12446422
1.01600,2.429658628
1.01650,1.819269813
1.01700,1.208880997
1.01750,1.208880997
1.01800,1.208880997
1.01850,-0.01189663358
1.01900,-0.622285449
1.01950,-0.3170910413
1.02000,-0.3170910413
1.02050,-0.622285449
1.02100,-0.9274798567
1.02150,-0.3170910413
1.02200,-0.01189663358
1.02250,-0.01189663358
1.02300,-0.9274798567
1.02350,-0.622285449
1.02400,0.5984921818
1.02450,2.12446422
1.02500,3.040047443
1.02550,3.040047443
1.02600,1.819269813
1.02650,-0.01189663358
1.02700,-0.3170910413
1.02750,0.2932977741
1.02800,1.208880997
1.02850,0.5984921818
1.02900,-0.01189663358
1.02950,0.2932977741
1.03000,1.514075405
1.03050,1.208880997
1.03100,-0.622285449
1.03150,-1.84306308
1.03200,-1.537868672
1.03250,-0.622285449
1.03300,-0.9274798567
1.03350,-1.84306308
1.03400,-2.758646303
1.03450,-2.758646303
1.03500,-2.453451895
1.03550,-1.84306308
1.03600,-2.148257487
1.03650,-3.063840711
1.03700,-3.674229526
1.03750,-3.674229526
1.03800,-4.284618341
1.03850,-6.115784788
1.03900,-8.252145642
1.03950,-8.557340049
1.04000,-7.336562418
1.04050,-6.115784788
1.04100,-5.505395972
1.04150,-5.200201565
1.04200,-6.420979195
1.04250,-8.862534457
1.04300,-10.08331209
1.04350,-8.862534457
1.04400,-7.336562418
1.04450,-8.557340049
1.04500,-11.30408972
1.04550,-12.52486735
1.04600,-11.60928413
1.04650,-11.91447853
1.04700,-14.05083939
1.04750,-15.57681143
1.04800,-14.3560338
1.04850,-11.60928413
1.04900,-9.167728865
1.04950,-7.946951234
1.05000,-6.726173603
1.05050,-5.505395972
1.05100,-5.200201565
1.05150,-6.115784788
1.05200,-6.726173603
1.05250,-6.115784788
1.05300,-4.895007157
1.05350,-3.369035118
1.05400,-2.148257487
1.05450,-0.9274798567
1.05500,-0.3170910413
1.05550,0.2932977741
1.05600,0.2932977741
1.05650,-0.01189663358
1.05700,-0.622285449
1.05750,-0.3170910413
1.05800,0.2932977741
1.05850,1.208880997
1.05900,1.208880997
1.05950,1.208880997
1.06000,1.208880997
1.06050,1.514075405
1.06100,1.208880997
1.06150,1.208880997
1.06200,1.514075405
1.06250,2.12446422
1.06300,2.734853036
1.06350,3.040047443
1.06400,2.734853036
1.06450,1.819269813
1.06500,0.9036865895
1.06550,1.208880997
1.06600,2.429658628
1.06650,3.040047443
1.06700,2.12446422
1.06750,1.208880997
1.06800,0.9036865895
1.06850,1.208880997
1.06900,0.5984921818
1.06950,-0.01189663358
1.07000,0.2932977741
1.07050,1.819269813
1.07100,2.12446422
1.07150,0.5984921818
1.07200,-0.3170910413
1.07250,-0.01189663358
1.07300,0.2932977741
1.07350,0.2932977741
1.07400,0.2932977741
1.07450,0.5984921818
1.07500,0.9036865895
1.07550,0.2932977741
1.07600,-0.3170910413
1.07650,-0.01189663358
1.07700,0.5984921818
1.07750,0.2932977741
1.07800,-0.01189663358
1.07850,-0.01189663358
1.07900,0.9036865895
1.07950,0.9036865895
1.08000,0.2932977741
1.08050,0.5984921818
1.08100,1.819269813
1.08150,2.429658628
1.08200,1.514075405
1.08250,1.208880997
1.08300,1.819269813
1.08350,2.12446422
1.08400,1.208880997
1.08450,0.9036865895
1.08500,1.514075405
1.08550,2.429658628
1.08600,1.514075405
1.08650,-0.622285449
1.08700,-2.453451895
1.08750,-2.453451895
1.08800,-1.232674264
1.08850,0.9036865895
1.08900,3.955630667
1.08950,7.007574744
1.09000,9.143935597
1.09050,9.449130005
1.09100,9.449130005
1.09150,9.754324413
1.09200,10.97510204
1.09250,11.58549086
1.09300,10.66990764
1.09350,8.533546782
1.09400,7.007574744
1.09450,7.312769151
1.09500,8.533546782
1.09550,9.449130005
1.09600,10.05951882
1.09650,10.36471323
1.09700,10.36471323
1.09750,9.754324413
1.09800,9.143935597
1.09850,9.143935597
1.09900,9.143935597
1.09950,9.143935597
1.10000,8.83874119
1.10050,8.83874119
1.10100,9.754324413
1.10150,10.66990764
1.10200,11.28029645
1.10250,10.05951882
1.10300,7.617963559
1.10350,5.481602705
1.10400,4.566019482
1.10450,3.955630667
1.10500,2.12446422
1.10550,-0.3170910413
1.10600,-1.537868672
1.10650,-0.9274798567
1.10700,-0.01189663358
1.10750,-0.01189663358
1.10800,-1.232674264
1.10850,-1.84306308
1.10900,-2.148257487
1.10950,-3.063840711
1.11000,-4.589812749
1.11050,-6.115784788
1.11100,-7.031368011
1.11150,-6.726173603
1.11200,-5.200201565
1.11250,-3.979423934
1.11300,-4.284618341
1.11350,-4.284618341
1.11400,-2.758646303
1.11450,-0.9274798567
1.11500,-0.9274798567
1.11550,-3.369035118
1.11600,-5.200201565
1.11650,-4.284618341
1.11700,-3.063840711
1.11750,-4.284618341
1.11800,-7.031368011
1.11850,-8.862534457
1.11900,-8.862534457
1.11950,-7.946951234
1.12000,-7.336562418
1.12050,-6.420979195
1.12100,-5.505395972
1.12150,-4.284618341
1.12200,-2.148257487
1.12250,0.2932977741
1.12300,2.429658628
1.12350,2.12446422
1.12400,-0.01189663358
1.12450,-1.84306308
1.12500,-1.84306308
1.12550,-1.84306308
1.12600,-2.758646303
1.12650,-4.895007157
1.12700,-6.420979195
1.12750,-7.336562418
1.12800,-7.641756826
1.12850,-7.336562418
1.12900,-5.81059038
1.12950,-4.589812749
1.13000,-3.979423934
1.13050,-3.674229526
1.13100,-3.369035118
1.13150,-3.369035118
1.13200,-3.674229526
1.13250,-4.895007157
1.13300,-6.115784788
1.13350,-6.420979195
1.13400,-6.420979195
1.13450,-6.115784788
1.13500,-6.115784788
1.13550,-6.420979195
1.13600,-6.420979195
1.13650,-6.115784788
1.13700,-6.115784788
1.13750,-6.420979195
1.13800,-6.420979195
1.13850,-5.200201565
1.13900,-3.674229526
1.13950,-3.369035118
1.14000,-3.674229526
1.14050,-3.369035118
1.14100,-2.758646303
1.14150,-3.063840711
1.14200,-4.284618341
1.14250,-3.979423934
1.14300,-1.84306308
1.14350,0.2932977741
1.14400,1.514075405
1.14450,1.514075405
1.14500,1.819269813
1.14550,2.429658628
1.14600,3.345241851
1.14650,3.650436259
1.14700,3.650436259
1.14750,2.734853036
1.14800,1.514075405
1.14850,0.5984921818
1.14900,0.5984921818
1.14950,1.514075405
1.15000,2.429658628
1.15050,3.040047443
1.15100,3.345241851
1.15150,3.650436259
1.15200,3.650436259
1.15250,3.650436259
1.15300,3.955630667
1.15350,3.955630667
1.15400,3.345241851
1.15450,1.514075405
1.15500,-0.01189663358
1.15550,-0.01189663358
1.15600,-0.01189663358
1.15650,-0.01189663358
1.15700,-0.622285449
1.15750,-1.232674264
1.15800,-2.148257487
1.15850,-3.979423934
1.15900,-6.420979195
1.15950,-7.641756826
1.16000,-6.726173603
1.16050,-6.115784788
1.16100,-6.420979195
1.16150,-7.641756826
1.16200,-7.336562418
1.16250,-5.200201565
1.16300,-2.758646303
1.16350,-1.537868672
1.16400,-1.537868672
1.16450,-1.232674264
1.16500,-0.622285449
1.16550,-0.01189663358
1.16600,-0.3170910413
1.16650,-0.3170910413
1.16700,0.2932977741
1.16750,1.514075405
1.16800,2.429658628
1.16850,2.734853036
1.16900,3.345241851
1.16950,4.566019482
1.17000,6.397185928
1.17050,6.702380336
1.17100,4.566019482
1.17150,1.208880997
1.17200,-1.232674264
1.17250,-2.453451895
1.17300,-1.84306308
1.17350,-0.3170910413
1.17400,1.208880997
1.17450,2.429658628
1.17500,2.429658628
1.17550,1.514075405
1.17600,-0.01189663358
1.17650,-0.622285449
1.17700,-0.622285449
1.17750,0.2932977741
1.17800,1.819269813
1.17850,2.429658628
1.17900,1.819269813
1.17950,1.514075405
1.18000,2.429658628
1.18050,4.260825074
1.18100,5.481602705
1.18150,4.260825074
1.18200,2.429658628
1.18250,1.208880997
1.18300,1.514075405
1.18350,2.429658628
1.18400,3.955630667
1.18450,5.481602705
1.18500,7.007574744
1.18550,7.312769151
1.18600,6.702380336
1.18650,5.481602705
1.18700,4.260825074
1.18750,3.040047443
1.18800,1.819269813
1.18850,0.5984921818
1.18900,0.2932977741
1.18950,0.5984921818
1.19000,0.2932977741
1.19050,-0.3170910413
1.19100,-0.622285449
1.19150,-0.01189663358
1.19200,0.5984921818
1.19250,0.9036865895
1.19300,0.2932977741
1.19350,-0.01189663358
1.19400,0.2932977741
1.19450,0.9036865895
1.19500,0.5984921818
1.19550,-0.01189663358
1.19600,-0.01189663358
1.19650,0.2932977741
1.19700,0.9036865895
1.19750,1.819269813
1.19800,2.429658628
1.19850,2.429658628
1.19900,1.819269813
1.19950,1.819269813
1.20000,2.12446422
1.20050,1.208880997
1.20100,-0.622285449
1.20150,-1.537868672
1.20200,-0.01189663358
1.20250,1.208880997
1.20300,0.5984921818
1.20350,-0.3170910413
1.20400,-0.01189663358
1.20450,0.5984921818
1.20500,0.2932977741
1.20550,-0.9274798567
1.20600,-1.232674264
1.20650,-0.9274798567
1.20700,-2.758646303
1.20750,-6.726173603
1.20800,-9.77811768
1.20850,-10.3885065
1.20900,-9.167728865
1.20950,-8.252145642
1.21000,-7.031368011
1.21050,-4.589812749
1.21100,-1.84306308
1.21150,-1.232674264
1.21200,-2.453451895
1.21250,-2.758646303
1.21300,-1.537868672
1.21350,-0.01189663358
1.21400,0.2932977741
1.21450,-0.01189663358
1.21500,0.2932977741
1.21550,0.2932977741
1.21600,-0.9274798567
1.21650,-3.369035118
1.21700,-4.284618341
1.21750,-3.063840711
1.21800,-1.232674264
1.21850,-1.537868672
1.21900,-2.148257487
1.21950,-1.232674264
1.22000,0.2932977741
1.22050,0.9036865895
1.22100,-0.01189663358
1.22150,-0.622285449
1.22200,-0.3170910413
1.22250,0.2932977741
1.22300,-0.01189663358
1.22350,-1.232674264
1.22400,-1.537868672
1.22450,-0.9274798567
1.22500,-0.3170910413
1.22550,-0.3170910413
1.22600,-0.01189663358
1.22650,0.9036865895
1.22700,0.9036865895
1.22750,-0.01189663358
1.22800,-0.622285449
1.22850,-0.9274798567
1.22900,-0.622285449
1.22950,-0.3170910413
1.23000,-0.01189663358
1.23050,0.5984921818
1.23100,1.208880997
1.23150,1.819269813
1.23200,3.040047443
1.23250,3.345241851
1.23300,2.429658628
1.23350,0.5984921818
1.23400,0.5984921818
1.23450,3.040047443
1.23500,5.176408297
1.23550,4.566019482
1.23600,3.345241851
1.23650,4.260825074
1.23700,7.007574744
1.23750,9.143935597
1.23800,8.83874119
1.23850,9.143935597
1.23900,10.97510204
1.23950,12.50107408
1.24000,12.80626849
1.24050,12.50107408
1.24100,12.80626849
1.24150,13.41665731
1.24200,12.80626849
1.24250,11.89068527
1.24300,11.58549086
1.24350,11.58549086
1.24400,11.28029645
1.24450,10.66990764
1.24500,10.97510204
1.24550,11.89068527
1.24600,12.19587967
1.24650,11.58549086
1.24700,10.97510204
1.24750,10.36471323
1.24800,9.143935597
1.24850,7.007574744
1.24900,4.87121389
1.24950,3.650436259
1.25000,2.734853036
1.25050,1.514075405
1.25100,0.9036865895
1.25150,1.208880997
1.25200,0.2932977741
1.25250,-2.148257487
1.25300,-5.505395972
1.25350,-7.641756826
1.25400,-7.946951234
1.25450,-7.641756826
1.25500,-7.641756826
1.25550,-7.641756826
1.25600,-8.252145642
1.25650,-9.472923272
1.25700,-10.6937009
1.25750,-10.3885065
1.25800,-8.252145642
1.25850,-5.81059038
1.25900,-4.284618341
1.25950,-3.979423934
1.26000,-3.674229526
1.26050,-3.063840711
1.26100,-2.758646303
1.26150,-2.758646303
1.26200,-3.369035118
1.26250,-3.979423934
1.26300,-4.895007157
1.26350,-5.200201565
1.26400,-4.895007157
1.26450,-3.369035118
1.26500,-0.9274798567
1.26550,0.5984921818
1.26600,0.5984921818
1.26650,-0.3170910413
1.26700,-1.84306308
1.26750,-1.84306308
1.26800,-0.9274798567
1.26850,-0.01189663358
1.26900,0.5984921818
1.26950,1.208880997
1.27000,1.819269813
1.27050,1.819269813
1.27100,0.9036865895
1.27150,0.2932977741
1.27200,0.9036865895
1.27250,2.429658628
1.27300,2.12446422
1.27350,-0.01189663358
1.27400,-2.148257487
1.27450,-1.84306308
1.27500,-0.3170910413
1.27550,0.2932977741
1.27600,-0.01189663358
1.27650,-0.01189663358
1.27700,0.9036865895
1.27750,2.12446422
1.27800,2.12446422
1.27850,1.514075405
1.27900,1.208880997
1.27950,-0.01189663358
1.28000,-1.537868672
1.28050,-2.758646303
1.28100,-2.758646303
1.28150,-1.537868672
1.28200,-0.01189663358
1.28250,0.2932977741
1.28300,0.9036865895
1.28350,2.12446422
1.28400,3.650436259
1.28450,4.260825074
1.28500,4.260825074
1.28550,4.260825074
1.28600,5.176408297
1.28650,6.09199152
1.28700,6.09199152
1.28750,4.87121389
1.28800,3.345241851
1.28850,2.12446422
1.28900,0.5984921818
1.28950,-0.3170910413
1.29000,-1.84306308
1.29050,-2.758646303
1.29100,-4.284618341
1.29150,-5.505395972
1.29200,-5.81059038
1.29250,-4.284618341
1.29300,-2.453451895
1.29350,-2.453451895
1.29400,-3.674229526
1.29450,-4.284618341
1.29500,-3.063840711
1.29550,-1.84306308
1.29600,-1.232674264
1.29650,-1.537868672
1.29700,-1.537868672
1.29750,-1.537868672
1.29800,-2.148257487
1.29850,-3.063840711
1.29900,-2.758646303
1.29950,-1.84306308
1.30000,-1.537868672
1.30050,-2.148257487
1.30100,-1.84306308
1.30150,0.2932977741
1.30200,3.345241851
1.30250,4.260825074
1.30300,3.345241851
1.30350,2.429658628
1.30400,2.12446422
1.30450,2.12446422
1.30500,2.429658628
1.30550,3.650436259
1.30600,5.786797113
1.30650,7.007574744
1.30700,6.397185928
1.30750,5.481602705
1.30800,4.87121389
1.30850,4.566019482
1.30900,3.650436259
1.30950,2.12446422
1.31000,1.819269813
1.31050,2.429658628
1.31100,3.345241851
1.31150,3.955630667
1.31200,3.650436259
1.31250,3.650436259
1.31300,3.955630667
1.31350,5.786797113
1.31400,7.923157967
1.31450,8.533546782
1.31500,6.397185928
1.31550,3.040047443
1.31600,1.208880997
1.31650,1.514075405
1.31700,1.514075405
1.31750,0.2932977741
1.31800,-1.232674264
1.31850,-1.84306308
1.31900,-1.84306308
1.31950,-2.453451895
1.32000,-3.674229526
1.32050,-3.674229526
1.32100,-2.453451895
1.32150,-1.537868672
1.32200,-2.148257487
1.32250,-2.148257487
1.32300,-1.537868672
1.32350,-0.622285449
1.32400,-1.232674264
1.32450,-3.369035118
1.32500,-6.726173603
1.32550,-9.77811768
1.32600,-11.30408972
1.32650,-10.6937009
1.32700,-9.77811768
1.32750,-10.99889531
1.32800,-13.44045057
1.32850,-13.44045057
1.32900,-10.6937009
1.32950,-7.336562418
1.33000,-5.81059038
1.33050,-4.284618341
1.33100,-1.232674264
1.33150,1.514075405
1.33200,2.734853036
1.33250,3.345241851
1.33300,4.566019482
1.33350,5.481602705
1.33400,4.566019482
1.33450,2.734853036
1.33500,1.208880997
1.33550,-0.01189663358
1.33600,-1.537868672
1.33650,-1.84306308
1.33700,-0.3170910413
1.33750,1.208880997
1.33800,0.5984921818
1.33850,-0.3170910413
1.33900,-0.3170910413
1.33950,0.5984921818
1.34000,0.9036865895
1.34050,-0.01189663358
1.34100,-0.622285449
1.34150,0.5984921818
1.34200,3.040047443
1.34250,4.260825074
1.34300,4.87121389
1.34350,5.176408297
1.34400,5.176408297
1.34450,4.566019482
1.34500,4.260825074
1.34550,4.566019482
1.34600,4.566019482
1.34650,5.176408297
1.34700,5.786797113
1.34750,6.09199152
1.34800,5.176408297
1.34850,3.650436259
1.34900,2.429658628
1.34950,2.734853036
1.35000,3.345241851
1.35050,3.955630667
1.35100,4.260825074
1.35150,4.87121389
1.35200,6.09199152
1.35250,7.007574744
1.35300,7.617963559
1.35350,7.007574744
1.35400,4.87121389
1.35450,1.819269813
1.35500,-0.9274798567
1.35550,-4.589812749
1.35600,-7.336562418
1.35650,-8.862534457
1.35700,-9.167728865
1.35750,-9.77811768
1.35800,-10.6937009
1.35850,-11.30408972
1.35900,-10.08331209
1.35950,-8.862534457
1.36000,-8.252145642
1.36050,-7.641756826
1.36100,-5.505395972
1.36150,-3.369035118
1.36200,-3.369035118
1.36250,-5.505395972
1.36300,-6.115784788
1.36350,-4.589812749
1.36400,-3.674229526
1.36450,-5.505395972
1.36500,-8.862534457
1.36550,-12.21967294
1.36600,-14.96642261
1.36650,-18.6287555
1.36700,-22.90147721
1.36750,-26.86900451
1.36800,-28.70017096
1.36850,-27.78458773
1.36900,-25.34303247
1.36950,-23.20667162
1.37000,-22.5962828
1.37050,-23.20667162
1.37100,-22.5962828
1.37150,-20.15472754
1.37200,-17.40797787
1.37250,-16.49239465
1.37300,-16.49239465
1.37350,-15.27161702
1.37400,-12.52486735
1.37450,-10.08331209
1.37500,-8.252145642
1.37550,-6.420979195
1.37600,-3.674229526
1.37650,-1.537868672
1.37700,-1.537868672
1.37750,-2.758646303
1.37800,-3.369035118
1.37850,-3.063840711
1.37900,-2.453451895
1.37950,-2.453451895
1.38000,-3.063840711
1.38050,-3.369035118
1.38100,-3.979423934
1.38150,-3.979423934
1.38200,-3.369035118
1.38250,-1.84306308
1.38300,-0.9274798567
1.38350,-1.232674264
1.38400,-1.84306308
1.38450,-1.232674264
1.38500,1.208880997
1.38550,4.566019482
1.38600,6.702380336
1.38650,7.312769151
1.38700,6.702380336
1.38750,4.566019482
1.38800,2.429658628
1.38850,0.9036865895
1.38900,1.819269813
1.38950,3.650436259
1.39000,5.176408297
1.39050,5.786797113
1.39100,4.87121389
1.39150,3.955630667
1.39200,3.345241851
1.39250,3.955630667
1.39300,5.176408297
1.39350,6.09199152
1.39400,6.397185928
1.39450,7.007574744
1.39500,7.923157967
1.39550,9.143935597
1.39600,9.449130005
1.39650,10.36471323
1.39700,12.19587967
1.39750,14.94262934
1.39800,17.0789902
1.39850,17.99457342
1.39900,17.68937901
1.39950,17.38418461
1.40000,18.60496224
1.40050,20.74132309
1.40100,21.0465175
1.40150,18.91015664
1.40200,15.85821257
1.40250,14.63743494
1.40300,14.02704612
1.40350,12.19587967
1.40400,9.449130005
1.40450,9.143935597
1.40500,12.80626849
1.40550,16.46860138
1.40600,16.77379579
1.40650,14.94262934
1.40700,13.72185171
1.40750,14.33224053
1.40800,14.63743494
1.40850,13.41665731
1.40900,11.89068527
1.40950,10.05951882
1.41000,8.83874119
1.41050,7.312769151
1.41100,6.09199152
1.41150,5.786797113
1.41200,6.702380336
1.41250,8.533546782
1.41300,10.36471323
1.41350,11.58549086
1.41400,12.19587967
1.41450,13.1114629
1.41500,13.72185171
1.41550,13.1114629
1.41600,10.66990764
1.41650,5.481602705
1.41700,-1.537868672
1.41750,-8.252145642
1.41800,-11.60928413
1.41850,-10.99889531
1.41900,-10.08331209
1.41950,-11.91447853
1.42000,-15.57681143
1.42050,-17.71317228
1.42100,-17.10278346
1.42150,-16.49239465
1.42200,-16.18720024
1.42250,-14.3560338
1.42300,-10.3885065
1.42350,-6.420979195
1.42400,-3.979423934
1.42450,-2.758646303
1.42500,-1.537868672
1.42550,-0.9274798567
1.42600,-1.84306308
1.42650,-3.369035118
1.42700,-4.284618341
1.42750,-4.284618341
1.42800,-4.895007157
1.42850,-5.200201565
1.42900,-4.284618341
1.42950,-2.453451895
1.43000,-1.84306308
1.43050,-2.148257487
1.43100,-2.148257487
1.43150,-1.537868672
1.43200,-2.148257487
1.43250,-3.674229526
1.43300,-4.284618341
1.43350,-3.063840711
1.43400,-1.537868672
1.43450,-1.84306308
1.43500,-3.369035118
1.43550,-3.979423934
1.43600,-3.369035118
1.43650,-2.758646303
1.43700,-2.758646303
1.43750,-2.758646303
1.43800,-3.674229526
1.43850,-5.200201565
1.43900,-7.031368011
1.43950,-7.946951234
1.44000,-8.252145642
1.44050,-9.472923272
1.44100,-11.30408972
1.44150,-11.60928413
1.44200,-9.167728865
1.44250,-5.81059038
1.44300,-3.979423934
1.44350,-3.063840711
1.44400,-3.063840711
1.44450,-4.589812749
1.44500,-6.726173603
1.44550,-9.167728865
1.44600,-10.6937009
1.44650,-11.91447853
1.44700,-12.83006176
1.44750,-12.83006176
1.44800,-11.60928413
1.44850,-9.77811768
1.44900,-8.862534457
1.44950,-8.252145642
1.45000,-7.641756826
1.45050,-6.115784788
1.45100,-4.284618341
1.45150,-2.758646303
1.45200,-1.232674264
1.45250,0.5984921818
1.45300,3.040047443
1.45350,3.955630667
1.45400,3.650436259
1.45450,3.345241851
1.45500,5.481602705
1.45550,7.923157967
1.45600,9.754324413
1.45650,11.58549086
1.45700,14.63743494
1.45750,18.29976783
1.45800,18.91015664
1.45850,17.0789902
1.45900,15.85821257
1.45950,17.68937901
1.46000,20.43612868
1.46050,21.65690631
1.46100,21.35171191
1.46150,19.52054546
1.46200,16.77379579
1.46250,14.02704612
1.46300,12.50107408
1.46350,12.80626849
1.46400,14.63743494
1.46450,17.0789902
1.46500,19.52054546
1.46550,21.0465175
1.46600,21.0465175
1.46650,19.82573987
1.46700,19.21535105
1.46750,18.29976783
1.46800,15.24782375
1.46850,10.05951882
1.46900,4.87121389
1.46950,1.514075405
1.47000,-0.9274798567
1.47050,-3.369035118
1.47100,-4.589812749
1.47150,-5.200201565
1.47200,-5.81059038
1.47250,-7.641756826
1.47300,-8.862534457
1.47350,-9.167728865
1.47400,-9.77811768
1.47450,-11.60928413
1.47500,-12.83006176
1.47550,-12.21967294
1.47600,-11.30408972
1.47650,-10.99889531
1.47700,-10.3885065
1.47750,-8.557340049
1.47800,-6.115784788
1.47850,-5.200201565
1.47900,-5.200201565
1.47950,-5.200201565
1.48000,-4.895007157
1.48050,-5.505395972
1.48100,-6.115784788
1.48150,-5.81059038
1.48200,-5.200201565
1.48250,-5.81059038
1.48300,-7.031368011
1.48350,-7.336562418
1.48400,-5.81059038
1.48450,-4.589812749
1.48500,-5.81059038
1.48550,-9.472923272
1.48600,-14.6612282
1.48650,-19.54433873
1.48700,-22.5962828
1.48750,-21.68069958
1.48800,-17.40797787
1.48850,-13.13525616
1.48900,-11.60928413
1.48950,-11.30408972
1.49000,-10.3885065
1.49050,-7.946951234
1.49100,-5.505395972
1.49150,-4.284618341
1.49200,-3.063840711
1.49250,-0.622285449
1.49300,0.9036865895
1.49350,0.9036865895
1.49400,-0.01189663358
1.49450,-0.01189663358
1.49500,0.5984921818
1.49550,1.514075405
1.49600,0.9036865895
1.49650,-0.3170910413
1.49700,-1.84306308
1.49750,-4.284618341
1.49800,-7.946951234
1.49850,-10.6937009
1.49900,-11.60928413
1.49950,-11.30408972
1.50000,-11.60928413
1.50050,-11.60928413
1.50100,-10.08331209
1.50150,-7.946951234
1.50200,-6.726173603
1.50250,-5.200201565
1.50300,-1.84306308
1.50350,1.819269813
1.50400,3.650436259
1.50450,3.040047443
1.50500,2.734853036
1.50550,4.566019482
1.50600,6.397185928
1.50650,6.09199152
1.50700,4.87121389
1.50750,5.481602705
1.50800,7.312769151
1.50850,8.228352374
1.50900,7.617963559
1.50950,7.617963559
1.51000,9.143935597
1.51050,9.754324413
1.51100,7.923157967
1.51150,2.734853036
1.51200,-4.284618341
1.51250,-10.6937009
1.51300,-14.3560338
1.51350,-14.3560338
1.51400,-11.30408972
1.51450,-7.641756826
1.51500,-4.284618341
1.51550,-1.84306308
1.51600,-0.01189663358
1.51650,2.734853036
1.51700,7.617963559
1.51750,12.80626849
1.51800,16.16340697
1.51850,18.29976783
1.51900,20.43612868
1.51950,23.79326717
1.52000,25.92962802
1.52050,25.92962802
1.52100,24.09846157
1.52150,21.65690631
1.52200,17.99457342
1.52250,13.1114629
1.52300,8.83874119
1.52350,8.228352374
1.52400,10.36471323
1.52450,13.72185171
1.52500,16.77379579
1.52550,19.82573987
1.52600,21.0465175
1.52650,18.29976783
1.52700,12.19587967
1.52750,6.702380336
1.52800,4.566019482
1.52850,3.650436259
1.52900,2.12446422
1.52950,-0.01189663358
1.53000,-0.622285449
1.53050,-0.9274798567
1.53100,-2.453451895
1.53150,-4.284618341
1.53200,-3.063840711
1.53250,-0.3170910413
1.53300,-1.84306308
1.53350,-8.862534457
1.53400,-15.57681143
1.53450,-16.79758906
1.53500,-12.83006176
1.53550,-9.167728865
1.53600,-7.641756826
1.53650,-5.81059038
1.53700,-3.063840711
1.53750,-0.9274798567
1.53800,-0.01189663358
1.53850,2.12446422
1.53900,6.09199152
1.53950,9.449130005
1.54000,10.97510204
1.54050,11.28029645
1.54100,11.28029645
1.54150,10.36471323
1.54200,8.83874119
1.54250,7.312769151
1.54300,6.397185928
1.54350,6.09199152
1.54400,7.312769151
1.54450,11.89068527
1.54500,18.91015664
1.54550,25.0140448
1.54600,27.76079447
1.54650,26.54001684
1.54700,21.65690631
1.54750,14.63743494
1.54800,8.83874119
1.54850,5.786797113
1.54900,3.650436259
1.54950,1.208880997
1.55000,-2.148257487
1.55050,-5.81059038
1.55100,-9.77811768
1.55150,-14.3560338
1.55200,-17.40797787
1.55250,-17.40797787
1.55300,-17.40797787
1.55350,-20.76511636
1.55400,-27.47939333
1.55450,-33.27808707
1.55500,-36.02483674
1.55550,-38.466392
1.55600,-40.90794727
1.55650,-41.82353049
1.55700,-40.60275286
1.55750,-39.68716963
1.55800,-40.90794727
1.55850,-43.04430812
1.55900,-43.65469693
1.55950,-42.73911371
1.56000,-40.29755845
1.56050,-36.02483674
1.56100,-29.92094859
1.56150,-24.12225484
1.56200,-20.15472754
1.56250,-16.79758906
1.56300,-12.21967294
1.56350,-7.946951234
1.56400,-5.505395972
1.56450,-5.200201565
1.56500,-3.674229526
1.56550,0.5984921818
1.56600,6.09199152
1.56650,10.05951882
1.56700,12.19587967
1.56750,14.33224053
1.56800,16.46860138
1.56850,17.68937901
1.56900,16.46860138
1.56950,13.72185171
1.57000,11.89068527
1.57050,12.50107408
1.57100,15.55301816
1.57150,18.29976783
1.57200,20.43612868
1.57250,20.74132309
1.57300,19.82573987
1.57350,17.99457342
1.57400,15.85821257
1.57450,14.02704612
1.57500,11.28029645
1.57550,7.617963559
1.57600,2.734853036
1.57650,-1.84306308
1.57700,-5.200201565
1.57750,-6.726173603
1.57800,-7.336562418
1.57850,-8.252145642
1.57900,-9.472923272
1.57950,-10.6937009
1.58000,-10.08331209
1.58050,-8.252145642
1.58100,-5.505395972
1.58150,-1.537868672
1.58200,3.040047443
1.58250,8.533546782
1.58300,13.1114629
1.58350,15.85821257
1.58400,16.77379579
1.58450,14.94262934
1.58500,11.89068527
1.58550,9.143935597
1.58600,7.617963559
1.58650,6.702380336
1.58700,3.650436259
1.58750,-0.9274798567
1.58800,-5.200201565
1.58850,-4.895007157
1.58900,-0.3170910413
1.58950,6.09199152
1.59000,11.58549086
1.59050,14.94262934
1.59100,17.0789902
1.59150,18.91015664
1.59200,21.35171191
1.59250,23.79326717
1.59300,25.92962802
1.59350,26.84521124
1.59400,26.84521124
1.59450,27.76079447
1.59500,29.59196091
1.59550,30.81273854
1.59600,29.28676651
1.59650,26.23482243
1.59700,22.57248954
1.59750,17.68937901
1.59800,11.28029645
1.59850,6.09199152
1.59900,6.702380336
1.59950,11.89068527
1.60000,15.85821257
1.60050,17.0789902
1.60100,18.60496224
1.60150,21.65690631
1.60200,21.96210072
1.60250,16.46860138
1.60300,10.36471323
1.60350,9.143935597
1.60400,10.36471323
1.60450,6.09199152
1.60500,-4.284618341
1.60550,-13.74564498
1.60600,-16.79758906
1.60650,-15.27161702
1.60700,-14.3560338
1.60750,-15.27161702
1.60800,-17.10278346
1.60850,-20.15472754
1.60900,-22.5962828
1.60950,-20.76511636
1.61000,-14.6612282
1.61050,-9.472923272
1.61100,-10.3885065
1.61150,-14.05083939
1.61200,-14.96642261
1.61250,-12.83006176
1.61300,-12.83006176
1.61350,-17.40797787
1.61400,-22.2910884
1.61450,-22.90147721
1.61500,-20.15472754
1.61550,-18.93394991
1.61600,-21.07031076
1.61650,-23.81706043
1.61700,-25.03783807
1.61750,-24.42744925
1.61800,-23.20667162
1.61850,-22.2910884
1.61900,-20.76511636
1.61950,-19.54433873
1.62000,-18.6287555
1.62050,-18.01836669
1.62100,-15.27161702
1.62150,-10.99889531
1.62200,-8.557340049
1.62250,-9.77811768
1.62300,-13.44045057
1.62350,-16.49239465
1.62400,-18.3235611
1.62450,-18.6287555
1.62500,-17.71317228
1.62550,-14.05083939
1.62600,-10.08331209
1.62650,-7.946951234
1.62700,-7.641756826
1.62750,-6.726173603
1.62800,-4.589812749
1.62850,-4.589812749
1.62900,-7.946951234
1.62950,-11.91447853
1.63000,-12.52486735
1.63050,-9.167728865
1.63100,-4.589812749
1.63150,-1.537868672
1.63200,-0.3170910413
1.63250,-0.3170910413
1.63300,1.208880997
1.63350,5.786797113
1.63400,11.89068527
1.63450,17.99457342
1.63500,23.79326717
1.63550,29.28676651
1.63600,31.72832177
1.63650,30.20234973
1.63700,26.84521124
1.63750,24.70885039
1.63800,23.18287835
1.63850,20.43612868
1.63900,17.68937901
1.63950,17.38418461
1.64000,19.82573987
1.64050,21.0465175
1.64100,19.82573987
1.64150,18.60496224
1.64200,17.38418461
1.64250,15.55301816
1.64300,13.72185171
1.64350,14.94262934
1.64400,18.29976783
1.64450,18.60496224
1.64500,13.1114629
1.64550,6.702380336
1.64600,4.260825074
1.64650,5.176408297
1.64700,4.566019482
1.64750,0.2932977741
1.64800,-5.81059038
1.64850,-13.74564498
1.64900,-21.68069958
1.64950,-26.86900451
1.65000,-28.70017096
1.65050,-29.61575418
1.65100,-31.44692063
1.65150,-31.44692063
1.65200,-27.47939333
1.65250,-22.5962828
1.65300,-19.54433873
1.65350,-17.10278346
1.65400,-11.60928413
1.65450,-5.200201565
1.65500,-1.84306308
1.65550,-1.537868672
1.65600,-0.3170910413
1.65650,1.514075405
1.65700,1.514075405
1.65750,-0.9274798567
1.65800,-2.453451895
1.65850,-0.9274798567
1.65900,1.208880997
1.65950,2.734853036
1.66000,3.345241851
1.66050,4.566019482
1.66100,5.786797113
1.66150,5.786797113
1.66200,4.260825074
1.66250,1.819269813
1.66300,-1.232674264
1.66350,-4.284618341
1.66400,-5.505395972
1.66450,-3.979423934
1.66500,-2.453451895
1.66550,-2.148257487
1.66600,-2.758646303
1.66650,-1.537868672
1.66700,1.819269813
1.66750,4.566019482
1.66800,3.955630667
1.66850,0.9036865895
1.66900,-1.84306308
1.66950,-3.674229526
1.67000,-5.200201565
1.67050,-5.505395972
1.67100,-3.369035118
1.67150,1.208880997
1.67200,6.09199152
1.67250,8.228352374
1.67300,8.533546782
1.67350,8.83874119
1.67400,8.533546782
1.67450,7.007574744
1.67500,4.566019482
1.67550,3.345241851
1.67600,3.345241851
1.67650,2.734853036
1.67700,1.819269813
1.67750,2.734853036
1.67800,4.566019482
1.67850,3.040047443
1.67900,-4.589812749
1.67950,-14.6612282
1.68000,-21.37550517
1.68050,-23.20667162
1.68100,-22.5962828
1.68150,-22.5962828
1.68200,-23.51186603
1.68250,-24.12225484
1.68300,-22.5962828
1.68350,-17.10278346
1.68400,-9.167728865
1.68450,-2.453451895
1.68500,0.2932977741
1.68550,1.514075405
1.68600,5.176408297
1.68650,11.28029645
1.68700,15.85821257
1.68750,17.99457342
1.68800,19.82573987
1.68850,22.87768394
1.68900,24.70885039
1.68950,23.18287835
1.69000,20.13093427
1.69050,18.91015664
1.69100,18.91015664
1.69150,18.29976783
1.69200,15.85821257
1.69250,13.1114629
1.69300,10.97510204
1.69350,9.143935597
1.69400,7.617963559
1.69450,4.260825074
1.69500,-0.01189663358
1.69550,-4.284618341
1.69600,-5.200201565
1.69650,-3.063840711
1.69700,-2.148257487
1.69750,-3.979423934
1.69800,-7.031368011
1.69850,-8.557340049
1.69900,-9.77811768
1.69950,-12.52486735
1.70000,-16.49239465
1.70050,-20.45992195
1.70100,-24.42744925
1.70150,-29.61575418
1.70200,-33.88847589
1.70250,-33.88847589
1.70300,-28.70017096
1.70350,-21.07031076
1.70400,-13.13525616
1.70450,-7.336562418
1.70500,-3.369035118
1.70550,-1.232674264
1.70600,-0.01189663358
1.70650,1.819269813
1.70700,5.786797113
1.70750,11.28029645
1.70800,16.77379579
1.70850,20.74132309
1.70900,22.57248954
1.70950,24.40365598
1.71000,27.45560006
1.71050,30.50754414
1.71100,31.72832177
1.71150,30.81273854
1.71200,29.89715532
1.71250,31.11793295
1.71300,34.16987703
1.71350,37.83220992
1.71400,40.884154
1.71450,42.71532044
1.71500,42.41012604
1.71550,40.57895959
1.71600,38.74779314
1.71650,38.13740433
1.71700,39.66337637
1.71750,42.41012604
1.71800,43.32570926
1.71850,41.49454281
1.71900,38.13740433
1.71950,35.39065466
1.72000,32.03351618
1.72050,26.84521124
1.72100,20.43612868
1.72150,16.46860138
1.72200,15.24782375
1.72250,12.80626849
1.72300,5.786797113
1.72350,-3.979423934
1.72400,-13.13525616
1.72450,-19.54433873
1.72500,-23.20667162
1.72550,-22.90147721
1.72600,-17.71317228
1.72650,-10.6937009
1.72700,-8.557340049
1.72750,-14.3560338
1.72800,-23.20667162
1.72850,-28.08978214
1.72900,-28.39497655
1.72950,-27.17419892
1.73000,-27.17419892
1.73050,-27.78458773
1.73100,-25.95342129
1.73150,-22.5962828
1.73200,-18.3235611
1.73250,-14.3560338
1.73300,-10.3885065
1.73350,-7.336562418
1.73400,-6.726173603
1.73450,-8.557340049
1.73500,-10.3885065
1.73550,-10.99889531
1.73600,-10.6937009
1.73650,-10.08331209
1.73700,-9.77811768
1.73750,-10.08331209
1.73800,-9.77811768
1.73850,-8.557340049
1.73900,-8.557340049
1.73950,-12.52486735
1.74000,-20.76511636
1.74050,-29.31055977
1.74100,-33.88847589
1.74150,-33.88847589
1.74200,-31.14172622
1.74250,-26.86900451
1.74300,-19.84953313
1.74350,-11.30408972
1.74400,-4.895007157
1.74450,-0.622285449
1.74500,3.040047443
1.74550,7.923157967
1.74600,10.97510204
1.74650,9.143935597
1.74700,4.566019482
1.74750,1.819269813
1.74800,2.734853036
1.74850,5.176408297
1.74900,6.702380336
1.74950,7.312769151
1.75000,7.617963559
1.75050,7.923157967
1.75100,7.923157967
1.75150,8.533546782
1.75200,8.83874119
1.75250,8.533546782
1.75300,6.397185928
1.75350,3.955630667
1.75400,3.040047443
1.75450,5.176408297
1.75500,9.143935597
1.75550,12.80626849
1.75600,14.02704612
1.75650,12.80626849
1.75700,10.36471323
1.75750,7.923157967
1.75800,6.09199152
1.75850,4.260825074
1.75900,3.040047443
1.75950,1.514075405
1.76000,-0.622285449
1.76050,-2.758646303
1.76100,-3.979423934
1.76150,-4.284618341
1.76200,-3.979423934
1.76250,-3.674229526
1.76300,-3.063840711
1.76350,-2.758646303
1.76400,-5.200201565
1.76450,-10.3885065
1.76500,-14.3560338
1.76550,-13.74564498
1.76600,-9.472923272
1.76650,-5.200201565
1.76700,-2.148257487
1.76750,0.5984921818
1.76800,4.566019482
1.76850,8.228352374
1.76900,11.89068527
1.76950,16.77379579
1.77000,21.96210072
1.77050,22.57248954
1.77100,18.91015664
1.77150,16.16340697
1.77200,16.46860138
1.77250,15.55301816
1.77300,8.83874119
1.77350,1.208880997
1.77400,-1.232674264
1.77450,0.2932977741
1.77500,-0.622285449
1.77550,-6.115784788
1.77600,-11.30408972
1.77650,-12.21967294
1.77700,-9.77811768
1.77750,-7.031368011
1.77800,-4.895007157
1.77850,-3.979423934
1.77900,-5.200201565
1.77950,-6.726173603
1.78000,-6.115784788
1.78050,-4.284618341
1.78100,-3.979423934
1.78150,-5.81059038
1.78200,-5.81059038
1.78250,-2.453451895
1.78300,0.5984921818
1.78350,2.12446422
1.78400,2.734853036
1.78450,3.650436259
1.78500,4.260825074
1.78550,3.650436259
1.78600,3.650436259
1.78650,3.955630667
1.78700,4.260825074
1.78750,3.955630667
1.78800,4.260825074
1.78850,5.176408297
1.78900,4.87121389
1.78950,3.955630667
1.79000,4.87121389
1.79050,8.228352374
1.79100,11.58549086
1.79150,11.89068527
1.79200,10.36471323
1.79250,9.143935597
1.79300,8.533546782
1.79350,7.617963559
1.79400,6.397185928
1.79450,6.09199152
1.79500,7.923157967
1.79550,11.58549086
1.79600,15.24782375
1.79650,17.38418461
1.79700,17.38418461
1.79750,16.46860138
1.79800,14.33224053
1.79850,12.19587967
1.79900,10.66990764
1.79950,10.36471323
1.80000,9.754324413
1.80050,5.481602705
1.80100,-1.232674264
1.80150,-8.557340049
1.80200,-14.05083939
1.80250,-18.93394991
1.80300,-22.90147721
1.80350,-24.12225484
1.80400,-21.98589399
1.80450,-19.54433873
1.80500,-18.6287555
1.80550,-16.79758906
1.80600,-11.60928413
1.80650,-6.726173603
1.80700,-4.589812749
1.80750,-4.589812749
1.80800,-3.674229526
1.80850,-1.84306308
1.80900,-1.84306308
1.80950,-2.758646303
1.81000,-2.148257487
1.81050,0.9036865895
1.81100,5.176408297
1.81150,8.533546782
1.81200,10.36471323
1.81250,10.66990764
1.81300,9.449130005
1.81350,7.923157967
1.81400,6.397185928
1.81450,4.87121389
1.81500,3.040047443
1.81550,0.5984921818
1.81600,-3.979423934
1.81650,-12.52486735
1.81700,-23.81706043
1.81750,-33.58328148
1.81800,-38.1611976
1.81850,-38.1611976
1.81900,-36.63522556
1.81950,-37.85600319
1.82000,-43.65469693
1.82050,-51.89494594
1.82100,-57.69363969
1.82150,-57.69363969
1.82200,-52.20014035
1.82250,-44.57028016
1.82300,-37.24561437
1.82350,-31.75211503
1.82400,-29.61575418
1.82450,-30.5313374
1.82500,-30.226143
1.82550,-26.5638101
1.82600,-20.45992195
1.82650,-16.49239465
1.82700,-13.74564498
1.82750,-9.472923272
1.82800,-2.453451895
1.82850,2.734853036
1.82900,3.345241851
1.82950,-0.01189663358
1.83000,-3.063840711
1.83050,-4.589812749
1.83100,-3.674229526
1.83150,-0.622285449
1.83200,4.566019482
1.83250,10.66990764
1.83300,15.85821257
1.83350,20.13093427
1.83400,23.48807276
1.83450,25.0140448
1.83500,25.0140448
1.83550,24.09846157
1.83600,23.79326717
1.83650,25.0140448
1.83700,26.54001684
1.83750,26.84521124
1.83800,26.84521124
1.83850,27.45560006
1.83900,29.59196091
1.83950,30.81273854
1.84000,30.20234973
1.84050,29.28676651
1.84100,28.9815721
1.84150,28.37118328
1.84200,24.40365598
1.84250,18.60496224
1.84300,14.63743494
1.84350,12.19587967
1.84400,7.923157967
1.84450,1.208880997
1.84500,-4.589812749
1.84550,-8.557340049
1.84600,-13.44045057
1.84650,-21.37550517
1.84700,-28.08978214
1.84750,-29.00536537
1.84800,-25.64822688
1.84850,-22.5962828
1.84900,-21.68069958
1.84950,-19.84953313
1.85000,-16.49239465
1.85050,-12.21967294
1.85100,-7.336562418
1.85150,-1.84306308
1.85200,1.514075405
1.85250,1.819269813
1.85300,1.819269813
1.85350,5.786797113
1.85400,11.58549086
1.85450,12.50107408
1.85500,7.617963559
1.85550,3.345241851
1.85600,5.786797113
1.85650,11.89068527
1.85700,17.0789902
1.85750,20.43612868
1.85800,23.18287835
1.85850,25.31923921
1.85900,25.62443361
1.85950,25.31923921
1.86000,24.70885039
1.86050,23.48807276
1.86100,21.96210072
1.86150,21.96210072
1.86200,22.57248954
1.86250,19.52054546
1.86300,11.58549086
1.86350,2.734853036
1.86400,-1.84306308
1.86450,-1.537868672
1.86500,1.514075405
1.86550,7.007574744
1.86600,12.50107408
1.86650,13.72185171
1.86700,8.228352374
1.86750,-0.3170910413
1.86800,-6.115784788
1.86850,-6.726173603
1.86900,-5.200201565
1.86950,-4.284618341
1.87000,-4.284618341
1.87050,-4.284618341
1.87100,-4.284618341
1.87150,-4.589812749
1.87200,-4.284618341
1.87250,-2.758646303
1.87300,-0.01189663358
1.87350,3.040047443
1.87400,4.260825074
1.87450,2.429658628
1.87500,-0.622285449
1.87550,-1.537868672
1.87600,-0.01189663358
1.87650,-0.9274798567
1.87700,-7.946951234
1.87750,-17.71317228
1.87800,-25.03783807
1.87850,-29.92094859
1.87900,-36.94041997
1.87950,-46.4014466
1.88000,-53.11572357
1.88050,-55.25208443
1.88100,-56.16766765
1.88150,-57.69363969
1.88200,-55.55727884
1.88250,-47.31702983
1.88300,-36.33003115
1.88350,-27.78458773
1.88400,-22.5962828
1.88450,-18.3235611
1.88500,-14.3560338
1.88550,-11.30408972
1.88600,-8.252145642
1.88650,-3.674229526
1.88700,0.9036865895
1.88750,5.176408297
1.88800,9.143935597
1.88850,13.1114629
1.88900,15.85821257
1.88950,17.38418461
1.89000,18.60496224
1.89050,20.74132309
1.89100,22.26729513
1.89150,21.65690631
1.89200,21.35171191
1.89250,22.87768394
1.89300,24.70885039
1.89350,25.0140448
1.89400,24.40365598
1.89450,25.31923921
1.89500,27.45560006
1.89550,28.9815721
1.89600,28.06598887
1.89650,25.0140448
1.89700,21.35171191
1.89750,18.29976783
1.89800,18.91015664
1.89850,21.0465175
1.89900,21.0465175
1.89950,17.38418461
1.90000,13.41665731
1.90050,11.28029645
1.90100,8.83874119
1.90150,4.566019482
1.90200,1.819269813
1.90250,4.260825074
1.90300,10.97510204
1.90350,17.0789902
1.90400,19.21535105
1.90450,16.77379579
1.90500,11.58549086
1.90550,6.397185928
1.90600,3.345241851
1.90650,1.208880997
1.90700,-4.284618341
1.90750,-14.05083939
1.90800,-21.07031076
1.90850,-22.2910884
1.90900,-22.2910884
1.90950,-26.5638101
1.91000,-31.44692063
1.91050,-28.70017096
1.91100,-18.93394991
1.91150,-9.167728865
1.91200,-2.758646303
1.91250,2.12446422
1.91300,6.397185928
1.91350,5.786797113
1.91400,1.819269813
1.91450,1.208880997
1.91500,5.786797113
1.91550,9.449130005
1.91600,7.007574744
1.91650,3.650436259
1.91700,4.260825074
1.91750,6.09199152
1.91800,2.734853036
1.91850,-4.895007157
1.91900,-10.3885065
1.91950,-10.3885065
1.92000,-7.946951234
1.92050,-6.420979195
1.92100,-4.895007157
1.92150,-2.148257487
1.92200,-0.01189663358
1.92250,0.2932977741
1.92300,-0.622285449
1.92350,-1.232674264
1.92400,-0.01189663358
1.92450,1.819269813
1.92500,3.650436259
1.92550,3.040047443
1.92600,1.208880997
1.92650,-0.01189663358
1.92700,0.2932977741
1.92750,1.514075405
1.92800,1.514075405
1.92850,-0.01189663358
1.92900,-0.622285449
1.92950,-1.84306308
1.93000,-5.81059038
1.93050,-12.52486735
1.93100,-18.01836669
1.93150,-18.01836669
1.93200,-13.44045057
1.93250,-10.6937009
1.93300,-13.44045057
1.93350,-18.01836669
1.93400,-18.6287555
1.93450,-14.6612282
1.93500,-10.08331209
1.93550,-8.252145642
1.93600,-7.946951234
1.93650,-7.946951234
1.93700,-8.557340049
1.93750,-9.77811768
1.93800,-10.6937009
1.93850,-10.6937009
1.93900,-10.08331209
1.93950,-9.472923272
1.94000,-7.641756826
1.94050,-3.979423934
1.94100,-0.01189663358
1.94150,0.9036865895
1.94200,-0.9274798567
1.94250,-4.589812749
1.94300,-7.641756826
1.94350,-8.557340049
1.94400,-7.336562418
1.94450,-5.81059038
1.94500,-5.505395972
1.94550,-6.420979195
1.94600,-6.115784788
1.94650,-3.979423934
1.94700,-1.84306308
1.94750,-1.537868672
1.94800,-2.758646303
1.94850,-4.284618341
1.94900,-5.200201565
1.94950,-4.895007157
1.95000,-2.758646303
1.95050,0.2932977741
1.95100,3.345241851
1.95150,6.702380336
1.95200,10.36471323
1.95250,11.89068527
1.95300,9.143935597
1.95350,4.260825074
1.95400,0.2932977741
1.95450,-1.84306308
1.95500,-5.200201565
1.95550,-9.77811768
1.95600,-13.13525616
1.95650,-14.6612282
1.95700,-15.88200583
1.95750,-18.01836669
1.95800,-18.3235611
1.95850,-14.96642261
1.95900,-9.167728865
1.95950,-3.369035118
1.96000,1.208880997
1.96050,4.260825074
1.96100,4.566019482
1.96150,0.2932977741
1.96200,-5.200201565
1.96250,-10.3885065
1.96300,-13.74564498
1.96350,-17.10278346
1.96400,-19.84953313
1.96450,-20.76511636
1.96500,-19.23914432
1.96550,-15.57681143
1.96600,-10.6937009
1.96650,-5.200201565
1.96700,-0.01189663358
1.96750,5.786797113
1.96800,11.89068527
1.96850,18.60496224
1.96900,22.87768394
1.96950,21.65690631
1.97000,16.77379579
1.97050,10.97510204
1.97100,4.87121389
1.97150,-1.84306308
1.97200,-8.557340049
1.97250,-11.60928413
1.97300,-9.77811768
1.97350,-4.895007157
1.97400,0.2932977741
1.97450,5.481602705
1.97500,10.36471323
1.97550,14.94262934
1.97600,18.60496224
1.97650,20.74132309
1.97700,19.82573987
1.97750,15.85821257
1.97800,12.80626849
1.97850,10.97510204
1.97900,6.09199152
1.97950,-3.063840711
1.98000,-10.6937009
1.98050,-9.167728865
1.98100,-0.9274798567
1.98150,3.345241851
1.98200,2.429658628
1.98250,2.429658628
1.98300,4.87121389
1.98350,3.955630667
1.98400,-2.758646303
1.98450,-9.472923272
1.98500,-13.13525616
1.98550,-20.76511636
1.98600,-35.10925352
1.98650,-46.70664101
1.98700,-46.70664101
1.98750,-39.68716963
1.98800,-36.33003115
1.98850,-37.24561437
1.98900,-36.63522556
1.98950,-33.27808707
1.99000,-31.75211503
1.99050,-33.27808707
1.99100,-32.97289267
1.99150,-30.226143
1.99200,-29.00536537
1.99250,-29.31055977
1.99300,-27.17419892
1.99350,-21.07031076
1.99400,-14.05083939
1.99450,-8.862534457
1.99500,-3.063840711
1.99550,3.650436259
1.99600,9.754324413
1.99650,13.1114629
1.99700,16.16340697
1.99750,23.18287835
1.99800,32.64390499
1.99850,40.57895959
1.99900,43.63090367
1.99950,41.79973722
2.00000,37.22182111
2.00050,32.03351618
2.00100,28.9815721
2.00150,29.28676651
2.00200,32.33871058
2.00250,34.78026584
2.00300,34.16987703
2.00350,31.42312736
2.00400,29.59196091
2.00450,30.50754414
2.00500,32.03351618
2.00550,32.9490994
2.00600,33.25429381
2.00650,35.08546025
2.00700,36.30623788
2.00750,34.16987703
2.00800,28.06598887
2.00850,21.65690631
2.00900,17.38418461
2.00950,13.1114629
2.01000,5.786797113
2.01050,-2.453451895
2.01100,-8.252145642
2.01150,-8.862534457
2.01200,-7.031368011
2.01250,-5.505395972
2.01300,-3.674229526
2.01350,-0.01189663358
2.01400,4.87121389
2.01450,10.05951882
2.01500,13.1114629
2.01550,15.55301816
2.01600,17.38418461
2.01650,16.77379579
2.01700,13.1114629
2.01750,8.228352374
2.01800,6.09199152
2.01850,7.312769151
2.01900,9.449130005
2.01950,10.05951882
2.02000,9.754324413
2.02050,9.754324413
2.02100,10.36471323
2.02150,10.36471323
2.02200,9.143935597
2.02250,8.533546782
2.02300,8.83874119
2.02350,9.754324413
2.02400,8.83874119
2.02450,7.007574744
2.02500,7.312769151
2.02550,13.1114629
2.02600,23.18287835
2.02650,31.42312736
2.02700,32.03351618
2.02750,26.84521124
2.02800,21.35171191
2.02850,16.77379579
2.02900,11.58549086
2.02950,5.481602705
2.03000,3.040047443
2.03050,5.786797113
2.03100,10.36471323
2.03150,11.89068527
2.03200,8.533546782
2.03250,2.12446422
2.03300,-4.589812749
2.03350,-9.472923272
2.03400,-10.08331209
2.03450,-7.336562418
2.03500,-4.895007157
2.03550,-3.979423934
2.03600,-2.758646303
2.03650,0.2932977741
2.03700,3.040047443
2.03750,2.429658628
2.03800,0.5984921818
2.03850,1.208880997
2.03900,3.650436259
2.03950,3.040047443
2.04000,-2.453451895
2.04050,-11.30408972
2.04100,-18.3235611
2.04150,-21.37550517
2.04200,-22.2910884
2.04250,-23.51186603
2.04300,-25.95342129
2.04350,-26.2586157
2.04400,-22.5962828
2.04450,-16.49239465
2.04500,-11.91447853
2.04550,-8.862534457
2.04600,-5.200201565
2.04650,0.2932977741
2.04700,5.786797113
2.04750,9.754324413
2.04800,14.33224053
2.04850,22.26729513
2.04900,31.72832177
2.04950,37.22182111
2.05000,36.00104348
2.05050,30.20234973
2.05100,23.48807276
2.05150,17.38418461
2.05200,13.41665731
2.05250,12.19587967
2.05300,12.80626849
2.05350,13.72185171
2.05400,14.94262934
2.05450,17.38418461
2.05500,21.35171191
2.05550,24.40365598
2.05600,24.40365598
2.05650,21.65690631
2.05700,19.52054546
2.05750,18.60496224
2.05800,17.38418461
2.05850,14.94262934
2.05900,13.72185171
2.05950,15.85821257
2.06000,21.65690631
2.06050,26.54001684
2.06100,26.54001684
2.06150,20.43612868
2.06200,9.754324413
2.06250,-1.84306308
2.06300,-11.91447853
2.06350,-17.10278346
2.06400,-16.18720024
2.06450,-11.30408972
2.06500,-5.200201565
2.06550,0.5984921818
2.06600,5.481602705
2.06650,7.617963559
2.06700,6.397185928
2.06750,3.040047443
2.06800,1.208880997
2.06850,1.514075405
2.06900,2.734853036
2.06950,4.87121389
2.07000,7.923157967
2.07050,11.28029645
2.07100,13.41665731
2.07150,14.33224053
2.07200,15.24782375
2.07250,14.94262934
2.07300,10.36471323
2.07350,1.208880997
2.07400,-7.641756826
2.07450,-12.83006176
2.07500,-13.44045057
2.07550,-11.91447853
2.07600,-10.3885065
2.07650,-8.862534457
2.07700,-8.557340049
2.07750,-9.77811768
2.07800,-12.52486735
2.07850,-15.27161702
2.07900,-15.57681143
2.07950,-13.13525616
2.08000,-8.862534457
2.08050,-3.979423934
2.08100,-0.01189663358
2.08150,1.514075405
2.08200,1.514075405
2.08250,0.9036865895
2.08300,-0.01189663358
2.08350,-0.9274798567
2.08400,-3.063840711
2.08450,-6.115784788
2.08500,-7.946951234
2.08550,-7.336562418
2.08600,-5.200201565
2.08650,-3.369035118
2.08700,-3.369035118
2.08750,-5.505395972
2.08800,-9.77811768
2.08850,-14.6612282
2.08900,-18.3235611
2.08950,-21.37550517
2.09000,-24.42744925
2.09050,-28.08978214
2.09100,-29.92094859
2.09150,-27.78458773
2.09200,-21.98589399
2.09250,-14.96642261
2.09300,-9.167728865
2.09350,-5.81059038
2.09400,-7.031368011
2.09450,-11.30408972
2.09500,-13.74564498
2.09550,-10.3885065
2.09600,-3.979423934
2.09650,1.819269813
2.09700,8.228352374
2.09750,17.68937901
2.09800,27.45560006
2.09850,29.89715532
2.09900,22.57248954
2.09950,12.19587967
2.10000,6.397185928
2.10050,5.176408297
2.10100,5.786797113
2.10150,7.617963559
2.10200,11.28029645
2.10250,15.55301816
2.10300,17.68937901
2.10350,16.77379579
2.10400,13.1114629
2.10450,6.397185928
2.10500,-1.232674264
2.10550,-5.81059038
2.10600,-3.674229526
2.10650,0.2932977741
2.10700,1.208880997
2.10750,-0.9274798567
2.10800,-3.063840711
2.10850,-3.979423934
2.10900,-4.589812749
2.10950,-6.115784788
2.11000,-6.726173603
2.11050,-6.115784788
2.11100,-4.284618341
2.11150,-1.84306308
2.11200,0.5984921818
2.11250,2.12446422
2.11300,0.2932977741
2.11350,-4.589812749
2.11400,-10.3885065
2.11450,-14.96642261
2.11500,-18.3235611
2.11550,-20.45992195
2.11600,-19.84953313
2.11650,-17.71317228
2.11700,-16.18720024
2.11750,-16.49239465
2.11800,-18.6287555
2.11850,-20.15472754
2.11900,-20.76511636
2.11950,-22.2910884
2.12000,-27.17419892
2.12050,-34.80405911
2.12100,-41.21314167
2.12150,-40.90794727
2.12200,-34.80405911
2.12250,-27.47939333
2.12300,-22.2910884
2.12350,-16.79758906
2.12400,-8.252145642
2.12450,-0.622285449
2.12500,1.514075405
2.12550,-1.537868672
2.12600,-4.895007157
2.12650,-4.895007157
2.12700,-2.453451895
2.12750,-0.9274798567
2.12800,-1.84306308
2.12850,-3.979423934
2.12900,-4.895007157
2.12950,-3.674229526
2.13000,-0.9274798567
2.13050,1.208880997
2.13100,2.429658628
2.13150,2.429658628
2.13200,3.345241851
2.13250,5.786797113
2.13300,8.228352374
2.13350,9.143935597
2.13400,6.702380336
2.13450,2.12446422
2.13500,-2.758646303
2.13550,-9.77811768
2.13600,-18.01836669
2.13650,-23.81706043
2.13700,-22.5962828
2.13750,-14.05083939
2.13800,-4.589812749
2.13850,-0.01189663358
2.13900,-0.3170910413
2.13950,-0.9274798567
2.14000,-0.01189663358
2.14050,2.12446422
2.14100,4.260825074
2.14150,6.09199152
2.14200,6.09199152
2.14250,3.040047443
2.14300,-0.3170910413
2.14350,-0.9274798567
2.14400,0.2932977741
2.14450,0.5984921818
2.14500,-0.01189663358
2.14550,-0.622285449
2.14600,-2.148257487
2.14650,-6.420979195
2.14700,-12.21967294
2.14750,-15.88200583
2.14800,-18.01836669
2.14850,-23.81706043
2.14900,-32.05730944
2.14950,-35.10925352
2.15000,-28.70017096
2.15050,-18.01836669
2.15100,-12.21967294
2.15150,-11.30408972
2.15200,-10.08331209
2.15250,-5.200201565
2.15300,-0.9274798567
2.15350,-0.622285449
2.15400,-4.895007157
2.15450,-10.99889531
2.15500,-16.79758906
2.15550,-20.76511636
2.15600,-22.90147721
2.15650,-24.42744925
2.15700,-24.42744925
2.15750,-20.15472754
2.15800,-11.30408972
2.15850,-0.3170910413
2.15900,9.449130005
2.15950,18.60496224
2.16000,26.84521124
2.16050,31.11793295
2.16100,30.20234973
2.16150,27.76079447
2.16200,27.76079447
2.16250,29.89715532
2.16300,30.81273854
2.16350,30.81273854
2.16400,29.89715532
2.16450,26.23482243
2.16500,17.99457342
2.16550,9.143935597
2.16600,3.955630667
2.16650,2.429658628
2.16700,0.2932977741
2.16750,-1.537868672
2.16800,-0.622285449
2.16850,2.429658628
2.16900,3.650436259
2.16950,3.955630667
2.17000,7.617963559
2.17050,14.02704612
2.17100,15.85821257
2.17150,10.97510204
2.17200,3.650436259
2.17250,-0.3170910413
2.17300,-3.063840711
2.17350,-6.726173603
2.17400,-8.862534457
2.17450,-8.252145642
2.17500,-6.115784788
2.17550,-4.284618341
2.17600,-0.9274798567
2.17650,3.955630667
2.17700,7.923157967
2.17750,9.449130005
2.17800,10.97510204
2.17850,14.33224053
2.17900,16.46860138
2.17950,12.50107408
2.18000,3.650436259
2.18050,-5.505395972
2.18100,-13.74564498
2.18150,-21.07031076
2.18200,-25.95342129
2.18250,-26.86900451
2.18300,-23.51186603
2.18350,-19.54433873
2.18400,-17.71317228
2.18450,-18.3235611
2.18500,-19.54433873
2.18550,-19.84953313
2.18600,-18.01836669
2.18650,-14.3560338
2.18700,-10.3885065
2.18750,-6.115784788
2.18800,-2.148257487
2.18850,-0.3170910413
2.18900,-1.232674264
2.18950,-3.369035118
2.19000,-3.369035118
2.19050,-1.84306308
2.19100,-1.84306308
2.19150,-2.758646303
2.19200,-1.537868672
2.19250,1.208880997
2.19300,1.208880997
2.19350,-4.589812749
2.19400,-13.44045057
2.19450,-17.40797787
2.19500,-14.3560338
2.19550,-7.031368011
2.19600,-1.232674264
2.19650,-0.01189663358
2.19700,-1.84306308
2.19750,-5.505395972
2.19800,-11.30408972
2.19850,-21.37550517
2.19900,-35.71964233
2.19950,-47.92741864
2.20000,-51.89494594
2.20050,-49.14819627
2.20100,-45.48586338
2.20150,-44.87547457
2.20200,-43.95989134
2.20250,-38.1611976
2.20300,-27.17419892
2.20350,-14.96642261
2.20400,-5.505395972
2.20450,-0.01189663358
2.20500,2.734853036
2.20550,7.923157967
2.20600,14.63743494
2.20650,19.21535105
2.20700,18.60496224
2.20750,16.46860138
2.20800,17.38418461
2.20850,21.0465175
2.20900,23.48807276
2.20950,23.79326717
2.21000,25.31923921
2.21050,29.89715532
2.21100,35.08546025
2.21150,37.83220992
2.21200,38.44259874
2.21250,36.9166267
2.21300,33.55948821
2.21350,29.59196091
2.21400,26.23482243
2.21450,22.87768394
2.21500,16.46860138
2.21550,5.481602705
2.21600,-5.81059038
2.21650,-13.13525616
2.21700,-14.3560338
2.21750,-12.21967294
2.21800,-8.252145642
2.21850,-4.895007157
2.21900,-2.758646303
2.21950,-2.758646303
2.22000,-2.453451895
2.22050,1.819269813
2.22100,12.19587967
2.22150,25.0140448
2.22200,36.00104348
2.22250,42.41012604
2.22300,44.54648689
2.22350,44.54648689
2.22400,44.24129248
2.22450,43.63090367
2.22500,42.41012604
2.22550,37.83220992
2.22600,29.89715532
2.22650,19.82573987
2.22700,12.50107408
2.22750,7.923157967
2.22800,4.566019482
2.22850,-0.01189663358
2.22900,-3.063840711
2.22950,-2.453451895
2.23000,0.2932977741
2.23050,1.208880997
2.23100,-0.01189663358
2.23150,-0.01189663358
2.23200,4.566019482
2.23250,10.97510204
2.23300,14.33224053
2.23350,14.02704612
2.23400,13.41665731
2.23450,13.72185171
2.23500,10.97510204
2.23550,5.481602705
2.23600,1.514075405
2.23650,1.514075405
2.23700,2.429658628
2.23750,-0.01189663358
2.23800,-4.284618341
2.23850,-7.031368011
2.23900,-8.557340049
2.23950,-10.99889531
2.24000,-14.05083939
2.24050,-13.74564498
2.24100,-8.557340049
2.24150,-2.148257487
2.24200,2.429658628
2.24250,3.650436259
2.24300,-0.01189663358
2.24350,-6.115784788
2.24400,-10.99889531
2.24450,-10.08331209
2.24500,-5.200201565
2.24550,0.2932977741
2.24600,5.786797113
2.24650,12.19587967
2.24700,16.77379579
2.24750,15.24782375
2.24800,9.449130005
2.24850,5.481602705
2.24900,4.260825074
2.24950,3.040047443
2.25000,0.5984921818
2.25050,-0.3170910413
2.25100,-0.01189663358
2.25150,-0.3170910413
2.25200,-4.284618341
2.25250,-8.862534457
2.25300,-10.99889531
2.25350,-10.99889531
2.25400,-10.6937009
2.25450,-10.99889531
2.25500,-10.08331209
2.25550,-7.336562418
2.25600,-4.589812749
2.25650,-5.200201565
2.25700,-9.77811768
2.25750,-14.6612282
2.25800,-15.88200583
2.25850,-14.96642261
2.25900,-17.40797787
2.25950,-24.42744925
2.26000,-30.226143
2.26050,-29.31055977
2.26100,-24.42744925
2.26150,-21.98589399
2.26200,-23.51186603
2.26250,-25.03783807
2.26300,-24.12225484
2.26350,-23.81706043
2.26400,-27.78458773
2.26450,-34.4988647
2.26500,-37.85600319
2.26550,-33.88847589
2.26600,-24.42744925
2.26650,-15.57681143
2.26700,-9.167728865
2.26750,-2.758646303
2.26800,6.397185928
2.26850,17.68937901
2.26900,26.23482243
2.26950,29.89715532
2.27000,30.50754414
2.27050,29.28676651
2.27100,26.23482243
2.27150,21.96210072
2.27200,19.21535105
2.27250,20.74132309
2.27300,26.54001684
2.27350,32.9490994
2.27400,36.9166267
2.27450,36.30623788
2.27500,32.9490994
2.27550,29.89715532
2.27600,28.67637769
2.27650,26.54001684
2.27700,21.0465175
2.27750,12.80626849
2.27800,5.176408297
2.27850,-0.01189663358
2.27900,-2.758646303
2.27950,-0.3170910413
2.28000,6.397185928
2.28050,14.02704612
2.28100,16.16340697
2.28150,11.89068527
2.28200,5.481602705
2.28250,0.5984921818
2.28300,-0.9274798567
2.28350,-0.3170910413
2.28400,1.514075405
2.28450,1.514075405
2.28500,-3.369035118
2.28550,-13.74564498
2.28600,-26.2586157
2.28650,-36.63522556
2.28700,-40.29755845
2.28750,-35.71964233
2.28800,-25.95342129
2.28850,-16.79758906
2.28900,-12.52486735
2.28950,-10.99889531
2.29000,-9.472923272
2.29050,-7.946951234
2.29100,-7.031368011
2.29150,-4.589812749
2.29200,1.514075405
2.29250,10.36471323
2.29300,18.29976783
2.29350,23.48807276
2.29400,24.70885039
2.29450,21.96210072
2.29500,14.63743494
2.29550,6.397185928
2.29600,0.5984921818
2.29650,-1.84306308
2.29700,-3.674229526
2.29750,-4.589812749
2.29800,-3.369035118
2.29850,-0.622285449
2.29900,0.5984921818
2.29950,1.208880997
2.30000,3.955630667
2.30050,10.05951882
2.30100,16.77379579
2.30150,21.35171191
2.30200,22.87768394
2.30250,19.82573987
2.30300,13.41665731
2.30350,7.007574744
2.30400,3.650436259
2.30450,1.514075405
2.30500,-2.453451895
2.30550,-8.557340049
2.30600,-11.91447853
2.30650,-10.6937009
2.30700,-8.557340049
2.30750,-9.472923272
2.30800,-12.21967294
2.30850,-12.83006176
2.30900,-10.3885065
2.30950,-6.420979195
2.31000,-2.148257487
2.31050,3.955630667
2.31100,13.1114629
2.31150,21.0465175
2.31200,23.48807276
2.31250,19.52054546
2.31300,13.41665731
2.31350,10.05951882
2.31400,8.83874119
2.31450,5.786797113
2.31500,-0.9274798567
2.31550,-10.3885065
2.31600,-20.15472754
2.31650,-28.70017096
2.31700,-33.58328148
2.31750,-31.14172622
2.31800,-21.37550517
2.31850,-10.08331209
2.31900,-1.537868672
2.31950,4.260825074
2.32000,11.28029645
2.32050,18.29976783
2.32100,21.96210072
2.32150,19.21535105
2.32200,10.66990764
2.32250,-0.01189663358
2.32300,-7.946951234
2.32350,-9.77811768
2.32400,-5.200201565
2.32450,0.9036865895
2.32500,3.955630667
2.32550,3.955630667
2.32600,2.734853036
2.32650,0.2932977741
2.32700,-4.284618341
2.32750,-11.91447853
2.32800,-19.54433873
2.32850,-25.64822688
2.32900,-29.31055977
2.32950,-28.70017096
2.33000,-23.81706043
2.33050,-16.49239465
2.33100,-11.60928413
2.33150,-8.252145642
2.33200,-4.284618341
2.33250,-0.01189663358
2.33300,2.12446422
2.33350,1.819269813
2.33400,1.819269813
2.33450,4.260825074
2.33500,5.481602705
2.33550,4.260825074
2.33600,3.955630667
2.33650,8.83874119
2.33700,15.24782375
2.33750,18.29976783
2.33800,17.0789902
2.33850,15.24782375
2.33900,14.02704612
2.33950,10.66990764
2.34000,4.87121389
2.34050,1.208880997
2.34100,-0.01189663358
2.34150,-0.9274798567
2.34200,-2.148257487
2.34250,-1.537868672
2.34300,1.514075405
2.34350,3.345241851
2.34400,2.429658628
2.34450,4.566019482
2.34500,12.50107408
2.34550,21.65690631
2.34600,25.62443361
2.34650,25.62443361
2.34700,25.31923921
2.34750,24.70885039
2.34800,19.21535105
2.34850,10.36471323
2.34900,3.650436259
2.34950,2.429658628
2.35000,2.734853036
2.35050,-0.3170910413
2.35100,-7.336562418
2.35150,-14.3560338
2.35200,-19.54433873
2.35250,-22.90147721
2.35300,-24.73264366
2.35350,-24.42744925
2.35400,-21.68069958
2.35450,-17.71317228
2.35500,-15.27161702
2.35550,-15.88200583
2.35600,-18.93394991
2.35650,-20.15472754
2.35700,-18.6287555
2.35750,-15.57681143
2.35800,-11.60928413
2.35850,-4.284618341
2.35900,7.007574744
2.35950,18.91015664
2.36000,25.0140448
2.36050,25.0140448
2.36100,22.87768394
2.36150,20.74132309
2.36200,18.91015664
2.36250,16.46860138
2.36300,12.80626849
2.36350,9.143935597
2.36400,7.617963559
2.36450,8.83874119
2.36500,9.449130005
2.36550,3.040047443
2.36600,-10.08331209
2.36650,-22.2910884
2.36700,-25.64822688
2.36750,-23.20667162
2.36800,-19.54433873
2.36850,-14.96642261
2.36900,-6.420979195
2.36950,2.429658628
2.37000,6.09199152
2.37050,5.786797113
2.37100,7.617963559
2.37150,14.02704612
2.37200,21.35171191
2.37250,25.31923921
2.37300,25.62443361
2.37350,25.62443361
2.37400,27.45560006
2.37450,29.28676651
2.37500,26.84521124
2.37550,17.38418461
2.37600,4.87121389
2.37650,-2.148257487
2.37700,-2.453451895
2.37750,-3.063840711
2.37800,-8.862534457
2.37850,-17.10278346
2.37900,-21.07031076
2.37950,-21.07031076
2.38000,-21.07031076
2.38050,-20.15472754
2.38100,-14.96642261
2.38150,-6.420979195
2.38200,0.2932977741
2.38250,4.566019482
2.38300,7.617963559
2.38350,11.58549086
2.38400,15.85821257
2.38450,18.29976783
2.38500,16.46860138
2.38550,7.007574744
2.38600,-7.031368011
2.38650,-19.23914432
2.38700,-23.20667162
2.38750,-21.68069958
2.38800,-20.45992195
2.38850,-20.76511636
2.38900,-21.37550517
2.38950,-22.90147721
2.39000,-28.39497655
2.39050,-36.33003115
2.39100,-41.51833608
2.39150,-40.29755845
2.39200,-35.71964233
2.39250,-32.66769826
2.39300,-32.05730944
2.39350,-31.44692063
2.39400,-28.39497655
2.39450,-25.03783807
2.39500,-22.90147721
2.39550,-21.98589399
2.39600,-18.93394991
2.39650,-12.52486735
2.39700,-4.589812749
2.39750,1.819269813
2.39800,7.923157967
2.39850,13.72185171
2.39900,17.38418461
2.39950,17.68937901
2.40000,15.85821257
2.40050,14.94262934
2.40100,14.63743494
2.40150,14.02704612
2.40200,14.33224053
2.40250,18.60496224
2.40300,25.0140448
2.40350,26.54001684
2.40400,20.74132309
2.40450,12.80626849
2.40500,10.36471323
2.40550,11.89068527
2.40600,10.05951882
2.40650,2.12446422
2.40700,-5.81059038
2.40750,-6.420979195
2.40800,-0.9274798567
2.40850,3.345241851
2.40900,3.040047443
2.40950,-0.622285449
2.41000,-6.726173603
2.41050,-16.49239465
2.41100,-30.226143
2.41150,-41.21314167
2.41200,-43.65469693
2.41250,-39.07678082
2.41300,-33.88847589
2.41350,-29.31055977
2.41400,-22.90147721
2.41450,-13.13525616
2.41500,-2.758646303
2.41550,6.397185928
2.41600,15.55301816
2.41650,23.79326717
2.41700,28.9815721
2.41750,29.89715532
2.41800,29.59196091
2.41850,29.28676651
2.41900,27.76079447
2.41950,24.40365598
2.42000,20.74132309
2.42050,18.60496224
2.42100,16.77379579
2.42150,14.63743494
2.42200,12.19587967
2.42250,11.28029645
2.42300,10.36471323
2.42350,8.228352374
2.42400,5.481602705
2.42450,4.260825074
2.42500,4.87121389
2.42550,4.87121389
2.42600,3.040047443
2.42650,0.2932977741
2.42700,1.208880997
2.42750,8.83874119
2.42800,20.13093427
2.42850,28.67637769
2.42900,30.20234973
2.42950,24.09846157
2.43000,14.02704612
2.43050,3.040047443
2.43100,-5.81059038
2.43150,-11.91447853
2.43200,-16.18720024
2.43250,-18.6287555
2.43300,-17.40797787
2.43350,-10.6937009
2.43400,-0.9274798567
2.43450,5.481602705
2.43500,7.312769151
2.43550,7.312769151
2.43600,9.449130005
2.43650,12.50107408
2.43700,15.24782375
2.43750,15.55301816
2.43800,12.50107408
2.43850,5.481602705
2.43900,-1.232674264
2.43950,-3.063840711
2.44000,-0.01189663358
2.44050,1.819269813
2.44100,-0.01189663358
2.44150,-0.9274798567
2.44200,3.650436259
2.44250,10.36471323
2.44300,12.80626849
2.44350,9.143935597
2.44400,3.345241851
2.44450,-1.84306308
2.44500,-5.81059038
2.44550,-7.946951234
2.44600,-7.641756826
2.44650,-7.031368011
2.44700,-6.726173603
2.44750,-4.589812749
2.44800,-0.3170910413
2.44850,1.208880997
2.44900,-2.453451895
2.44950,-9.167728865
2.45000,-11.30408972
2.45050,-8.252145642
2.45100,-7.031368011
2.45150,-13.44045057
2.45200,-25.34303247
2.45250,-36.63522556
2.45300,-42.73911371
2.45350,-44.57028016
2.45400,-43.34950253
2.45450,-41.21314167
2.45500,-40.29755845
2.45550,-42.1287249
2.45600,-43.04430812
2.45650,-39.99236404
2.45700,-32.36250385
2.45750,-23.51186603
2.45800,-13.74564498
2.45850,-2.148257487
2.45900,9.449130005
2.45950,17.68937901
2.46000,20.13093427
2.46050,16.77379579
2.46100,10.36471323
2.46150,3.955630667
2.46200,0.9036865895
2.46250,3.040047443
2.46300,6.702380336
2.46350,7.007574744
2.46400,3.650436259
2.46450,0.5984921818
2.46500,-0.3170910413
2.46550,-1.232674264
2.46600,-3.369035118
2.46650,-2.453451895
2.46700,2.12446422
2.46750,7.312769151
2.46800,10.36471323
2.46850,14.02704612
2.46900,19.82573987
2.46950,23.48807276
2.47000,20.74132309
2.47050,13.72185171
2.47100,8.533546782
2.47150,5.786797113
2.47200,1.819269813
2.47250,-1.84306308
2.47300,-1.84306308
2.47350,2.429658628
2.47400,8.228352374
2.47450,13.41665731
2.47500,19.52054546
2.47550,25.0140448
2.47600,25.92962802
2.47650,24.09846157
2.47700,26.54001684
2.47750,33.55948821
2.47800,37.22182111
2.47850,30.81273854
2.47900,19.52054546
2.47950,12.19587967
2.48000,10.36471323
2.48050,8.228352374
2.48100,3.955630667
2.48150,1.819269813
2.48200,3.650436259
2.48250,7.617963559
2.48300,9.143935597
2.48350,7.312769151
2.48400,3.345241851
2.48450,-1.537868672
2.48500,-6.420979195
2.48550,-8.557340049
2.48600,-7.336562418
2.48650,-5.81059038
2.48700,-7.336562418
2.48750,-12.52486735
2.48800,-18.6287555
2.48850,-21.98589399
2.48900,-21.98589399
2.48950,-20.45992195
2.49000,-20.76511636
2.49050,-25.03783807
2.49100,-30.5313374
2.49150,-32.97289267
2.49200,-29.61575418
2.49250,-23.51186603
2.49300,-20.76511636
2.49350,-21.68069958
2.49400,-18.6287555
2.49450,-4.284618341
2.49500,16.77379579
2.49550,34.16987703
2.49600,38.74779314
2.49650,32.64390499
2.49700,23.18287835
2.49750,16.77379579
2.49800,14.94262934
2.49850,17.38418461
2.49900,22.57248954
2.49950,25.31923921
2.50000,21.35171191
2.50050,11.58549086
2.50100,2.429658628
2.50150,-1.232674264
2.50200,-3.674229526
2.50250,-8.252145642
2.50300,-14.3560338
2.50350,-17.10278346
2.50400,-14.6612282
2.50450,-9.167728865
2.50500,-3.979423934
2.50550,0.5984921818
2.50600,4.87121389
2.50650,8.228352374
2.50700,10.66990764
2.50750,11.28029645
2.50800,10.36471323
2.50850,7.923157967
2.50900,5.786797113
2.50950,6.702380336
2.51000,8.83874119
2.51050,9.754324413
2.51100,9.143935597
2.51150,8.83874119
2.51200,7.617963559
2.51250,3.040047443
2.51300,-3.979423934
2.51350,-10.3885065
2.51400,-14.3560338
2.51450,-17.71317228
2.51500,-18.93394991
2.51550,-14.96642261
2.51600,-6.726173603
2.51650,-0.01189663358
2.51700,3.040047443
2.51750,6.702380336
2.51800,14.63743494
2.51850,20.13093427
2.51900,15.85821257
2.51950,5.481602705
2.52000,-0.01189663358
2.52050,1.208880997
2.52100,2.429658628
2.52150,-1.232674264
2.52200,-6.726173603
2.52250,-9.167728865
2.52300,-10.3885065
2.52350,-14.05083939
2.52400,-19.54433873
2.52450,-25.03783807
2.52500,-31.14172622
2.52550,-37.24561437
2.52600,-40.90794727
2.52650,-39.68716963
2.52700,-35.71964233
2.52750,-31.75211503
2.52800,-25.03783807
2.52850,-13.13525616
2.52900,0.9036865895
2.52950,11.58549086
2.53000,17.68937901
2.53050,22.87768394
2.53100,29.59196091
2.53150,34.78026584
2.53200,34.16987703
2.53250,29.28676651
2.53300,25.31923921
2.53350,25.31923921
2.53400,28.37118328
2.53450,30.50754414
2.53500,28.67637769
2.53550,24.09846157
2.53600,19.82573987
2.53650,16.46860138
2.53700,12.80626849
2.53750,7.923157967
2.53800,3.955630667
2.53850,3.955630667
2.53900,8.228352374
2.53950,14.33224053
2.54000,19.52054546
2.54050,20.13093427
2.54100,16.46860138
2.54150,11.28029645
2.54200,10.36471323
2.54250,14.02704612
2.54300,16.77379579
2.54350,14.02704612
2.54400,8.533546782
2.54450,3.650436259
2.54500,-1.537868672
2.54550,-10.3885065
2.54600,-19.84953313
2.54650,-25.64822688
2.54700,-28.08978214
2.54750,-30.83653181
2.54800,-33.88847589
2.54850,-35.41444793
2.54900,-35.10925352
2.54950,-34.4988647
2.55000,-31.44692063
2.55050,-23.81706043
2.55100,-14.6612282
2.55150,-10.08331209
2.55200,-9.472923272
2.55250,-6.420979195
2.55300,0.9036865895
2.55350,8.533546782
2.55400,10.05951882
2.55450,6.09199152
2.55500,-2.148257487
2.55550,-13.74564498
2.55600,-24.42744925
2.55650,-27.47939333
2.55700,-22.2910884
2.55750,-14.96642261
2.55800,-10.6937009
2.55850,-5.81059038
2.55900,2.12446422
2.55950,10.05951882
2.56000,12.50107408
2.56050,10.97510204
2.56100,9.754324413
2.56150,8.228352374
2.56200,3.955630667
2.56250,-3.063840711
2.56300,-10.3885065
2.56350,-17.10278346
2.56400,-22.5962828
2.56450,-24.12225484
2.56500,-18.93394991
2.56550,-10.3885065
2.56600,-5.505395972
2.56650,-6.420979195
2.56700,-9.472923272
2.56750,-10.3885065
2.56800,-10.3885065
2.56850,-11.30408972
2.56900,-11.91447853
2.56950,-10.99889531
2.57000,-9.77811768
2.57050,-9.77811768
2.57100,-9.77811768
2.57150,-7.336562418
2.57200,-3.674229526
2.57250,-1.84306308
2.57300,-2.453451895
2.57350,-2.758646303
2.57400,-2.758646303
2.57450,-3.979423934
2.57500,-7.336562418
2.57550,-9.472923272
2.57600,-7.336562418
2.57650,-2.758646303
2.57700,-0.622285449
2.57750,-3.063840711
2.57800,-7.946951234
2.57850,-11.91447853
2.57900,-14.05083939
2.57950,-15.57681143
2.58000,-15.88200583
2.58050,-12.83006176
2.58100,-5.505395972
2.58150,2.12446422
2.58200,7.007574744
2.58250,10.05951882
2.58300,17.0789902
2.58350,28.9815721
2.58400,39.35818196
2.58450,43.32570926
2.58500,43.93609808
2.58550,46.07245893
2.58600,49.12440301
2.58650,48.20881978
2.58700,44.54648689
2.58750,43.93609808
2.58800,46.68284774
2.58850,44.8516813
2.58900,35.08546025
2.58950,24.70885039
2.59000,21.0465175
2.59050,21.65690631
2.59100,19.52054546
2.59150,13.1114629
2.59200,6.397185928
2.59250,1.514075405
2.59300,-1.232674264
2.59350,-0.01189663358
2.59400,7.617963559
2.59450,17.0789902
2.59500,21.35171191
2.59550,19.21535105
2.59600,15.24782375
2.59650,12.19587967
2.59700,9.449130005
2.59750,5.786797113
2.59800,3.955630667
2.59850,4.566019482
2.59900,5.481602705
2.59950,5.786797113
2.60000,6.702380336
2.60050,7.617963559
2.60100,5.786797113
2.60150,0.9036865895
2.60200,-2.148257487
2.60250,-0.01189663358
2.60300,5.176408297
2.60350,7.617963559
2.60400,4.87121389
2.60450,-0.01189663358
2.60500,-3.674229526
2.60550,-4.589812749
2.60600,-5.200201565
2.60650,-9.167728865
2.60700,-17.71317228
2.60750,-28.70017096
2.60800,-39.07678082
2.60850,-46.0962522
2.60900,-47.62222424
2.60950,-41.82353049
2.61000,-31.44692063
2.61050,-22.2910884
2.61100,-16.49239465
2.61150,-11.60928413
2.61200,-5.200201565
2.61250,-0.01189663358
2.61300,1.208880997
2.61350,1.208880997
2.61400,3.345241851
2.61450,5.786797113
2.61500,4.566019482
2.61550,-0.01189663358
2.61600,-2.758646303
2.61650,-2.758646303
2.61700,-4.589812749
2.61750,-9.167728865
2.61800,-12.21967294
2.61850,-10.3885065
2.61900,-6.420979195
2.61950,-5.200201565
2.62000,-5.505395972
2.62050,-3.979423934
2.62100,0.2932977741
2.62150,5.786797113
2.62200,11.58549086
2.62250,15.24782375
2.62300,14.33224053
2.62350,8.228352374
2.62400,1.514075405
2.62450,-1.232674264
2.62500,-2.453451895
2.62550,-4.895007157
2.62600,-8.252145642
2.62650,-8.557340049
2.62700,-6.115784788
2.62750,-3.979423934
2.62800,-1.232674264
2.62850,1.514075405
2.62900,1.819269813
2.62950,-3.979423934
2.63000,-12.83006176
2.63050,-15.57681143
2.63100,-10.99889531
2.63150,-3.979423934
2.63200,1.208880997
2.63250,5.176408297
2.63300,8.83874119
2.63350,10.36471323
2.63400,11.28029645
2.63450,14.94262934
2.63500,20.43612868
2.63550,23.79326717
2.63600,23.18287835
2.63650,22.57248954
2.63700,21.35171191
2.63750,14.33224053
2.63800,-0.01189663358
2.63850,-16.49239465
2.63900,-32.05730944
2.63950,-48.23261305
2.64000,-66.2390831
2.64050,-78.75205382
2.64100,-78.75205382
2.64150,-68.37544396
2.64200,-55.55727884
2.64250,-45.48586338
2.64300,-36.94041997
2.64350,-27.78458773
2.64400,-17.40797787
2.64450,-6.115784788
2.64500,3.955630667
2.64550,11.89068527
2.64600,18.29976783
2.64650,25.0140448
2.64700,32.33871058
2.64750,36.9166267
2.64800,36.9166267
2.64850,34.16987703
2.64900,31.42312736
2.64950,29.28676651
2.65000,26.23482243
2.65050,22.57248954
2.65100,19.52054546
2.65150,18.91015664
2.65200,19.52054546
2.65250,19.21535105
2.65300,16.16340697
2.65350,10.36471323
2.65400,5.176408297
2.65450,2.429658628
2.65500,-0.01189663358
2.65550,-6.420979195
2.65600,-18.6287555
2.65650,-31.75211503
2.65700,-39.68716963
2.65750,-40.90794727
2.65800,-37.24561437
2.65850,-32.05730944
2.65900,-26.5638101
2.65950,-20.15472754
2.66000,-13.74564498
2.66050,-9.77811768
2.66100,-7.641756826
2.66150,-4.284618341
2.66200,-0.01189663358
2.66250,1.208880997
2.66300,0.5984921818
2.66350,4.566019482
2.66400,17.0789902
2.66450,32.9490994
2.66500,43.02051485
2.66550,45.46207011
2.66600,45.15687571
2.66650,45.15687571
2.66700,45.76726452
2.66750,47.59843097
2.66800,52.17634708
2.66850,56.44906879
2.66900,55.53348557
2.66950,47.59843097
2.67000,37.83220992
2.67050,30.50754414
2.67100,26.84521124
2.67150,25.31923921
2.67200,26.54001684
2.67250,29.28676651
2.67300,31.11793295
2.67350,29.28676651
2.67400,23.48807276
2.67450,15.55301816
2.67500,10.05951882
2.67550,10.66990764
2.67600,13.41665731
2.67650,10.36471323
2.67700,-1.84306308
2.67750,-15.88200583
2.67800,-22.2910884
2.67850,-21.98589399
2.67900,-22.90147721
2.67950,-26.2586157
2.68000,-26.5638101
2.68050,-22.5962828
2.68100,-18.01836669
2.68150,-14.96642261
2.68200,-9.167728865
2.68250,-0.3170910413
2.68300,3.040047443
2.68350,-3.369035118
2.68400,-13.74564498
2.68450,-18.3235611
2.68500,-16.18720024
2.68550,-13.74564498
2.68600,-14.96642261
2.68650,-17.40797787
2.68700,-19.54433873
2.68750,-21.07031076
2.68800,-21.68069958
2.68850,-19.23914432
2.68900,-16.18720024
2.68950,-14.6612282
2.69000,-14.3560338
2.69050,-11.91447853
2.69100,-9.167728865
2.69150,-13.44045057
2.69200,-26.86900451
2.69250,-41.51833608
2.69300,-47.92741864
2.69350,-46.4014466
2.69400,-43.65469693
2.69450,-42.4339193
2.69500,-41.21314167
2.69550,-38.466392
2.69600,-36.33003115
2.69650,-35.10925352
2.69700,-31.44692063
2.69750,-24.42744925
2.69800,-17.40797787
2.69850,-14.3560338
2.69900,-14.3560338
2.69950,-13.13525616
2.70000,-7.336562418
2.70050,3.650436259
2.70100,17.99457342
2.70150,30.20234973
2.70200,37.22182111
2.70250,40.27376518
2.70300,42.41012604
2.70350,42.41012604
2.70400,37.22182111
2.70450,27.76079447
2.70500,22.26729513
2.70550,25.92962802
2.70600,35.39065466
2.70650,41.18934841
2.70700,40.27376518
2.70750,35.39065466
2.70800,29.59196091
2.70850,24.70885039
2.70900,21.0465175
2.70950,20.74132309
2.71000,21.96210072
2.71050,22.57248954
2.71100,21.96210072
2.71150,21.96210072
2.71200,22.87768394
2.71250,22.57248954
2.71300,21.65690631
2.71350,24.09846157
2.71400,29.89715532
2.71450,32.33871058
2.71500,24.40365598
2.71550,8.533546782
2.71600,-6.420979195
2.71650,-17.10278346
2.71700,-24.42744925
2.71750,-29.61575418
2.71800,-30.226143
2.71850,-27.78458773
2.71900,-28.39497655
2.71950,-35.71964233
2.72000,-43.34950253
2.72050,-44.87547457
2.72100,-39.99236404
2.72150,-32.05730944
2.72200,-21.68069958
2.72250,-9.167728865
2.72300,-1.537868672
2.72350,-4.895007157
2.72400,-17.40797787
2.72450,-28.39497655
2.72500,-32.36250385
2.72550,-33.88847589
2.72600,-37.24561437
2.72650,-39.38197523
2.72700,-36.02483674
2.72750,-29.31055977
2.72800,-24.73264366
2.72850,-23.20667162
2.72900,-20.45992195
2.72950,-14.96642261
2.73000,-10.08331209
2.73050,-7.946951234
2.73100,-7.946951234
2.73150,-7.641756826
2.73200,-8.557340049
2.73250,-12.21967294
2.73300,-16.49239465
2.73350,-17.71317228
2.73400,-11.60928413
2.73450,-1.232674264
2.73500,7.617963559
2.73550,10.05951882
2.73600,6.702380336
2.73650,3.650436259
2.73700,4.566019482
2.73750,8.83874119
2.73800,13.41665731
2.73850,15.85821257
2.73900,14.02704612
2.73950,7.617963559
2.74000,-3.063840711
2.74050,-16.18720024
2.74100,-27.78458773
2.74150,-33.88847589
2.74200,-33.27808707
2.74250,-28.08978214
2.74300,-20.76511636
2.74350,-11.60928413
2.74400,-0.9274798567
2.74450,9.449130005
2.74500,17.0789902
2.74550,22.26729513
2.74600,28.06598887
2.74650,35.39065466
2.74700,41.18934841
2.74750,42.10493163
2.74800,42.10493163
2.74850,45.46207011
2.74900,51.87115268
2.74950,56.14387438
2.75000,55.83867998
2.75050,54.00751353
2.75100,55.22829116
2.75150,59.19581846
2.75200,61.94256813
2.75250,59.50101287
2.75300,51.87115268
2.75350,42.41012604
2.75400,33.25429381
2.75450,24.09846157
2.75500,14.63743494
2.75550,6.702380336
2.75600,3.345241851
2.75650,2.734853036
2.75700,-0.01189663358
2.75750,-6.420979195
2.75800,-11.60928413
2.75850,-14.05083939
2.75900,-14.96642261
2.75950,-16.18720024
2.76000,-16.49239465
2.76050,-14.3560338
2.76100,-13.74564498
2.76150,-14.6612282
2.76200,-12.52486735
2.76250,-4.589812749
2.76300,5.481602705
2.76350,11.58549086
2.76400,12.50107408
2.76450,8.228352374
2.76500,-1.232674264
2.76550,-16.49239465
2.76600,-29.61575418
2.76650,-34.80405911
2.76700,-35.10925352
2.76750,-38.1611976
2.76800,-45.79105779
2.76850,-51.58975154
2.76900,-50.97936272
2.76950,-45.18066897
2.77000,-37.24561437
2.77050,-30.83653181
2.77100,-28.39497655
2.77150,-28.70017096
2.77200,-26.5638101
2.77250,-19.23914432
2.77300,-11.91447853
2.77350,-11.30408972
2.77400,-14.6612282
2.77450,-13.13525616
2.77500,-5.505395972
2.77550,3.040047443
2.77600,10.05951882
2.77650,16.46860138
2.77700,22.87768394
2.77750,26.23482243
2.77800,25.31923921
2.77850,23.18287835
2.77900,22.26729513
2.77950,23.48807276
2.78000,27.76079447
2.78050,31.42312736
2.78100,28.9815721
2.78150,17.99457342
2.78200,6.702380336
2.78250,3.040047443
2.78300,5.786797113
2.78350,7.007574744
2.78400,5.786797113
2.78450,8.533546782
2.78500,16.16340697
2.78550,21.35171191
2.78600,18.91015664
2.78650,12.80626849
2.78700,5.786797113
2.78750,-3.674229526
2.78800,-15.88200583
2.78850,-25.95342129
2.78900,-32.36250385
2.78950,-38.77158641
2.79000,-47.31702983
2.79050,-54.64169561
2.79100,-57.08325087
2.79150,-56.47286206
2.79200,-54.0313068
2.79250,-47.62222424
2.79300,-35.41444793
2.79350,-22.2910884
2.79400,-16.49239465
2.79450,-18.6287555
2.79500,-20.76511636
2.79550,-17.40797787
2.79600,-10.3885065
2.79650,-5.200201565
2.79700,-2.758646303
2.79750,3.345241851
2.79800,16.77379579
2.79850,31.42312736
2.79900,37.52701551
2.79950,31.11793295
2.80000,18.60496224
2.80050,7.312769151
2.80100,-0.01189663358
2.80150,-5.505395972
2.80200,-7.336562418
2.80250,-2.758646303
2.80300,6.702380336
2.80350,17.0789902
2.80400,23.18287835
2.80450,22.26729513
2.80500,14.63743494
2.80550,5.481602705
2.80600,0.5984921818
2.80650,1.819269813
2.80700,4.566019482
2.80750,4.566019482
2.80800,1.514075405
2.80850,-3.369035118
2.80900,-9.472923272
2.80950,-15.88200583
2.81000,-19.84953313
2.81050,-20.76511636
2.81100,-20.45992195
2.81150,-20.45992195
2.81200,-18.6287555
2.81250,-14.3560338
2.81300,-10.99889531
2.81350,-10.3885065
2.81400,-11.60928413
2.81450,-11.60928413
2.81500,-10.6937009
2.81550,-8.862534457
2.81600,-4.589812749
2.81650,3.650436259
2.81700,14.94262934
2.81750,24.70885039
2.81800,29.59196091
2.81850,28.37118328
2.81900,23.48807276
2.81950,20.13093427
2.82000,22.57248954
2.82050,26.84521124
2.82100,24.09846157
2.82150,13.72185171
2.82200,5.481602705
2.82250,6.702380336
2.82300,14.33224053
2.82350,20.74132309
2.82400,23.79326717
2.82450,25.0140448
2.82500,25.62443361
2.82550,26.23482243
2.82600,29.28676651
2.82650,35.08546025
2.82700,36.61143229
2.82750,27.76079447
2.82800,13.41665731
2.82850,2.734853036
2.82900,-0.622285449
2.82950,-2.758646303
2.83000,-7.641756826
2.83050,-12.52486735
2.83100,-13.44045057
2.83150,-10.08331209
2.83200,-5.200201565
2.83250,-0.622285449
2.83300,2.734853036
2.83350,5.481602705
2.83400,7.007574744
2.83450,7.617963559
2.83500,8.228352374
2.83550,7.617963559
2.83600,5.786797113
2.83650,2.429658628
2.83700,-1.84306308
2.83750,-5.81059038
2.83800,-7.336562418
2.83850,-4.895007157
2.83900,-0.622285449
2.83950,3.040047443
2.84000,4.566019482
2.84050,2.734853036
2.84100,-3.063840711
2.84150,-12.52486735
2.84200,-21.68069958
2.84250,-27.47939333
2.84300,-29.31055977
2.84350,-29.31055977
2.84400,-28.70017096
2.84450,-25.64822688
2.84500,-18.6287555
2.84550,-9.167728865
2.84600,1.208880997
2.84650,11.89068527
2.84700,23.18287835
2.84750,32.64390499
2.84800,37.52701551
2.84850,36.30623788
2.84900,32.64390499
2.84950,29.59196091
2.85000,28.37118328
2.85050,25.92962802
2.85100,21.0465175
2.85150,17.0789902
2.85200,17.68937901
2.85250,21.96210072
2.85300,24.40365598
2.85350,19.52054546
2.85400,9.754324413
2.85450,1.819269813
2.85500,0.2932977741
2.85550,4.87121389
2.85600,12.19587967
2.85650,18.91015664
2.85700,22.87768394
2.85750,22.87768394
2.85800,19.52054546
2.85850,15.55301816
2.85900,12.19587967
2.85950,8.228352374
2.86000,1.514075405
2.86050,-8.862534457
2.86100,-21.98589399
2.86150,-34.4988647
2.86200,-46.0962522
2.86250,-56.77805647
2.86300,-67.45986074
2.86350,-72.95336007
2.86400,-68.68063837
2.86450,-54.94689002
2.86500,-40.29755845
2.86550,-32.05730944
2.86600,-28.70017096
2.86650,-23.81706043
2.86700,-14.3560338
2.86750,-4.895007157
2.86800,0.2932977741
2.86850,3.040047443
2.86900,5.481602705
2.86950,8.228352374
2.87000,8.533546782
2.87050,4.87121389
2.87100,-0.01189663358
2.87150,-3.063840711
2.87200,-2.453451895
2.87250,-2.148257487
2.87300,-5.200201565
2.87350,-10.3885065
2.87400,-11.30408972
2.87450,-5.200201565
2.87500,1.514075405
2.87550,2.12446422
2.87600,-5.200201565
2.87650,-16.18720024
2.87700,-27.47939333
2.87750,-38.1611976
2.87800,-46.4014466
2.87850,-48.84300187
2.87900,-44.57028016
2.87950,-36.63522556
2.88000,-28.39497655
2.88050,-22.5962828
2.88100,-21.37550517
2.88150,-23.81706043
2.88200,-26.2586157
2.88250,-23.20667162
2.88300,-14.3560338
2.88350,-3.979423934
2.88400,3.955630667
2.88450,11.58549086
2.88500,19.82573987
2.88550,27.15040565
2.88600,30.20234973
2.88650,28.9815721
2.88700,25.92962802
2.88750,23.18287835
2.88800,22.87768394
2.88850,25.31923921
2.88900,29.28676651
2.88950,33.25429381
2.89000,36.00104348
2.89050,37.22182111
2.89100,36.61143229
2.89150,33.55948821
2.89200,30.20234973
2.89250,30.20234973
2.89300,32.9490994
2.89350,34.47507144
2.89400,30.20234973
2.89450,20.43612868
2.89500,10.05951882
2.89550,3.345241851
2.89600,-0.3170910413
2.89650,-2.758646303
2.89700,-4.589812749
2.89750,-6.115784788
2.89800,-8.252145642
2.89850,-11.60928413
2.89900,-14.05083939
2.89950,-11.60928413
2.90000,-4.589812749
2.90050,0.9036865895
2.90100,-0.3170910413
2.90150,-8.557340049
2.90200,-18.01836669
2.90250,-23.81706043
2.90300,-25.95342129
