time,value
0,4.615131226
0.0005,4.615131226
0.001,3.394353595
0.0015,1.868381556
0.002,1.563187149
0.0025,2.783964779
0.003,4.00474241
0.0035,4.309936818
0.004,3.699548003
0.0045,2.783964779
0.005,1.563187149
0.0055,-0.267979298
0.006,-1.793951336
0.0065,-2.099145744
0.007,-0.878368113
0.0075,-0.267979298
0.008,-0.267979298
0.0085,-0.267979298
0.009,-0.878368113
0.0095,-1.793951336
0.01,-3.319923375
0.0105,-4.235506598
0.011,-3.93031219
0.0115,-2.709534559
0.012,-1.183562521
0.0125,-0.267979298
0.013,0.647603926
0.0135,0.647603926
0.014,-0.573173705
0.0145,-2.099145744
0.015,-1.793951336
0.0155,-0.878368113
0.016,-0.573173705
0.0165,-1.183562521
0.017,-0.878368113
0.0175,0.647603926
0.018,1.563187149
0.0185,0.03721511
0.019,-2.709534559
0.0195,-3.93031219
0.02,-3.319923375
0.0205,-2.709534559
0.021,-2.099145744
0.0215,-0.267979298
0.022,2.478770372
0.0225,4.920325633
0.023,4.00474241
0.0235,0.952798333
0.024,-0.267979298
0.0245,1.868381556
0.025,4.309936818
0.0255,4.00474241
0.026,1.563187149
0.0265,-0.267979298
0.027,-0.573173705
0.0275,-0.573173705
0.028,-1.183562521
0.0285,-2.709534559
0.029,-3.625117782
0.0295,-3.625117782
0.03,-2.099145744
0.0305,-0.267979298
0.031,1.563187149
0.0315,1.868381556
0.032,0.647603926
0.0325,-0.267979298
0.033,0.03721511
0.0335,1.257992741
0.034,1.868381556
0.0345,1.257992741
0.035,0.647603926
0.0355,0.342409518
0.036,0.342409518
0.0365,0.342409518
0.037,-0.267979298
0.0375,0.03721511
0.038,0.647603926
0.0385,0.342409518
0.039,-0.878368113
0.0395,-1.793951336
0.04,-0.573173705
0.0405,1.257992741
0.041,1.563187149
0.0415,1.563187149
0.042,3.394353595
0.0425,6.141103264
0.043,6.75149208
0.0435,4.920325633
0.044,4.00474241
0.0445,3.699548003
0.045,1.868381556
0.0455,-1.183562521
0.046,-1.793951336
0.0465,3.089159187
0.047,8.887852934
0.0475,10.41382497
0.048,8.582658526
0.0485,7.361880895
0.049,6.446297672
0.0495,2.478770372
0.05,-2.709534559
0.0505,-6.371867452
0.051,-7.592645082
0.0515,-8.203033898
0.052,-9.118617121
0.0525,-7.89783949
0.053,-5.761478636
0.0535,-6.371867452
0.054,-9.118617121
0.0545,-9.729005936
0.055,-6.677061859
0.0555,-5.151089821
0.056,-7.592645082
0.0565,-10.94978357
0.057,-10.33939475
0.0575,-7.592645082
0.058,-6.371867452
0.0585,-6.371867452
0.059,-4.845895413
0.0595,-2.709534559
0.06,-2.709534559
0.0605,-3.93031219
0.061,-3.319923375
0.0615,-0.267979298
0.062,1.563187149
0.0625,1.563187149
0.063,2.173575964
0.0635,4.920325633
0.064,6.141103264
0.0645,2.783964779
0.065,-1.793951336
0.0655,-4.540701005
0.066,-6.066673044
0.0665,-9.729005936
0.067,-12.78095001
0.0675,-10.33939475
0.068,-3.93031219
0.0685,0.03721511
0.069,-1.183562521
0.0695,-4.540701005
0.07,-5.456284228
0.0705,-5.456284228
0.071,-6.371867452
0.0715,-7.592645082
0.072,-6.371867452
0.0725,-4.540701005
0.073,-3.625117782
0.0735,-3.014728967
0.074,-0.267979298
0.0745,3.089159187
0.075,4.615131226
0.0755,3.699548003
0.076,3.089159187
0.0765,3.394353595
0.077,3.089159187
0.0775,1.257992741
0.078,0.952798333
0.0785,2.478770372
0.079,4.00474241
0.0795,4.00474241
0.08,2.783964779
0.0805,2.478770372
0.081,2.783964779
0.0815,3.394353595
0.082,3.699548003
0.0825,4.309936818
0.083,4.309936818
0.0835,2.173575964
0.084,-0.878368113
0.0845,-2.709534559
0.085,-2.404340151
0.0855,-1.793951336
0.086,-2.099145744
0.0865,-2.404340151
0.087,-1.183562521
0.0875,0.03721511
0.088,0.952798333
0.0885,1.868381556
0.089,4.00474241
0.0895,7.056686487
0.09,7.667075303
0.0905,6.141103264
0.091,4.920325633
0.0915,5.225520041
0.092,6.446297672
0.0925,6.446297672
0.093,5.225520041
0.0935,3.699548003
0.094,1.868381556
0.0945,0.342409518
0.095,-0.267979298
0.0955,-0.573173705
0.096,-1.488756928
0.0965,-3.93031219
0.097,-6.677061859
0.0975,-9.729005936
0.098,-13.08614442
0.0985,-15.83289409
0.099,-16.1380885
0.0995,-14.30692205
0.1,-12.1705612
0.1005,-10.64458916
0.101,-10.03420034
0.1015,-9.118617121
0.102,-7.592645082
0.1025,-4.845895413
0.103,-1.183562521
0.1035,2.173575964
0.104,4.309936818
0.1045,5.225520041
0.105,6.75149208
0.1055,7.667075303
0.106,6.446297672
0.1065,2.783964779
0.107,0.647603926
0.1075,1.868381556
0.108,4.615131226
0.1085,5.530714449
0.109,4.615131226
0.1095,4.309936818
0.11,4.615131226
0.1105,4.00474241
0.111,2.783964779
0.1115,1.868381556
0.112,1.868381556
0.1125,1.868381556
0.113,0.647603926
0.1135,-0.573173705
0.114,-1.793951336
0.1145,-2.099145744
0.115,-1.793951336
0.1155,-1.183562521
0.116,-0.267979298
0.1165,1.257992741
0.117,2.478770372
0.1175,1.868381556
0.118,0.03721511
0.1185,-0.878368113
0.119,-0.267979298
0.1195,0.647603926
0.12,0.342409518
0.1205,-0.267979298
0.121,-0.573173705
0.1215,-0.267979298
0.122,0.342409518
0.1225,0.03721511
0.123,-0.573173705
0.1235,-0.878368113
0.124,-0.573173705
0.1245,-0.267979298
0.125,0.342409518
0.1255,0.342409518
0.126,-0.267979298
0.1265,-0.878368113
0.127,-0.267979298
0.1275,0.952798333
0.128,2.173575964
0.1285,2.478770372
0.129,2.173575964
0.1295,1.868381556
0.13,1.563187149
0.1305,0.647603926
0.131,-0.573173705
0.1315,-2.709534559
0.132,-5.151089821
0.1325,-5.761478636
0.133,-2.404340151
0.1335,3.394353595
0.134,7.97226971
0.1345,8.582658526
0.135,7.361880895
0.1355,7.667075303
0.136,9.498241749
0.1365,10.41382497
0.137,8.582658526
0.1375,6.141103264
0.138,6.141103264
0.1385,8.277464118
0.139,10.10863056
0.1395,10.71901938
0.14,10.10863056
0.1405,8.277464118
0.141,3.699548003
0.1415,-3.014728967
0.142,-8.813422713
0.1425,-10.03420034
0.143,-8.508228305
0.1435,-9.118617121
0.144,-14.30692205
0.1445,-19.80042139
0.145,-20.1056158
0.1455,-16.44328291
0.146,-14.30692205
0.1465,-15.52769968
0.147,-16.74847731
0.1475,-14.61211646
0.148,-11.86536679
0.1485,-12.1705612
0.149,-13.39133883
0.1495,-12.1705612
0.15,-8.203033898
0.1505,-4.235506598
0.151,-2.709534559
0.1515,-1.488756928
0.152,0.952798333
0.1525,3.394353595
0.153,4.309936818
0.1535,3.394353595
0.154,1.257992741
0.1545,-1.183562521
0.155,-3.319923375
0.1555,-3.319923375
0.156,-1.488756928
0.1565,-0.573173705
0.157,-2.099145744
0.1575,-3.319923375
0.158,-1.488756928
0.1585,1.868381556
0.159,4.615131226
0.1595,5.225520041
0.16,4.309936818
0.1605,4.00474241
0.161,4.309936818
0.1615,4.615131226
0.162,4.309936818
0.1625,2.783964779
0.163,0.03721511
0.1635,-1.793951336
0.164,-2.099145744
0.1645,-1.183562521
0.165,0.03721511
0.1655,0.03721511
0.166,-0.878368113
0.1665,-1.488756928
0.167,-0.878368113
0.1675,0.03721511
0.168,1.563187149
0.1685,2.478770372
0.169,3.699548003
0.1695,4.00474241
0.17,2.783964779
0.1705,0.647603926
0.171,-0.878368113
0.1715,-1.488756928
0.172,-1.183562521
0.1725,-0.267979298
0.173,0.03721511
0.1735,1.563187149
0.174,3.394353595
0.1745,4.309936818
0.175,4.309936818
0.1755,4.615131226
0.176,5.225520041
0.1765,5.835908857
0.177,5.835908857
0.1775,4.615131226
0.178,3.089159187
0.1785,2.783964779
0.179,4.00474241
0.1795,5.225520041
0.18,4.615131226
0.1805,2.783964779
0.181,2.478770372
0.1815,4.615131226
0.182,6.141103264
0.1825,4.920325633
0.183,2.173575964
0.1835,1.868381556
0.184,4.00474241
0.1845,6.141103264
0.185,5.835908857
0.1855,4.920325633
0.186,4.920325633
0.1865,5.225520041
0.187,5.225520041
0.1875,4.615131226
0.188,3.394353595
0.1885,1.257992741
0.189,-0.573173705
0.1895,-0.573173705
0.19,0.342409518
0.1905,1.257992741
0.191,0.342409518
0.1915,-1.793951336
0.192,-3.93031219
0.1925,-5.456284228
0.193,-6.677061859
0.1935,-6.982256267
0.194,-6.982256267
0.1945,-6.982256267
0.195,-6.371867452
0.1955,-2.709534559
0.196,1.563187149
0.1965,3.394353595
0.197,2.173575964
0.1975,0.952798333
0.198,2.783964779
0.1985,5.530714449
0.199,6.75149208
0.1995,6.75149208
0.2,7.361880895
0.2005,7.667075303
0.201,5.835908857
0.2015,2.783964779
0.202,1.257992741
0.2025,3.089159187
0.203,5.835908857
0.2035,6.446297672
0.204,4.615131226
0.2045,2.783964779
0.205,2.478770372
0.2055,3.394353595
0.206,4.615131226
0.2065,5.225520041
0.207,4.920325633
0.2075,4.309936818
0.208,3.089159187
0.2085,1.563187149
0.209,0.647603926
0.2095,0.952798333
0.21,0.952798333
0.2105,-1.183562521
0.211,-5.456284228
0.2115,-7.89783949
0.212,-7.592645082
0.2125,-6.982256267
0.213,-8.203033898
0.2135,-10.33939475
0.214,-10.94978357
0.2145,-8.813422713
0.215,-6.066673044
0.2155,-3.93031219
0.216,-2.404340151
0.2165,-0.878368113
0.217,1.257992741
0.2175,5.530714449
0.218,11.02421379
0.2185,15.6021299
0.219,17.73849076
0.2195,18.04368516
0.22,18.34887957
0.2205,19.2644628
0.221,19.87485161
0.2215,18.04368516
0.222,13.16057464
0.2225,6.446297672
0.223,-0.267979298
0.2235,-6.371867452
0.224,-10.94978357
0.2245,-14.00172764
0.225,-15.83289409
0.2255,-17.05367172
0.226,-18.27444935
0.2265,-20.71600461
0.227,-23.76794869
0.2275,-24.68353191
0.228,-22.54717106
0.2285,-20.41081021
0.229,-19.80042139
0.2295,-19.80042139
0.23,-17.35886613
0.2305,-13.08614442
0.231,-9.729005936
0.2315,-9.118617121
0.232,-9.729005936
0.2325,-9.729005936
0.233,-9.423811529
0.2335,-8.813422713
0.234,-7.592645082
0.2345,-4.845895413
0.235,-2.099145744
0.2355,-0.878368113
0.236,-0.573173705
0.2365,-0.267979298
0.237,0.647603926
0.2375,0.647603926
0.238,0.647603926
0.2385,2.173575964
0.239,4.309936818
0.2395,4.920325633
0.24,4.00474241
0.2405,3.089159187
0.241,3.394353595
0.2415,3.699548003
0.242,2.173575964
0.2425,-0.267979298
0.243,-0.878368113
0.2435,-0.267979298
0.244,0.342409518
0.2445,-0.267979298
0.245,-1.183562521
0.2455,-1.793951336
0.246,-1.488756928
0.2465,-1.793951336
0.247,-3.014728967
0.2475,-3.625117782
0.248,-2.709534559
0.2485,-1.183562521
0.249,-2.099145744
0.2495,-3.319923375
0.25,-1.183562521
0.2505,3.394353595
0.251,6.141103264
0.2515,3.089159187
0.252,-1.793951336
0.2525,-3.625117782
0.253,-0.267979298
0.2535,3.394353595
0.254,4.920325633
0.2545,4.920325633
0.255,5.530714449
0.2555,6.141103264
0.256,5.835908857
0.2565,5.225520041
0.257,5.530714449
0.2575,5.835908857
0.258,4.00474241
0.2585,1.257992741
0.259,-0.573173705
0.2595,-1.488756928
0.26,-1.183562521
0.2605,-0.267979298
0.261,0.952798333
0.2615,1.868381556
0.262,0.647603926
0.2625,-0.573173705
0.263,-0.878368113
0.2635,0.03721511
0.264,1.868381556
0.2645,2.783964779
0.265,2.478770372
0.2655,1.868381556
0.266,1.868381556
0.2665,2.173575964
0.267,1.868381556
0.2675,0.342409518
0.268,-0.878368113
0.2685,-0.878368113
0.269,0.342409518
0.2695,0.952798333
0.27,0.342409518
0.2705,-0.267979298
0.271,0.342409518
0.2715,1.257992741
0.272,1.257992741
0.2725,0.952798333
0.273,0.952798333
0.2735,0.647603926
0.274,0.342409518
0.2745,-0.267979298
0.275,-1.183562521
0.2755,-2.404340151
0.276,-3.319923375
0.2765,-2.404340151
0.277,-0.267979298
0.2775,0.952798333
0.278,-0.267979298
0.2785,-1.793951336
0.279,-1.793951336
0.2795,-0.878368113
0.28,-1.183562521
0.2805,-2.404340151
0.281,-3.319923375
0.2815,-3.93031219
0.282,-4.540701005
0.2825,-5.456284228
0.283,-5.151089821
0.2835,-3.93031219
0.284,-2.709534559
0.2845,-1.793951336
0.285,-0.878368113
0.2855,-0.267979298
0.286,0.952798333
0.2865,1.868381556
0.287,3.089159187
0.2875,3.394353595
0.288,2.173575964
0.2885,0.647603926
0.289,0.952798333
0.2895,3.089159187
0.29,3.394353595
0.2905,0.647603926
0.291,-3.319923375
0.2915,-6.371867452
0.292,-6.677061859
0.2925,-4.845895413
0.293,-2.099145744
0.2935,0.952798333
0.294,3.089159187
0.2945,3.699548003
0.295,4.309936818
0.2955,6.141103264
0.296,7.056686487
0.2965,4.00474241
0.297,-1.183562521
0.2975,-4.540701005
0.298,-2.099145744
0.2985,2.478770372
0.299,4.309936818
0.2995,2.173575964
0.3,-0.267979298
0.3005,0.03721511
0.301,2.173575964
0.3015,4.309936818
0.302,4.615131226
0.3025,3.699548003
0.303,2.783964779
0.3035,2.478770372
0.304,2.783964779
0.3045,3.089159187
0.305,2.783964779
0.3055,0.952798333
0.306,-1.488756928
0.3065,-2.709534559
0.307,-1.183562521
0.3075,1.257992741
0.308,3.089159187
0.3085,3.699548003
0.309,3.394353595
0.3095,2.783964779
0.31,2.173575964
0.3105,1.563187149
0.311,0.952798333
0.3115,0.342409518
0.312,-0.267979298
0.3125,-0.267979298
0.313,1.257992741
0.3135,1.868381556
0.314,-0.573173705
0.3145,-3.93031219
0.315,-4.845895413
0.3155,-3.014728967
0.316,-0.573173705
0.3165,0.952798333
0.317,3.394353595
0.3175,5.530714449
0.318,5.225520041
0.3185,1.563187149
0.319,-1.793951336
0.3195,-1.793951336
0.32,-0.267979298
0.3205,0.647603926
0.321,0.03721511
0.3215,0.647603926
0.322,3.394353595
0.3225,6.446297672
0.323,7.361880895
0.3235,5.835908857
0.324,3.089159187
0.3245,0.647603926
0.325,0.647603926
0.3255,2.478770372
0.326,4.309936818
0.3265,5.225520041
0.327,5.530714449
0.3275,6.446297672
0.328,8.277464118
0.3285,8.887852934
0.329,6.75149208
0.3295,2.478770372
0.33,-1.793951336
0.3305,-4.540701005
0.331,-5.761478636
0.3315,-7.287450675
0.332,-10.03420034
0.3325,-14.00172764
0.333,-17.66406054
0.3335,-20.1056158
0.334,-20.71600461
0.3345,-17.96925494
0.335,-12.1705612
0.3355,-6.371867452
0.336,-3.319923375
0.3365,-3.014728967
0.337,-2.099145744
0.3375,0.03721511
0.338,1.257992741
0.3385,-0.267979298
0.339,-2.709534559
0.3395,-3.319923375
0.34,-1.793951336
0.3405,-0.267979298
0.341,-0.267979298
0.3415,-0.878368113
0.342,-1.488756928
0.3425,-0.573173705
0.343,0.952798333
0.3435,1.563187149
0.344,-1.488756928
0.3445,-7.592645082
0.345,-12.1705612
0.3455,-13.39133883
0.346,-13.39133883
0.3465,-15.22250527
0.347,-18.27444935
0.3475,-18.57964376
0.348,-14.30692205
0.3485,-9.118617121
0.349,-5.151089821
0.3495,-1.793951336
0.35,2.478770372
0.3505,6.75149208
0.351,7.97226971
0.3515,6.446297672
0.352,4.615131226
0.3525,4.00474241
0.353,4.00474241
0.3535,3.699548003
0.354,4.00474241
0.3545,4.615131226
0.355,3.394353595
0.3555,0.647603926
0.356,-0.573173705
0.3565,1.257992741
0.357,3.699548003
0.3575,4.00474241
0.358,1.868381556
0.3585,0.342409518
0.359,-0.573173705
0.3595,-2.404340151
0.36,-4.235506598
0.3605,-4.540701005
0.361,-4.235506598
0.3615,-5.456284228
0.362,-6.982256267
0.3625,-6.371867452
0.363,-3.625117782
0.3635,-1.183562521
0.364,-0.267979298
0.3645,0.342409518
0.365,3.089159187
0.3655,5.835908857
0.366,7.056686487
0.3665,6.75149208
0.367,5.225520041
0.3675,2.783964779
0.368,0.03721511
0.3685,-0.267979298
0.369,1.257992741
0.3695,3.089159187
0.37,3.089159187
0.3705,1.868381556
0.371,0.952798333
0.3715,0.952798333
0.372,0.647603926
0.3725,0.952798333
0.373,1.257992741
0.3735,0.952798333
0.374,-0.267979298
0.3745,-1.183562521
0.375,-1.793951336
0.3755,-2.404340151
0.376,-2.099145744
0.3765,-0.267979298
0.377,1.563187149
0.3775,2.478770372
0.378,1.257992741
0.3785,0.03721511
0.379,-0.267979298
0.3795,-0.878368113
0.38,-2.404340151
0.3805,-3.014728967
0.381,-2.709534559
0.3815,-2.709534559
0.382,-3.014728967
0.3825,-2.709534559
0.383,-1.183562521
0.3835,-0.267979298
0.384,-0.267979298
0.3845,-0.878368113
0.385,-0.267979298
0.3855,-0.267979298
0.386,-1.183562521
0.3865,-2.404340151
0.387,-2.709534559
0.3875,-2.709534559
0.388,-3.93031219
0.3885,-4.845895413
0.389,-4.235506598
0.3895,-2.099145744
0.39,-0.573173705
0.3905,-0.267979298
0.391,0.03721511
0.3915,1.563187149
0.392,2.478770372
0.3925,2.173575964
0.393,0.342409518
0.3935,-1.488756928
0.394,-3.014728967
0.3945,-3.014728967
0.395,-2.404340151
0.3955,-2.099145744
0.396,-1.488756928
0.3965,-0.267979298
0.397,1.563187149
0.3975,2.173575964
0.398,0.647603926
0.3985,-0.573173705
0.399,-0.573173705
0.3995,-0.573173705
0.4,-1.488756928
0.4005,-3.319923375
0.401,-3.319923375
0.4015,-2.099145744
0.402,-0.878368113
0.4025,-0.573173705
0.403,-1.488756928
0.4035,-2.709534559
0.404,-3.625117782
0.4045,-2.709534559
0.405,0.03721511
0.4055,3.089159187
0.406,4.309936818
0.4065,4.920325633
0.407,5.835908857
0.4075,6.75149208
0.408,5.835908857
0.4085,3.699548003
0.409,1.563187149
0.4095,0.952798333
0.41,1.868381556
0.4105,3.089159187
0.411,3.394353595
0.4115,1.868381556
0.412,-0.878368113
0.4125,-2.404340151
0.413,-1.488756928
0.4135,-0.573173705
0.414,-0.878368113
0.4145,-2.404340151
0.415,-3.625117782
0.4155,-4.540701005
0.416,-4.235506598
0.4165,-1.793951336
0.417,2.173575964
0.4175,4.920325633
0.418,4.00474241
0.4185,0.952798333
0.419,-1.183562521
0.4195,-2.099145744
0.42,-1.793951336
0.4205,-1.183562521
0.421,0.03721511
0.4215,1.563187149
0.422,2.173575964
0.4225,1.563187149
0.423,0.03721511
0.4235,-0.878368113
0.424,-0.267979298
0.4245,2.173575964
0.425,4.309936818
0.4255,3.394353595
0.426,0.952798333
0.4265,0.03721511
0.427,0.647603926
0.4275,0.03721511
0.428,-1.793951336
0.4285,-3.319923375
0.429,-4.235506598
0.4295,-5.151089821
0.43,-6.677061859
0.4305,-6.982256267
0.431,-5.761478636
0.4315,-5.151089821
0.432,-5.456284228
0.4325,-4.235506598
0.433,-0.573173705
0.4335,1.257992741
0.434,-0.267979298
0.4345,-2.709534559
0.435,-2.404340151
0.4355,0.03721511
0.436,1.563187149
0.4365,2.173575964
0.437,4.615131226
0.4375,8.582658526
0.438,10.71901938
0.4385,8.582658526
0.439,4.615131226
0.4395,3.394353595
0.44,5.530714449
0.4405,8.277464118
0.441,10.41382497
0.4415,11.93979701
0.442,12.55018583
0.4425,11.3294082
0.443,7.97226971
0.4435,4.00474241
0.444,2.783964779
0.4445,4.00474241
0.445,5.225520041
0.4455,4.615131226
0.446,2.783964779
0.4465,0.952798333
0.447,-0.267979298
0.4475,-0.878368113
0.448,-1.488756928
0.4485,-1.793951336
0.449,-1.793951336
0.4495,-1.793951336
0.45,-1.793951336
0.4505,-1.183562521
0.451,-0.267979298
0.4515,0.342409518
0.452,0.647603926
0.4525,0.647603926
0.453,0.952798333
0.4535,1.257992741
0.454,0.342409518
0.4545,-0.267979298
0.455,-0.267979298
0.4555,1.257992741
0.456,1.868381556
0.4565,0.952798333
0.457,-0.573173705
0.4575,-1.793951336
0.458,-2.099145744
0.4585,-2.404340151
0.459,-1.793951336
0.4595,0.03721511
0.46,2.783964779
0.4605,3.089159187
0.461,0.952798333
0.4615,-0.878368113
0.462,-2.099145744
0.4625,-3.625117782
0.463,-5.761478636
0.4635,-6.677061859
0.464,-4.540701005
0.4645,-1.183562521
0.465,-0.573173705
0.4655,-2.404340151
0.466,-3.319923375
0.4665,-0.878368113
0.467,2.478770372
0.4675,4.309936818
0.468,4.309936818
0.4685,3.394353595
0.469,2.478770372
0.4695,0.342409518
0.47,-1.488756928
0.4705,-2.404340151
0.471,-1.793951336
0.4715,-1.488756928
0.472,-1.488756928
0.4725,-0.267979298
0.473,2.173575964
0.4735,5.225520041
0.474,5.835908857
0.4745,4.00474241
0.475,1.563187149
0.4755,-0.267979298
0.476,-0.573173705
0.4765,-0.267979298
0.477,0.647603926
0.4775,1.257992741
0.478,1.868381556
0.4785,3.394353595
0.479,4.309936818
0.4795,3.394353595
0.48,0.647603926
0.4805,-2.709534559
0.481,-6.371867452
0.4815,-8.813422713
0.482,-9.423811529
0.4825,-7.89783949
0.483,-4.845895413
0.4835,-0.878368113
0.484,3.394353595
0.4845,5.835908857
0.485,4.615131226
0.4855,-0.573173705
0.486,-6.371867452
0.4865,-8.813422713
0.487,-9.118617121
0.4875,-11.25497797
0.488,-15.83289409
0.4885,-19.49522698
0.489,-20.41081021
0.4895,-19.19003258
0.49,-18.88483817
0.4905,-19.19003258
0.491,-17.66406054
0.4915,-13.69653324
0.492,-8.508228305
0.4925,-4.235506598
0.493,-1.793951336
0.4935,-0.878368113
0.494,-0.573173705
0.4945,0.03721511
0.495,0.03721511
0.4955,-0.573173705
0.496,-0.267979298
0.4965,3.699548003
0.497,7.97226971
0.4975,7.056686487
0.498,1.257992741
0.4985,-3.319923375
0.499,-3.014728967
0.4995,-0.267979298
0.5,0.647603926
0.5005,0.952798333
0.501,3.699548003
0.5015,7.97226971
0.502,9.193047341
0.5025,7.056686487
0.503,5.530714449
0.5035,5.835908857
0.504,4.615131226
0.5045,0.03721511
0.505,-2.709534559
0.5055,-0.878368113
0.506,2.783964779
0.5065,4.309936818
0.507,3.089159187
0.5075,3.394353595
0.508,5.835908857
0.5085,7.667075303
0.509,7.667075303
0.5095,7.667075303
0.51,7.97226971
0.5105,7.667075303
0.511,6.446297672
0.5115,5.530714449
0.512,4.920325633
0.5125,4.615131226
0.513,3.699548003
0.5135,2.173575964
0.514,0.647603926
0.5145,-1.183562521
0.515,-3.014728967
0.5155,-4.235506598
0.516,-3.625117782
0.5165,-2.099145744
0.517,-0.267979298
0.5175,1.257992741
0.518,2.478770372
0.5185,3.089159187
0.519,3.089159187
0.5195,2.478770372
0.52,1.257992741
0.5205,0.952798333
0.521,2.478770372
0.5215,5.225520041
0.522,6.75149208
0.5225,6.75149208
0.523,6.141103264
0.5235,6.141103264
0.524,4.920325633
0.5245,2.478770372
0.525,0.952798333
0.5255,1.257992741
0.526,2.173575964
0.5265,1.868381556
0.527,-0.267979298
0.5275,-1.488756928
0.528,-2.099145744
0.5285,-1.183562521
0.529,-0.267979298
0.5295,1.563187149
0.53,3.089159187
0.5305,3.699548003
0.531,2.478770372
0.5315,0.342409518
0.532,-1.183562521
0.5325,-0.878368113
0.533,-0.267979298
0.5335,-0.267979298
0.534,-0.878368113
0.5345,-1.488756928
0.535,-1.488756928
0.5355,-1.488756928
0.536,-1.183562521
0.5365,-0.267979298
0.537,2.173575964
0.5375,3.394353595
0.538,2.173575964
0.5385,-0.878368113
0.539,-3.625117782
0.5395,-4.845895413
0.54,-3.625117782
0.5405,-1.183562521
0.541,0.647603926
0.5415,0.647603926
0.542,-0.267979298
0.5425,-0.573173705
0.543,-1.183562521
0.5435,-3.93031219
0.544,-7.592645082
0.5445,-7.89783949
0.545,-3.319923375
0.5455,1.868381556
0.546,3.394353595
0.5465,1.563187149
0.547,1.257992741
0.5475,2.783964779
0.548,3.699548003
0.5485,3.089159187
0.549,2.478770372
0.5495,2.173575964
0.55,0.952798333
0.5505,-0.267979298
0.551,0.03721511
0.5515,3.699548003
0.552,7.97226971
0.5525,8.887852934
0.553,6.75149208
0.5535,4.309936818
0.554,3.394353595
0.5545,4.00474241
0.555,5.530714449
0.5555,7.056686487
0.556,7.97226971
0.5565,8.582658526
0.557,8.277464118
0.5575,7.361880895
0.558,6.141103264
0.5585,5.530714449
0.559,4.920325633
0.5595,3.089159187
0.56,0.647603926
0.5605,-0.878368113
0.561,-1.793951336
0.5615,-3.014728967
0.562,-4.845895413
0.5625,-6.371867452
0.563,-6.982256267
0.5635,-6.371867452
0.564,-5.456284228
0.5645,-3.625117782
0.565,-1.793951336
0.5655,-0.878368113
0.566,-2.099145744
0.5665,-3.014728967
0.567,-3.319923375
0.5675,-4.235506598
0.568,-6.066673044
0.5685,-6.371867452
0.569,-3.625117782
0.5695,-0.878368113
0.57,-1.183562521
0.5705,-3.014728967
0.571,-2.404340151
0.5715,1.257992741
0.572,3.394353595
0.5725,0.342409518
0.573,-4.845895413
0.5735,-7.592645082
0.574,-6.066673044
0.5745,-3.014728967
0.575,-0.267979298
0.5755,2.173575964
0.576,4.309936818
0.5765,4.615131226
0.577,3.089159187
0.5775,1.257992741
0.578,0.03721511
0.5785,-1.793951336
0.579,-5.456284228
0.5795,-8.508228305
0.58,-8.508228305
0.5805,-5.761478636
0.581,-3.625117782
0.5815,-4.235506598
0.582,-6.371867452
0.5825,-7.287450675
0.583,-6.371867452
0.5835,-4.540701005
0.584,-4.235506598
0.5845,-4.540701005
0.585,-4.845895413
0.5855,-3.319923375
0.586,-1.488756928
0.5865,-0.573173705
0.587,-0.267979298
0.5875,0.952798333
0.588,3.394353595
0.5885,4.615131226
0.589,2.783964779
0.5895,-0.878368113
0.59,-4.235506598
0.5905,-5.151089821
0.591,-5.456284228
0.5915,-6.066673044
0.592,-7.287450675
0.5925,-8.508228305
0.593,-8.508228305
0.5935,-6.982256267
0.594,-4.235506598
0.5945,-1.793951336
0.595,-1.183562521
0.5955,-0.878368113
0.596,-0.573173705
0.5965,-0.267979298
0.597,-1.488756928
0.5975,-3.625117782
0.598,-4.540701005
0.5985,-3.014728967
0.599,-1.793951336
0.5995,-1.488756928
0.6,-1.793951336
0.6005,-1.488756928
0.601,-0.878368113
0.6015,-1.793951336
0.602,-4.235506598
0.6025,-6.677061859
0.603,-6.677061859
0.6035,-3.93031219
0.604,0.342409518
0.6045,3.699548003
0.605,3.699548003
0.6055,1.868381556
0.606,0.647603926
0.6065,-0.267979298
0.607,-1.488756928
0.6075,-3.93031219
0.608,-5.456284228
0.6085,-5.456284228
0.609,-4.540701005
0.6095,-2.099145744
0.61,1.257992741
0.6105,4.309936818
0.611,5.225520041
0.6115,4.309936818
0.612,3.089159187
0.6125,2.173575964
0.613,0.342409518
0.6135,-1.793951336
0.614,-4.540701005
0.6145,-6.982256267
0.615,-9.118617121
0.6155,-10.03420034
0.616,-8.813422713
0.6165,-6.371867452
0.617,-4.845895413
0.6175,-3.93031219
0.618,-1.793951336
0.6185,1.563187149
0.619,4.309936818
0.6195,5.225520041
0.62,4.920325633
0.6205,5.225520041
0.621,5.530714449
0.6215,4.309936818
0.622,1.563187149
0.6225,-0.573173705
0.623,-1.488756928
0.6235,-0.573173705
0.624,1.257992741
0.6245,1.868381556
0.625,1.257992741
0.6255,1.257992741
0.626,2.478770372
0.6265,2.478770372
0.627,0.342409518
0.6275,-1.793951336
0.628,-0.573173705
0.6285,2.478770372
0.629,2.478770372
0.6295,-0.878368113
0.63,-3.014728967
0.6305,-2.099145744
0.631,-0.573173705
0.6315,-2.099145744
0.632,-3.93031219
0.6325,-2.709534559
0.633,0.342409518
0.6335,1.563187149
0.634,0.647603926
0.6345,0.342409518
0.635,1.257992741
0.6355,1.563187149
0.636,0.647603926
0.6365,-0.267979298
0.637,-0.267979298
0.6375,-0.267979298
0.638,0.03721511
0.6385,1.257992741
0.639,3.089159187
0.6395,3.394353595
0.64,1.868381556
0.6405,0.03721511
0.641,-0.878368113
0.6415,-2.404340151
0.642,-4.235506598
0.6425,-5.456284228
0.643,-5.151089821
0.6435,-5.151089821
0.644,-5.761478636
0.6445,-5.761478636
0.645,-3.014728967
0.6455,0.03721511
0.646,2.478770372
0.6465,4.309936818
0.647,7.361880895
0.6475,11.02421379
0.648,12.85538023
0.6485,11.93979701
0.649,9.803436157
0.6495,7.056686487
0.65,4.00474241
0.6505,1.563187149
0.651,0.342409518
0.6515,0.03721511
0.652,-0.267979298
0.6525,-0.878368113
0.653,-0.878368113
0.6535,-1.183562521
0.654,-3.014728967
0.6545,-4.235506598
0.655,-2.404340151
0.6555,-0.267979298
0.656,0.342409518
0.6565,-1.183562521
0.657,-2.404340151
0.6575,-2.099145744
0.658,-3.625117782
0.6585,-6.677061859
0.659,-8.813422713
0.6595,-7.287450675
0.66,-4.540701005
0.6605,-2.709534559
0.661,-2.099145744
0.6615,-2.709534559
0.662,-4.540701005
0.6625,-5.761478636
0.663,-6.066673044
0.6635,-5.456284228
0.664,-6.677061859
0.6645,-8.203033898
0.665,-7.89783949
0.6655,-6.371867452
0.666,-8.203033898
0.6665,-13.69653324
0.667,-18.57964376
0.6675,-17.66406054
0.668,-11.56017238
0.6685,-5.151089821
0.669,-1.793951336
0.6695,-1.183562521
0.67,-2.099145744
0.6705,-3.625117782
0.671,-5.456284228
0.6715,-6.371867452
0.672,-4.845895413
0.6725,-1.793951336
0.673,0.647603926
0.6735,1.868381556
0.674,1.563187149
0.6745,0.647603926
0.675,0.342409518
0.6755,0.952798333
0.676,0.647603926
0.6765,0.647603926
0.677,1.563187149
0.6775,3.089159187
0.678,3.394353595
0.6785,1.563187149
0.679,-0.267979298
0.6795,-0.267979298
0.68,1.257992741
0.6805,3.699548003
0.681,5.530714449
0.6815,7.667075303
0.682,9.193047341
0.6825,8.887852934
0.683,6.446297672
0.6835,4.309936818
0.684,4.309936818
0.6845,5.225520041
0.685,5.225520041
0.6855,4.00474241
0.686,2.783964779
0.6865,2.173575964
0.687,0.952798333
0.6875,-0.267979298
0.688,0.03721511
0.6885,2.173575964
0.689,5.225520041
0.6895,7.361880895
0.69,8.277464118
0.6905,8.582658526
0.691,8.582658526
0.6915,7.97226971
0.692,6.141103264
0.6925,3.089159187
0.693,-0.267979298
0.6935,-2.404340151
0.694,-2.099145744
0.6945,-0.878368113
0.695,-0.573173705
0.6955,-1.793951336
0.696,-2.099145744
0.6965,-0.267979298
0.697,1.868381556
0.6975,1.257992741
0.698,-1.488756928
0.6985,-3.319923375
0.699,-1.488756928
0.6995,1.563187149
0.7,3.394353595
0.7005,2.783964779
0.701,1.868381556
0.7015,1.868381556
0.702,2.173575964
0.7025,1.868381556
0.703,1.563187149
0.7035,1.257992741
0.704,0.952798333
0.7045,0.647603926
0.705,0.03721511
0.7055,-1.183562521
0.706,-2.404340151
0.7065,-2.709534559
0.707,-1.793951336
0.7075,-1.183562521
0.708,-1.488756928
0.7085,-2.404340151
0.709,-2.709534559
0.7095,-3.014728967
0.71,-3.319923375
0.7105,-3.319923375
0.711,-1.793951336
0.7115,-0.267979298
0.712,-0.267979298
0.7125,-2.404340151
0.713,-4.235506598
0.7135,-3.319923375
0.714,-0.573173705
0.7145,1.563187149
0.715,2.478770372
0.7155,2.478770372
0.716,2.173575964
0.7165,1.257992741
0.717,-1.488756928
0.7175,-6.982256267
0.718,-13.08614442
0.7185,-16.44328291
0.719,-14.00172764
0.7195,-7.89783949
0.72,-3.625117782
0.7205,-3.014728967
0.721,-3.625117782
0.7215,-1.183562521
0.722,3.394353595
0.7225,7.056686487
0.723,7.97226971
0.7235,6.75149208
0.724,5.835908857
0.7245,4.920325633
0.725,3.699548003
0.7255,1.563187149
0.726,-0.267979298
0.7265,-2.404340151
0.727,-2.404340151
0.7275,0.647603926
0.728,6.75149208
0.7285,12.85538023
0.729,15.90732431
0.7295,15.6021299
0.73,12.55018583
0.7305,9.193047341
0.731,7.056686487
0.7315,5.835908857
0.732,4.615131226
0.7325,3.394353595
0.733,2.783964779
0.7335,3.699548003
0.734,4.615131226
0.7345,5.835908857
0.735,8.277464118
0.7355,12.55018583
0.736,16.21251872
0.7365,15.6021299
0.737,11.3294082
0.7375,8.277464118
0.738,8.277464118
0.7385,9.498241749
0.739,9.498241749
0.7395,8.277464118
0.74,6.446297672
0.7405,3.089159187
0.741,-0.267979298
0.7415,-2.099145744
0.742,-0.267979298
0.7425,2.783964779
0.743,2.478770372
0.7435,-1.488756928
0.744,-6.371867452
0.7445,-9.729005936
0.745,-11.86536679
0.7455,-12.78095001
0.746,-11.25497797
0.7465,-6.066673044
0.747,-0.573173705
0.7475,0.952798333
0.748,-1.793951336
0.7485,-6.066673044
0.749,-7.592645082
0.7495,-6.677061859
0.75,-6.677061859
0.7505,-8.203033898
0.751,-8.508228305
0.7515,-6.371867452
0.752,-3.014728967
0.7525,-0.267979298
0.753,3.394353595
0.7535,7.361880895
0.754,10.10863056
0.7545,12.24499142
0.755,15.2969355
0.7555,19.5696572
0.756,21.40082365
0.7565,18.95926839
0.757,13.77096346
0.7575,9.803436157
0.758,7.97226971
0.7585,7.97226971
0.759,7.667075303
0.7595,5.225520041
0.76,0.342409518
0.7605,-4.235506598
0.761,-6.982256267
0.7615,-8.813422713
0.762,-11.86536679
0.7625,-12.47575561
0.763,-7.592645082
0.7635,-4.540701005
0.764,-13.39133883
0.7645,-29.87183684
0.765,-34.75494737
0.7655,-18.27444935
0.766,4.920325633
0.7665,13.77096346
0.767,6.446297672
0.7675,-3.014728967
0.768,-6.371867452
0.7685,-8.813422713
0.769,-14.30692205
0.7695,-17.96925494
0.77,-15.52769968
0.7705,-11.25497797
0.771,-10.33939475
0.7715,-12.1705612
0.772,-13.69653324
0.7725,-13.69653324
0.773,-12.78095001
0.7735,-10.33939475
0.774,-6.371867452
0.7745,-2.404340151
0.775,-0.267979298
0.7755,-0.573173705
0.776,-3.625117782
0.7765,-6.066673044
0.777,-3.625117782
0.7775,3.699548003
0.778,11.3294082
0.7785,12.85538023
0.779,9.193047341
0.7795,6.446297672
0.78,7.056686487
0.7805,8.887852934
0.781,9.803436157
0.7815,11.02421379
0.782,12.24499142
0.7825,10.71901938
0.783,6.446297672
0.7835,4.309936818
0.784,7.056686487
0.7845,10.71901938
0.785,11.3294082
0.7855,11.3294082
0.786,14.07615786
0.7865,18.04368516
0.787,15.90732431
0.7875,5.530714449
0.788,-6.066673044
0.7885,-11.56017238
0.789,-10.33939475
0.7895,-8.203033898
0.79,-9.118617121
0.7905,-9.118617121
0.791,-5.151089821
0.7915,-0.267979298
0.792,1.868381556
0.7925,-0.267979298
0.793,-2.709534559
0.7935,-5.151089821
0.794,-8.508228305
0.7945,-12.47575561
0.795,-15.22250527
0.7955,-16.1380885
0.796,-16.74847731
0.7965,-16.74847731
0.797,-15.52769968
0.7975,-14.00172764
0.798,-13.69653324
0.7985,-13.08614442
0.799,-9.118617121
0.7995,-4.540701005
0.8,-4.845895413
0.8005,-8.813422713
0.801,-8.203033898
0.8015,-1.488756928
0.802,3.089159187
0.8025,0.342409518
0.803,-5.456284228
0.8035,-6.677061859
0.804,-3.014728967
0.8045,-0.267979298
0.805,-0.267979298
0.8055,-0.267979298
0.806,-0.267979298
0.8065,-0.878368113
0.807,-2.404340151
0.8075,-2.709534559
0.808,-1.183562521
0.8085,0.342409518
0.809,0.952798333
0.8095,0.342409518
0.81,-1.183562521
0.8105,-3.93031219
0.811,-6.066673044
0.8115,-6.066673044
0.812,-4.540701005
0.8125,-2.709534559
0.813,-0.267979298
0.8135,3.394353595
0.814,5.530714449
0.8145,5.225520041
0.815,2.478770372
0.8155,-1.183562521
0.816,-7.592645082
0.8165,-15.52769968
0.817,-21.63158784
0.8175,-22.85236547
0.818,-20.41081021
0.8185,-18.57964376
0.819,-17.96925494
0.8195,-15.52769968
0.82,-10.94978357
0.8205,-6.371867452
0.821,-2.709534559
0.8215,0.647603926
0.822,3.394353595
0.8225,1.563187149
0.823,-4.845895413
0.8235,-10.03420034
0.824,-8.203033898
0.8245,-3.014728967
0.825,-1.793951336
0.8255,-6.677061859
0.826,-12.1705612
0.8265,-14.91731087
0.827,-14.61211646
0.8275,-10.33939475
0.828,-2.099145744
0.8285,6.75149208
0.829,9.803436157
0.8295,5.225520041
0.83,-0.573173705
0.8305,-2.099145744
0.831,1.563187149
0.8315,6.141103264
0.832,8.887852934
0.8325,11.93979701
0.833,16.51771313
0.8335,21.70601806
0.834,25.06315654
0.8345,24.75796213
0.835,21.40082365
0.8355,17.73849076
0.836,18.04368516
0.8365,24.14757332
0.837,34.82937759
0.8375,46.12157067
0.838,52.83584764
0.8385,51.0046812
0.839,42.76443219
0.8395,35.74496081
0.84,36.05015522
0.8405,40.01768252
0.841,39.4072937
0.8415,29.33587825
0.842,14.07615786
0.8425,0.342409518
0.843,-9.729005936
0.8435,-17.66406054
0.844,-23.46275428
0.8445,-27.43028158
0.845,-30.48222566
0.8455,-34.44975296
0.846,-40.24844671
0.8465,-45.43675164
0.847,-46.65752927
0.8475,-42.38480756
0.848,-32.61858651
0.8485,-20.1056158
0.849,-9.423811529
0.8495,-1.793951336
0.85,3.089159187
0.8505,6.75149208
0.851,6.75149208
0.8515,2.783964779
0.852,-0.267979298
0.8525,2.783964779
0.853,10.41382497
0.8535,17.73849076
0.854,23.84237891
0.8545,32.99821114
0.855,46.73195949
0.8555,60.46570784
0.856,69.92673447
0.8565,75.42023381
0.857,78.16698348
0.8575,79.38776111
0.858,81.52412197
0.8585,88.84878775
0.859,101.3617585
0.8595,111.4331739
0.86,112.3487571
0.8605,105.3292858
0.861,94.6474815
0.8615,80.30334434
0.862,61.38129106
0.8625,41.84884897
0.863,25.97873976
0.8635,11.93979701
0.864,-5.456284228
0.8645,-28.34586481
0.865,-52.45622301
0.8655,-71.6834707
0.866,-82.67046938
0.8665,-84.19644142
0.867,-80.53410852
0.8675,-80.83930293
0.868,-89.38474635
0.8685,-99.76135621
0.869,-103.4236891
0.8695,-99.15096739
0.87,-91.82630161
0.8705,-83.28085819
0.871,-74.43022037
0.8715,-66.80036018
0.872,-64.96919373
0.8725,-67.7159434
0.873,-70.15749866
0.8735,-69.54710985
0.874,-66.49516577
0.8745,-62.52763847
0.875,-56.72894472
0.8755,-48.48869571
0.876,-39.33286348
0.8765,-30.78742007
0.877,-22.85236547
0.8775,-15.22250527
0.878,-9.729005936
0.8785,-8.508228305
0.879,-12.78095001
0.8795,-18.27444935
0.88,-18.57964376
0.8805,-11.25497797
0.881,-0.878368113
0.8815,4.920325633
0.882,5.225520041
0.8825,2.478770372
0.883,-1.183562521
0.8835,-6.677061859
0.884,-11.86536679
0.8845,-12.78095001
0.885,-9.423811529
0.8855,-4.845895413
0.886,-2.099145744
0.8865,-1.488756928
0.887,-1.793951336
0.8875,-1.488756928
0.888,0.03721511
0.8885,3.394353595
0.889,7.361880895
0.8895,10.41382497
0.89,13.16057464
0.8905,14.68654668
0.891,12.85538023
0.8915,8.582658526
0.892,7.361880895
0.8925,13.46576905
0.893,22.01121246
0.8935,25.06315654
0.894,20.79043483
0.8945,13.77096346
0.895,7.361880895
0.8955,0.03721511
0.896,-9.118617121
0.8965,-17.66406054
0.897,-23.15755988
0.8975,-27.12508718
0.898,-28.95625362
0.8985,-24.98872632
0.899,-12.1705612
0.8995,4.00474241
0.9,14.68654668
0.9005,17.12810194
0.901,18.04368516
0.9015,23.2319901
0.902,31.1670447
0.9025,35.134572
0.903,33.30340555
0.9035,28.11510062
0.904,20.79043483
0.9045,15.6021299
0.905,17.73849076
0.9055,26.89432299
0.906,35.4397664
0.9065,37.88132167
0.907,40.32287693
0.9075,50.08909797
0.908,63.51765191
0.9085,69.92673447
0.909,67.48517921
0.9095,66.8747904
0.91,75.42023381
0.9105,86.40723249
0.911,88.54359334
0.9115,77.55659467
0.912,57.71895817
0.9125,37.57612726
0.913,24.75796213
0.9135,21.09562924
0.914,22.01121246
0.9145,25.06315654
0.915,33.91379437
0.9155,48.86832034
0.916,59.55012461
0.9165,56.19298613
0.917,42.76443219
0.9175,30.86185029
0.918,18.65407398
0.9185,-4.845895413
0.919,-40.24844671
0.9195,-71.07308188
0.92,-86.02760786
0.9205,-93.04707924
0.921,-103.7288835
0.9215,-115.9366598
0.922,-120.2093815
0.9225,-114.7158822
0.923,-105.2548555
0.9235,-92.43669042
0.924,-74.43022037
0.9245,-52.45622301
0.925,-33.22897533
0.9255,-19.80042139
0.926,-11.56017238
0.9265,-6.371867452
0.927,-2.404340151
0.9275,3.699548003
0.928,13.16057464
0.9285,22.01121246
0.929,26.28393417
0.9295,25.06315654
0.93,22.01121246
0.9305,20.48524043
0.931,21.70601806
0.9315,25.67354536
0.932,30.86185029
0.9325,35.4397664
0.933,40.32287693
0.9335,45.20598745
0.934,46.12157067
0.9345,36.35534963
0.935,16.82290753
0.9355,-0.878368113
0.936,-9.118617121
0.9365,-11.86536679
0.937,-19.49522698
0.9375,-33.83936414
0.938,-46.04714045
0.9385,-50.93025098
0.939,-52.15102861
0.9395,-56.72894472
0.94,-65.27438814
0.9405,-73.20944274
0.941,-76.87177563
0.9415,-77.78735885
0.942,-79.00813648
0.9425,-81.14449734
0.943,-82.06008056
0.9435,-79.92371971
0.944,-74.12502596
0.9445,-64.96919373
0.945,-52.15102861
0.9455,-39.9432523
0.946,-32.92378092
0.9465,-31.70300329
0.947,-29.56664244
0.9475,-21.32639343
0.948,-9.118617121
0.9485,0.342409518
0.949,4.309936818
0.9495,4.309936818
0.95,2.478770372
0.9505,0.647603926
0.951,2.478770372
0.9515,11.3294082
0.952,23.5371845
0.9525,32.99821114
0.953,39.1020993
0.9535,44.29040423
0.954,48.56312593
0.9545,47.0371539
0.955,39.1020993
0.9555,28.11510062
0.956,17.12810194
0.9565,6.141103264
0.957,1.257992741
0.9575,10.10863056
0.958,32.69301673
0.9585,56.19298613
0.959,70.23192888
0.9595,76.33581704
0.96,82.13451078
0.9605,87.01762131
0.961,85.49164927
0.9615,76.03062263
0.962,62.60206869
0.9625,47.3423483
0.963,29.94626706
0.9635,13.77096346
0.964,2.173575964
0.9645,-5.456284228
0.965,-13.69653324
0.9655,-22.54717106
0.966,-33.22897533
0.9665,-48.48869571
0.967,-71.37827629
0.9675,-92.74188483
0.968,-97.31980095
0.9685,-80.83930293
0.969,-54.59258387
0.9695,-32.0081977
0.97,-15.83289409
0.9705,-1.488756928
0.971,11.93979701
0.9715,24.14757332
0.972,35.4397664
0.9725,47.3423483
0.973,56.80337494
0.9735,61.68648547
0.974,63.2124575
0.9745,62.29687428
0.975,56.19298613
0.9755,44.59559863
0.976,33.60859996
0.9765,27.5047118
0.977,21.40082365
0.9775,11.3294082
0.978,2.478770372
0.9785,1.257992741
0.979,4.615131226
0.9795,6.141103264
0.98,6.141103264
0.9805,9.193047341
0.981,12.24499142
0.9815,7.667075303
0.982,-4.845895413
0.9825,-16.44328291
0.983,-19.80042139
0.9835,-17.96925494
0.984,-17.35886613
0.9845,-20.71600461
0.985,-25.59911514
0.9855,-28.65105921
0.986,-29.26144803
0.9865,-32.61858651
0.987,-42.99519638
0.9875,-53.67700065
0.988,-52.15102861
0.9885,-36.58611381
0.989,-23.46275428
0.9895,-29.87183684
0.99,-49.09908453
0.9905,-60.08608321
0.991,-53.67700065
0.9915,-39.9432523
0.992,-29.56664244
0.9925,-19.80042139
0.993,-0.878368113
0.9935,26.89432299
0.994,51.92026442
0.9945,62.60206869
0.995,60.77090224
0.9955,60.77090224
0.996,74.809845
0.9965,100.1409808
0.997,121.199395
0.9975,125.4721167
0.998,115.4007012
0.9985,104.1085081
0.999,102.5825361
0.9995,112.0435627
1,125.1669223
1.0005,130.0500328
1.001,118.1474509
1.0015,89.76437097
1.002,53.44623646
1.0025,18.95926839
1.003,-8.203033898
1.0035,-30.17703125
1.004,-52.15102861
1.0045,-77.17697004
1.005,-98.84577299
1.0055,-104.3392723
1.006,-88.77435753
1.0065,-62.83283288
1.007,-42.99519638
1.0075,-32.31339211
1.008,-23.46275428
1.0085,-13.08614442
1.009,-7.287450675
1.0095,-9.423811529
1.01,-13.69653324
1.0105,-15.22250527
1.011,-17.35886613
1.0115,-26.81989277
1.012,-42.69000197
1.0125,-59.17049998
1.013,-71.6834707
1.0135,-77.78735885
1.014,-75.95619241
1.0145,-68.02113781
1.015,-60.69647202
1.0155,-57.94972235
1.016,-53.98219505
1.0165,-38.11208585
1.017,-6.677061859
1.0175,30.25146147
1.018,60.77090224
1.0185,77.86178907
1.019,85.79684367
1.0195,89.45917657
1.02,90.37475979
1.0205,87.01762131
1.021,81.52412197
1.0215,77.86178907
1.022,72.97867855
1.0225,58.02415257
1.023,27.5047118
1.0235,-11.25497797
1.024,-45.13155723
1.0245,-66.49516577
1.025,-78.39774767
1.0255,-85.41721905
1.026,-86.63799668
1.0265,-78.70294208
1.027,-61.00166643
1.0275,-37.80689144
1.028,-14.00172764
1.0285,7.667075303
1.029,27.5047118
1.0295,44.90079304
1.03,55.58259731
1.0305,56.19298613
1.031,51.3098756
1.0315,49.78390357
1.032,55.2774029
1.0325,59.85531902
1.033,56.49818053
1.0335,48.56312593
1.034,42.76443219
1.0345,36.96573844
1.035,23.2319901
1.0355,2.478770372
1.036,-16.1380885
1.0365,-29.26144803
1.037,-41.16402993
1.0375,-53.67700065
1.038,-59.7808888
1.0385,-56.11855591
1.039,-50.01466775
1.0395,-49.09908453
1.04,-52.15102861
1.0405,-51.54063979
1.041,-44.52116841
1.0415,-32.61858651
1.042,-16.74847731
1.0425,3.394353595
1.043,25.36835095
1.0435,43.0696266
1.044,52.53065323
1.0445,53.75143087
1.045,48.25793153
1.0455,40.62807133
1.046,35.74496081
1.0465,33.91379437
1.047,31.1670447
1.0475,24.75796213
1.048,16.82290753
1.0485,9.193047341
1.049,1.257992741
1.0495,-6.982256267
1.05,-15.52769968
1.0505,-23.76794869
1.051,-34.14455855
1.0515,-46.04714045
1.052,-56.72894472
1.0525,-63.13802728
1.053,-65.27438814
1.0535,-63.13802728
1.054,-55.20297268
1.0545,-46.04714045
1.055,-42.38480756
1.0555,-46.35233486
1.056,-50.93025098
1.0565,-48.18350131
1.057,-39.33286348
1.0575,-31.70300329
1.058,-27.12508718
1.0585,-22.54717106
1.059,-17.66406054
1.0595,-12.78095001
1.06,-7.287450675
1.0605,-1.183562521
1.061,2.173575964
1.0615,0.03721511
1.062,-4.235506598
1.0625,-4.845895413
1.063,-2.099145744
1.0635,-1.488756928
1.064,-4.235506598
1.0645,-7.592645082
1.065,-9.423811529
1.0655,-12.1705612
1.066,-15.22250527
1.0665,-15.22250527
1.067,-11.56017238
1.0675,-5.761478636
1.068,0.03721511
1.0685,6.446297672
1.069,10.10863056
1.0695,6.75149208
1.07,1.563187149
1.0705,4.615131226
1.071,16.82290753
1.0715,25.06315654
1.072,19.5696572
1.0725,4.920325633
1.073,-3.93031219
1.0735,-2.709534559
1.074,2.783964779
1.0745,3.699548003
1.075,-3.319923375
1.0755,-14.00172764
1.076,-22.24197665
1.0765,-24.68353191
1.077,-24.98872632
1.0775,-27.73547599
1.078,-30.17703125
1.0785,-23.76794869
1.079,-6.982256267
1.0795,11.6346026
1.08,26.58912858
1.0805,40.32287693
1.081,58.32934698
1.0815,78.16698348
1.082,89.76437097
1.0825,87.93320453
1.083,72.06309533
1.0835,45.20598745
1.084,15.6021299
1.0845,-4.235506598
1.085,-8.203033898
1.0855,-3.319923375
1.086,-2.404340151
1.0865,-6.677061859
1.087,-9.729005936
1.0875,-9.118617121
1.088,-10.03420034
1.0885,-10.94978357
1.089,-4.540701005
1.0895,7.056686487
1.09,11.6346026
1.0905,4.615131226
1.091,-0.267979298
1.0915,11.02421379
1.092,33.60859996
1.0925,51.61507001
1.093,59.55012461
1.0935,64.73842954
1.094,71.45270651
1.0945,75.1150394
1.095,72.06309533
1.0955,65.95920717
1.096,60.46570784
1.0965,53.75143087
1.097,43.0696266
1.0975,30.86185029
1.098,19.5696572
1.0985,5.530714449
1.099,-13.69653324
1.0995,-36.89130822
1.1,-58.56011117
1.1005,-75.34580359
1.101,-85.41721905
1.1015,-86.63799668
1.102,-79.31333089
1.1025,-71.37827629
1.103,-69.54710985
1.1035,-71.98866511
1.104,-68.93672103
1.1045,-57.64452795
1.105,-45.43675164
1.1055,-38.72247467
1.106,-31.39780888
1.1065,-16.1380885
1.107,4.920325633
1.1075,21.40082365
1.108,27.80990621
1.1085,29.94626706
1.109,33.30340555
1.1095,37.88132167
1.11,40.93326574
1.1105,40.93326574
1.111,38.18651607
1.1115,32.38782233
1.112,26.28393417
1.1125,23.5371845
1.113,21.40082365
1.1135,14.07615786
1.114,2.478770372
1.1145,-4.235506598
1.115,-2.709534559
1.1155,-0.267979298
1.116,-3.625117782
1.1165,-9.729005936
1.117,-10.03420034
1.1175,-5.761478636
1.118,-4.540701005
1.1185,-7.89783949
1.119,-10.94978357
1.1195,-13.08614442
1.12,-19.49522698
1.1205,-30.48222566
1.121,-39.63805789
1.1215,-43.30039078
1.122,-44.21597401
1.1225,-44.82636282
1.123,-42.99519638
1.1235,-38.11208585
1.124,-34.44975296
1.1245,-35.06014178
1.125,-36.89130822
1.1255,-34.75494737
1.126,-28.34586481
1.1265,-20.1056158
1.127,-12.78095001
1.1275,-6.982256267
1.128,-4.845895413
1.1285,-5.761478636
1.129,-6.677061859
1.1295,-4.845895413
1.13,-1.183562521
1.1305,-0.267979298
1.131,-1.183562521
1.1315,-1.793951336
1.132,-1.183562521
1.1325,-0.878368113
1.133,-0.878368113
1.1335,-0.878368113
1.134,-1.183562521
1.1345,-3.014728967
1.135,-5.151089821
1.1355,-5.456284228
1.136,-4.540701005
1.1365,-4.235506598
1.137,-5.761478636
1.1375,-6.982256267
1.138,-6.982256267
1.1385,-5.761478636
1.139,-4.540701005
1.1395,-4.845895413
1.14,-6.677061859
1.1405,-9.423811529
1.141,-10.03420034
1.1415,-6.677061859
1.142,-0.267979298
1.1425,5.835908857
1.143,7.361880895
1.1435,4.00474241
1.144,-1.488756928
1.1445,-4.845895413
1.145,-3.625117782
1.1455,0.342409518
1.146,2.173575964
1.1465,1.257992741
1.147,0.342409518
1.1475,2.173575964
1.148,3.089159187
1.1485,-0.267979298
1.149,-5.761478636
1.1495,-7.287450675
1.15,-4.540701005
1.1505,-2.099145744
1.151,-2.404340151
1.1515,-2.099145744
1.152,1.868381556
1.1525,8.582658526
1.153,13.46576905
1.1535,13.46576905
1.154,10.10863056
1.1545,6.141103264
1.155,3.089159187
1.1555,0.342409518
1.156,-3.014728967
1.1565,-8.203033898
1.157,-13.08614442
1.1575,-16.74847731
1.158,-19.19003258
1.1585,-21.32639343
1.159,-23.46275428
1.1595,-24.37833751
1.16,-21.93678224
1.1605,-14.91731087
1.161,-3.319923375
1.1615,7.361880895
1.162,13.16057464
1.1625,14.99174109
1.163,18.04368516
1.1635,25.67354536
1.164,36.05015522
1.1645,49.17351475
1.165,66.8747904
1.1655,83.66048282
1.166,89.15398216
1.1665,78.47217789
1.167,60.16051343
1.1675,46.12157067
1.168,36.66054403
1.1685,27.5047118
1.169,18.65407398
1.1695,16.21251872
1.17,18.04368516
1.1705,15.2969355
1.171,4.615131226
1.1715,-6.066673044
1.172,-10.03420034
1.1725,-7.287450675
1.173,-1.488756928
1.1735,5.225520041
1.174,12.55018583
1.1745,13.77096346
1.175,2.173575964
1.1755,-18.88483817
1.176,-38.11208585
1.1765,-47.26791808
1.177,-51.54063979
1.1775,-57.94972235
1.178,-65.27438814
1.1785,-63.7484161
1.179,-50.31986216
1.1795,-33.83936414
1.18,-23.76794869
1.1805,-19.19003258
1.181,-14.61211646
1.1815,-9.729005936
1.182,-8.203033898
1.1825,-6.677061859
1.183,-0.267979298
1.1835,10.41382497
1.184,15.90732431
1.1845,13.16057464
1.185,5.835908857
1.1855,-0.267979298
1.186,-6.677061859
1.1865,-15.52769968
1.187,-23.76794869
1.1875,-26.20950395
1.188,-21.93678224
1.1885,-14.61211646
1.189,-8.813422713
1.1895,-6.066673044
1.19,-7.287450675
1.1905,-9.118617121
1.191,-7.287450675
1.1915,-1.793951336
1.192,2.478770372
1.1925,3.089159187
1.193,2.478770372
1.1935,3.699548003
1.194,5.835908857
1.1945,6.141103264
1.195,4.615131226
1.1955,4.309936818
1.196,4.920325633
1.1965,4.309936818
1.197,2.478770372
1.1975,0.952798333
1.198,1.563187149
1.1985,3.394353595
1.199,5.835908857
1.1995,8.582658526
1.2,10.10863056
1.2005,9.193047341
1.201,6.446297672
1.2015,4.309936818
1.202,3.699548003
1.2025,3.089159187
1.203,0.647603926
1.2035,-3.319923375
1.204,-8.203033898
1.2045,-13.69653324
1.205,-20.1056158
1.2055,-25.90430954
1.206,-29.87183684
1.2065,-32.61858651
1.207,-36.28091941
1.2075,-40.85883552
1.208,-44.21597401
1.2085,-44.21597401
1.209,-40.24844671
1.2095,-32.92378092
1.21,-24.0731431
1.2105,-15.52769968
1.211,-9.118617121
1.2115,-4.235506598
1.212,1.868381556
1.2125,10.10863056
1.213,18.95926839
1.2135,26.58912858
1.214,33.30340555
1.2145,39.4072937
1.215,43.0696266
1.2155,42.76443219
1.216,41.23846015
1.2165,40.62807133
1.217,39.71248811
1.2175,36.05015522
1.218,29.94626706
1.2185,23.5371845
1.219,18.34887957
1.2195,14.68654668
1.22,10.41382497
1.2205,2.478770372
1.221,-10.64458916
1.2215,-25.29392073
1.222,-30.17703125
1.2225,-19.49522698
1.223,-2.709534559
1.2235,5.225520041
1.224,0.342409518
1.2245,-7.592645082
1.225,-10.03420034
1.2255,-9.118617121
1.226,-10.03420034
1.2265,-11.86536679
1.227,-6.677061859
1.2275,6.141103264
1.228,20.79043483
1.2285,30.86185029
1.229,37.27093285
1.2295,43.68001541
1.23,50.69948679
1.2305,52.53065323
1.231,47.3423483
1.2315,37.27093285
1.232,27.5047118
1.2325,20.48524043
1.233,16.21251872
1.2335,14.07615786
1.234,11.3294082
1.2345,6.141103264
1.235,0.647603926
1.2355,1.563187149
1.236,11.02421379
1.2365,21.40082365
1.237,24.75796213
1.2375,24.14757332
1.238,32.38782233
1.2385,52.53065323
1.239,70.53712329
1.2395,71.75790092
1.24,57.71895817
1.2405,43.0696266
1.241,36.96573844
1.2415,36.05015522
1.242,33.60859996
1.2425,27.80990621
1.243,19.5696572
1.2435,8.582658526
1.244,-6.066673044
1.2445,-24.37833751
1.245,-46.35233486
1.2455,-71.98866511
1.246,-98.23538417
1.2465,-118.3782151
1.247,-127.5340473
1.2475,-125.7028809
1.248,-118.3782151
1.2485,-110.1379661
1.249,-103.1184947
1.2495,-96.70941213
1.25,-88.16396872
1.2505,-76.26138682
1.251,-64.35880491
1.2515,-56.42375031
1.252,-49.70947335
1.2525,-38.11208585
1.253,-19.80042139
1.2535,-0.878368113
1.254,13.16057464
1.2545,25.67354536
1.255,38.18651607
1.2555,45.51118186
1.256,41.23846015
1.2565,28.72548943
1.257,17.43329635
1.2575,13.46576905
1.258,13.77096346
1.2585,14.07615786
1.259,11.6346026
1.2595,6.141103264
1.26,-1.488756928
1.2605,-6.677061859
1.261,-5.761478636
1.2615,-0.878368113
1.262,1.868381556
1.2625,0.952798333
1.263,-1.793951336
1.2635,-5.456284228
1.264,-9.118617121
1.2645,-11.25497797
1.265,-9.729005936
1.2655,-6.677061859
1.266,-7.592645082
1.2665,-11.56017238
1.267,-12.47575561
1.2675,-7.287450675
1.268,-0.267979298
1.2685,5.225520041
1.269,9.498241749
1.2695,15.2969355
1.27,20.79043483
1.2705,25.97873976
1.271,32.99821114
1.2715,42.45923778
1.272,51.61507001
1.2725,58.02415257
1.273,63.51765191
1.2735,67.1799848
1.274,62.9072631
1.2745,47.0371539
1.275,26.28393417
1.2755,10.10863056
1.276,-0.267979298
1.2765,-8.813422713
1.277,-14.91731087
1.2775,-13.08614442
1.278,-5.456284228
1.2785,-0.267979298
1.279,-1.183562521
1.2795,-3.93031219
1.28,-4.845895413
1.2805,-6.066673044
1.281,-8.508228305
1.2815,-8.203033898
1.282,-1.488756928
1.2825,8.277464118
1.283,16.82290753
1.2835,20.18004602
1.284,19.87485161
1.2845,18.95926839
1.285,20.18004602
1.2855,22.62160128
1.286,22.31640687
1.2865,18.34887957
1.287,16.82290753
1.2875,23.84237891
1.288,35.74496081
1.2885,44.59559863
1.289,47.3423483
1.2895,47.64754271
1.29,50.69948679
1.2905,60.77090224
1.291,78.7773723
1.2915,98.00461998
1.292,105.6344802
1.2925,95.86825913
1.293,80.91373315
1.2935,79.99814993
1.294,94.03709268
1.2945,102.8877305
1.295,89.76437097
1.2955,60.77090224
1.296,32.38782233
1.2965,12.24499142
1.297,-1.488756928
1.2975,-11.25497797
1.298,-12.78095001
1.2985,-7.287450675
1.299,-5.151089821
1.2995,-14.00172764
1.3,-29.56664244
1.3005,-41.77441874
1.301,-48.48869571
1.3015,-55.20297268
1.302,-65.88477695
1.3025,-78.70294208
1.303,-89.99513516
1.3035,-103.1184947
1.304,-121.1249647
1.3045,-140.6574068
1.305,-154.6963496
1.3055,-158.3586825
1.306,-154.6963496
1.3065,-151.0340167
1.307,-150.4236279
1.3075,-145.5405174
1.308,-125.092492
1.3085,-87.24838549
1.309,-45.43675164
1.3095,-15.22250527
1.31,3.394353595
1.3105,23.5371845
1.311,49.78390357
1.3115,72.97867855
1.312,86.40723249
1.3125,95.86825913
1.313,110.2123963
1.3135,128.5240608
1.314,142.8681979
1.3145,149.5824749
1.315,148.0565028
1.3155,137.3746986
1.316,116.9266733
1.3165,90.06956538
1.317,58.02415257
1.3175,19.5696572
1.318,-20.41081021
1.3185,-51.23544538
1.319,-67.7159434
1.3195,-80.53410852
1.32,-101.2873282
1.3205,-124.7872976
1.321,-139.1314348
1.3215,-140.9626012
1.322,-138.521046
1.3225,-135.4691019
1.323,-130.280797
1.3235,-124.1769088
1.324,-119.2937983
1.3245,-112.8847157
1.325,-95.79382891
1.3255,-67.10555458
1.326,-35.975725
1.3265,-14.30692205
1.327,-5.151089821
1.3275,-5.456284228
1.328,-8.813422713
1.3285,-9.423811529
1.329,-5.151089821
1.3295,1.563187149
1.33,7.361880895
1.3305,10.10863056
1.331,11.93979701
1.3315,13.16057464
1.332,12.24499142
1.3325,10.71901938
1.333,9.193047341
1.3335,7.667075303
1.334,4.920325633
1.3345,3.394353595
1.335,6.446297672
1.3355,14.38135227
1.336,22.62160128
1.3365,26.58912858
1.337,25.67354536
1.3375,22.62160128
1.338,21.70601806
1.3385,25.97873976
1.339,34.21898877
1.3395,42.45923778
1.34,47.95273712
1.3405,50.69948679
1.341,52.22545883
1.3415,53.75143087
1.342,55.58259731
1.3425,56.49818053
1.343,54.66701409
1.3435,49.17351475
1.344,42.76443219
1.3445,38.49171048
1.345,36.66054403
1.3455,34.52418318
1.346,30.55665588
1.3465,24.14757332
1.347,13.77096346
1.3475,-1.183562521
1.348,-17.66406054
1.3485,-29.26144803
1.349,-32.92378092
1.3495,-31.39780888
1.35,-30.48222566
1.3505,-32.61858651
1.351,-36.89130822
1.3515,-36.89130822
1.352,-29.26144803
1.3525,-16.74847731
1.353,-4.845895413
1.3535,5.530714449
1.354,21.40082365
1.3545,43.0696266
1.355,62.60206869
1.3555,74.50465059
1.356,83.66048282
1.3565,98.00461998
1.357,113.5695348
1.3575,121.199395
1.358,119.0630341
1.3585,112.0435627
1.359,102.8877305
1.3595,89.15398216
1.36,73.58906737
1.3605,61.68648547
1.361,53.44623646
1.3615,42.45923778
1.362,25.67354536
1.3625,6.75149208
1.363,-13.69653324
1.3635,-37.80689144
1.364,-61.00166643
1.3645,-74.43022037
1.365,-77.78735885
1.3655,-81.14449734
1.366,-88.16396872
1.3665,-89.68994075
1.367,-78.09255326
1.3675,-61.00166643
1.368,-50.01466775
1.3685,-45.74194605
1.369,-41.46922434
1.3695,-36.89130822
1.37,-36.89130822
1.3705,-42.38480756
1.371,-47.57311249
1.3715,-50.93025098
1.372,-53.37180624
1.3725,-53.98219505
1.373,-49.09908453
1.3735,-36.89130822
1.374,-19.80042139
1.3745,-2.099145744
1.375,11.3294082
1.3755,16.82290753
1.376,15.2969355
1.3765,16.21251872
1.377,27.1995174
1.3775,43.98520982
1.378,54.36181968
1.3785,52.83584764
1.379,46.42676508
1.3795,42.45923778
1.38,41.54365456
1.3805,38.18651607
1.381,30.86185029
1.3815,22.31640687
1.382,13.77096346
1.3825,1.868381556
1.383,-15.52769968
1.3835,-32.92378092
1.384,-40.24844671
1.3845,-35.67053059
1.385,-26.51469836
1.3855,-21.32639343
1.386,-19.80042139
1.3865,-17.96925494
1.387,-16.1380885
1.3875,-18.27444935
1.388,-23.15755988
1.3885,-25.90430954
1.389,-24.68353191
1.3895,-21.93678224
1.39,-17.35886613
1.3905,-6.677061859
1.391,8.582658526
1.3915,17.43329635
1.392,10.41382497
1.3925,-8.813422713
1.393,-26.81989277
1.3935,-33.53416974
1.394,-29.87183684
1.3945,-21.93678224
1.395,-13.08614442
1.3955,-3.93031219
1.396,4.615131226
1.3965,11.93979701
1.397,17.73849076
1.3975,23.5371845
1.398,29.03068384
1.3985,30.86185029
1.399,27.5047118
1.3995,22.92679569
1.4,23.2319901
1.4005,29.03068384
1.401,36.66054403
1.4015,41.54365456
1.402,43.98520982
1.4025,43.98520982
1.403,40.62807133
1.4035,35.74496081
1.404,33.30340555
1.4045,35.134572
1.405,37.57612726
1.4055,36.35534963
1.406,31.1670447
1.4065,25.67354536
1.407,22.62160128
1.4075,21.70601806
1.408,21.09562924
1.4085,16.21251872
1.409,6.141103264
1.4095,-5.151089821
1.41,-12.47575561
1.4105,-16.1380885
1.411,-24.98872632
1.4115,-44.21597401
1.412,-68.02113781
1.4125,-86.02760786
1.413,-93.65746805
1.4135,-94.57305128
1.414,-91.21591279
1.4145,-82.67046938
1.415,-67.41074899
1.4155,-48.79389012
1.416,-31.09261448
1.4165,-17.35886613
1.417,-8.508228305
1.4175,-1.488756928
1.418,7.361880895
1.4185,17.43329635
1.419,22.31640687
1.4195,18.95926839
1.42,10.71901938
1.4205,4.615131226
1.421,2.783964779
1.4215,3.699548003
1.422,5.835908857
1.4225,8.277464118
1.423,8.277464118
1.4235,4.00474241
1.424,0.342409518
1.4245,3.699548003
1.425,13.77096346
1.4255,21.70601806
1.426,21.40082365
1.4265,14.99174109
1.427,7.97226971
1.4275,1.563187149
1.428,-6.371867452
1.4285,-15.22250527
1.429,-19.49522698
1.4295,-17.05367172
1.43,-12.1705612
1.4305,-10.33939475
1.431,-11.25497797
1.4315,-10.03420034
1.432,-3.625117782
1.4325,1.563187149
1.433,1.257992741
1.4335,-2.709534559
1.434,-3.625117782
1.4345,-0.267979298
1.435,4.615131226
1.4355,11.02421379
1.436,24.45276773
1.4365,44.90079304
1.437,64.43323514
1.4375,76.94620585
1.438,85.18645486
1.4385,93.42670387
1.439,100.4461752
1.4395,102.5825361
1.44,100.4461752
1.4405,97.69942557
1.441,92.81631505
1.4415,84.88126045
1.442,74.19945618
1.4425,59.55012461
1.443,35.4397664
1.4435,-0.267979298
1.444,-39.02766908
1.4445,-71.37827629
1.445,-97.93018976
1.4455,-126.9236585
1.446,-159.2742657
1.4465,-185.2157904
1.447,-196.5079834
1.4475,-192.5404561
1.448,-179.4170966
1.4485,-165.3781539
1.449,-156.527516
1.4495,-150.7288223
1.45,-135.7742963
1.4505,-104.6444667
1.451,-64.96919373
1.4515,-31.39780888
1.452,-7.287450675
1.4525,15.2969355
1.453,38.18651607
1.4535,53.75143087
1.454,58.9397358
1.4545,60.77090224
1.455,67.1799848
1.4555,76.03062263
1.456,79.69295552
1.4565,75.72542822
1.457,67.48517921
1.4575,56.49818053
1.458,43.98520982
1.4585,32.38782233
1.459,24.75796213
1.4595,20.79043483
1.46,16.21251872
1.4605,7.97226971
1.461,-0.878368113
1.4615,-5.151089821
1.462,-3.014728967
1.4625,-1.183562521
1.463,-6.982256267
1.4635,-19.49522698
1.464,-29.26144803
1.4645,-30.78742007
1.465,-26.51469836
1.4655,-21.63158784
1.466,-17.05367172
1.4665,-12.1705612
1.467,-8.813422713
1.4675,-7.592645082
1.468,-6.066673044
1.4685,-3.014728967
1.469,-2.709534559
1.4695,-6.066673044
1.47,-7.89783949
1.4705,-2.404340151
1.471,7.97226971
1.4715,18.04368516
1.472,24.14757332
1.4725,26.58912858
1.473,24.75796213
1.4735,19.2644628
1.474,15.2969355
1.4745,17.12810194
1.475,23.5371845
1.4755,28.42029503
1.476,30.55665588
1.4765,31.77743351
1.477,33.60859996
1.4775,34.82937759
1.478,35.134572
1.4785,34.52418318
1.479,31.77743351
1.4795,27.80990621
1.48,25.67354536
1.4805,28.42029503
1.481,32.99821114
1.4815,34.82937759
1.482,33.91379437
1.4825,35.4397664
1.483,40.93326574
1.4835,49.17351475
1.484,58.63454139
1.4845,68.09556803
1.485,73.58906737
1.4855,71.75790092
1.486,64.73842954
1.4865,59.55012461
1.487,60.46570784
1.4875,64.73842954
1.488,64.12804073
1.4885,50.39429238
1.489,21.09562924
1.4895,-12.78095001
1.49,-35.975725
1.4905,-45.13155723
1.491,-53.67700065
1.4915,-70.15749866
1.492,-83.5860526
1.4925,-80.53410852
1.493,-68.63152662
1.4935,-67.41074899
1.494,-80.22891412
1.4945,-91.5211072
1.495,-92.43669042
1.4955,-90.30032957
1.496,-91.82630161
1.4965,-89.68994075
1.497,-78.70294208
1.4975,-66.49516577
1.498,-62.22244406
1.4985,-59.7808888
1.499,-50.62505657
1.4995,-37.80689144
1.5,-32.0081977
1.5005,-34.44975296
1.501,-35.36533618
1.5015,-28.95625362
1.502,-19.80042139
1.5025,-14.30692205
1.503,-9.729005936
1.5035,-0.878368113
1.504,12.24499142
1.5045,24.45276773
1.505,31.4722391
1.5055,34.52418318
1.506,36.05015522
1.5065,37.27093285
1.507,36.05015522
1.5075,32.69301673
1.508,29.94626706
1.5085,31.77743351
1.509,38.18651607
1.5095,45.20598745
1.51,48.25793153
1.5105,45.81637627
1.511,39.71248811
1.5115,32.69301673
1.512,26.28393417
1.5125,20.48524043
1.513,15.90732431
1.5135,13.16057464
1.514,12.85538023
1.5145,13.46576905
1.515,12.55018583
1.5155,9.193047341
1.516,4.00474241
1.5165,0.03721511
1.517,-0.267979298
1.5175,4.00474241
1.518,10.41382497
1.5185,12.85538023
1.519,9.803436157
1.5195,4.920325633
1.52,2.783964779
1.5205,2.173575964
1.521,0.952798333
1.5215,-0.267979298
1.522,0.342409518
1.5225,1.257992741
1.523,-1.183562521
1.5235,-6.677061859
1.524,-8.203033898
1.5245,-3.93031219
1.525,2.173575964
1.5255,6.75149208
1.526,8.277464118
1.5265,7.361880895
1.527,4.00474241
1.5275,0.342409518
1.528,-0.878368113
1.5285,-0.267979298
1.529,-0.267979298
1.5295,0.342409518
1.53,1.868381556
1.5305,3.089159187
1.531,1.257992741
1.5315,-3.93031219
1.532,-13.39133883
1.5325,-25.90430954
1.533,-38.11208585
1.5335,-44.21597401
1.534,-41.46922434
1.5345,-34.75494737
1.535,-29.56664244
1.5355,-25.90430954
1.536,-19.80042139
1.5365,-10.64458916
1.537,-2.404340151
1.5375,2.173575964
1.538,3.699548003
1.5385,2.173575964
1.539,0.952798333
1.5395,5.835908857
1.54,17.12810194
1.5405,27.5047118
1.541,29.64107266
1.5415,25.67354536
1.542,22.62160128
1.5425,20.79043483
1.543,15.6021299
1.5435,6.446297672
1.544,-0.267979298
1.5445,-1.793951336
1.545,-1.183562521
1.5455,-1.488756928
1.546,-2.404340151
1.5465,-4.235506598
1.547,-6.982256267
1.5475,-10.03420034
1.548,-10.94978357
1.5485,-10.03420034
1.549,-9.423811529
1.5495,-10.33939475
1.55,-10.33939475
1.5505,-8.203033898
1.551,-5.456284228
1.5515,-5.456284228
1.552,-7.89783949
1.5525,-10.94978357
1.553,-13.39133883
1.5535,-15.52769968
1.554,-18.57964376
1.5545,-21.63158784
1.555,-18.88483817
1.5555,-5.456284228
1.556,12.55018583
1.5565,24.45276773
1.557,22.31640687
1.5575,12.24499142
1.558,6.141103264
1.5585,9.193047341
1.559,18.34887957
1.5595,28.42029503
1.56,37.27093285
1.5605,44.90079304
1.561,50.08909797
1.5615,51.3098756
1.562,47.0371539
1.5625,39.4072937
1.563,31.77743351
1.5635,29.03068384
1.564,29.94626706
1.5645,29.64107266
1.565,23.2319901
1.5655,13.16057464
1.566,2.478770372
1.5665,-8.203033898
1.567,-21.32639343
1.5675,-35.06014178
1.568,-45.74194605
1.5685,-52.76141742
1.569,-58.56011117
1.5695,-65.88477695
1.57,-72.59905392
1.5705,-74.73541478
1.571,-70.15749866
1.5715,-60.69647202
1.572,-51.23544538
1.5725,-46.65752927
1.573,-46.96272368
1.5735,-45.13155723
1.574,-33.83936414
1.5745,-11.86536679
1.575,12.85538023
1.5755,31.1670447
1.576,39.71248811
1.5765,43.68001541
1.577,47.3423483
1.5775,50.69948679
1.578,51.0046812
1.5785,48.86832034
1.579,45.20598745
1.5795,40.01768252
1.58,32.38782233
1.5805,25.36835095
1.581,22.31640687
1.5815,20.18004602
1.582,10.10863056
1.5825,-9.423811529
1.583,-29.26144803
1.5835,-37.19650263
1.584,-33.83936414
1.5845,-28.65105921
1.585,-26.81989277
1.5855,-24.68353191
1.586,-21.32639343
1.5865,-20.71600461
1.587,-25.29392073
1.5875,-30.78742007
1.588,-32.61858651
1.5885,-32.61858651
1.589,-32.61858651
1.5895,-29.87183684
1.59,-19.80042139
1.5905,-6.066673044
1.591,2.783964779
1.5915,3.394353595
1.592,0.647603926
1.5925,-0.267979298
1.593,0.03721511
1.5935,-1.488756928
1.594,-5.456284228
1.5945,-7.89783949
1.595,-5.761478636
1.5955,-2.404340151
1.596,-3.319923375
1.5965,-10.03420034
1.597,-16.74847731
1.5975,-16.1380885
1.598,-8.203033898
1.5985,0.952798333
1.599,4.615131226
1.5995,4.00474241
1.6,5.835908857
1.6005,14.99174109
1.601,29.03068384
1.6015,41.23846015
1.602,46.42676508
1.6025,46.12157067
1.603,47.0371539
1.6035,52.83584764
1.604,61.99167987
1.6045,70.23192888
1.605,75.42023381
1.6055,78.47217789
1.606,79.69295552
1.6065,76.03062263
1.607,64.73842954
1.6075,47.0371539
1.608,28.72548943
1.6085,15.90732431
1.609,8.277464118
1.6095,-0.267979298
1.61,-15.22250527
1.6105,-33.83936414
1.611,-48.79389012
1.6115,-56.72894472
1.612,-61.00166643
1.6125,-64.35880491
1.613,-66.80036018
1.6135,-66.80036018
1.614,-63.7484161
1.6145,-57.03413913
1.615,-46.04714045
1.6155,-35.975725
1.616,-34.14455855
1.6165,-41.16402993
1.617,-49.09908453
1.6175,-49.09908453
1.618,-40.55364111
1.6185,-30.78742007
1.619,-23.76794869
1.6195,-19.49522698
1.62,-13.69653324
1.6205,-3.625117782
1.621,8.887852934
1.6215,16.51771313
1.622,11.93979701
1.6225,-0.878368113
1.623,-12.78095001
1.6235,-18.88483817
1.624,-23.76794869
1.6245,-29.87183684
1.625,-33.83936414
1.6255,-34.75494737
1.626,-37.50169704
1.6265,-44.21597401
1.627,-49.40427894
1.6275,-47.57311249
1.628,-42.69000197
1.6285,-39.9432523
1.629,-38.72247467
1.6295,-34.14455855
1.63,-27.73547599
1.6305,-22.85236547
1.631,-20.1056158
1.6315,-15.83289409
1.632,-9.729005936
1.6325,-3.93031219
1.633,0.342409518
1.6335,6.141103264
1.634,15.2969355
1.6345,25.97873976
1.635,36.35534963
1.6355,44.59559863
1.636,49.78390357
1.6365,50.39429238
1.637,47.0371539
1.6375,41.54365456
1.638,37.88132167
1.6385,37.88132167
1.639,41.54365456
1.6395,44.90079304
1.64,44.59559863
1.6405,40.01768252
1.641,34.21898877
1.6415,30.86185029
1.642,31.1670447
1.6425,33.30340555
1.643,34.21898877
1.6435,31.4722391
1.644,23.2319901
1.6445,10.71901938
1.645,-2.404340151
1.6455,-13.08614442
1.646,-21.63158784
1.6465,-29.56664244
1.647,-36.89130822
1.6475,-39.9432523
1.648,-36.89130822
1.6485,-28.95625362
1.649,-20.1056158
1.6495,-12.47575561
1.65,-5.151089821
1.6505,3.699548003
1.651,16.21251872
1.6515,29.94626706
1.652,41.54365456
1.6525,48.25793153
1.653,51.61507001
1.6535,55.58259731
1.654,61.07609665
1.6545,64.43323514
1.655,62.29687428
1.6555,56.80337494
1.656,53.75143087
1.6565,54.66701409
1.657,57.10856935
1.6575,58.32934698
1.658,57.71895817
1.6585,55.58259731
1.659,48.56312593
1.6595,34.82937759
1.66,17.43329635
1.6605,1.868381556
1.661,-9.423811529
1.6615,-17.96925494
1.662,-22.85236547
1.6625,-24.98872632
1.663,-26.51469836
1.6635,-30.78742007
1.664,-35.67053059
1.6645,-38.11208585
1.665,-38.11208585
1.6655,-38.72247467
1.666,-39.33286348
1.6665,-34.75494737
1.667,-24.68353191
1.6675,-14.91731087
1.668,-7.89783949
1.6685,-1.488756928
1.669,5.530714449
1.6695,9.193047341
1.67,7.97226971
1.6705,7.667075303
1.671,11.6346026
1.6715,13.46576905
1.672,5.530714449
1.6725,-6.371867452
1.673,-11.86536679
1.6735,-10.94978357
1.674,-12.78095001
1.6745,-18.88483817
1.675,-20.1056158
1.6755,-14.30692205
1.676,-12.47575561
1.6765,-21.02119902
1.677,-31.70300329
1.6775,-33.22897533
1.678,-28.34586481
1.6785,-25.59911514
1.679,-24.68353191
1.6795,-19.49522698
1.68,-9.423811529
1.6805,-0.573173705
1.681,2.783964779
1.6815,4.615131226
1.682,6.75149208
1.6825,7.97226971
1.683,6.75149208
1.6835,5.225520041
1.684,3.394353595
1.6845,1.257992741
1.685,-1.183562521
1.6855,-3.319923375
1.686,-3.625117782
1.6865,-1.488756928
1.687,0.952798333
1.6875,0.03721511
1.688,-8.508228305
1.6885,-21.63158784
1.689,-29.87183684
1.6895,-29.87183684
1.69,-27.12508718
1.6905,-28.0406704
1.691,-30.78742007
1.6915,-32.31339211
1.692,-34.75494737
1.6925,-40.24844671
1.693,-43.60558519
1.6935,-39.02766908
1.694,-31.09261448
1.6945,-28.65105921
1.695,-30.17703125
1.6955,-26.81989277
1.696,-16.44328291
1.6965,-6.066673044
1.697,1.257992741
1.6975,9.193047341
1.698,18.04368516
1.6985,22.92679569
1.699,22.62160128
1.6995,22.92679569
1.7,26.28393417
1.7005,26.89432299
1.701,21.09562924
1.7015,14.99174109
1.702,13.16057464
1.7025,13.46576905
1.703,12.24499142
1.7035,12.85538023
1.704,17.43329635
1.7045,21.70601806
1.705,21.40082365
1.7055,19.2644628
1.706,20.18004602
1.7065,22.92679569
1.707,23.84237891
1.7075,22.31640687
1.708,22.01121246
1.7085,22.62160128
1.709,23.5371845
1.7095,25.97873976
1.71,27.80990621
1.7105,24.14757332
1.711,14.07615786
1.7115,7.056686487
1.712,10.10863056
1.7125,18.34887957
1.713,22.62160128
1.7135,22.92679569
1.714,25.36835095
1.7145,29.33587825
1.715,27.1995174
1.7155,16.82290753
1.716,4.309936818
1.7165,-4.540701005
1.717,-9.729005936
1.7175,-10.03420034
1.718,-3.014728967
1.7185,7.667075303
1.719,14.07615786
1.7195,12.55018583
1.72,7.97226971
1.7205,6.75149208
1.721,7.97226971
1.7215,8.582658526
1.722,9.193047341
1.7225,11.6346026
1.723,13.77096346
1.7235,13.16057464
1.724,10.10863056
1.7245,7.97226971
1.725,5.835908857
1.7255,0.03721511
1.726,-7.592645082
1.7265,-10.03420034
1.727,-2.404340151
1.7275,7.97226971
1.728,10.71901938
1.7285,3.699548003
1.729,-3.319923375
1.7295,-4.235506598
1.73,-2.709534559
1.7305,-6.371867452
1.731,-14.91731087
1.7315,-21.93678224
1.732,-23.76794869
1.7325,-21.32639343
1.733,-15.22250527
1.7335,-6.371867452
1.734,1.563187149
1.7345,5.835908857
1.735,8.887852934
1.7355,14.99174109
1.736,21.40082365
1.7365,20.79043483
1.737,12.55018583
1.7375,4.615131226
1.738,1.868381556
1.7385,0.342409518
1.739,-5.151089821
1.7395,-13.39133883
1.74,-19.80042139
1.7405,-25.29392073
1.741,-33.83936414
1.7415,-44.82636282
1.742,-53.37180624
1.7425,-56.42375031
1.743,-55.50816709
1.7435,-53.67700065
1.744,-52.76141742
1.7445,-53.06661183
1.745,-53.67700065
1.7455,-52.45622301
1.746,-48.48869571
1.7465,-43.60558519
1.747,-38.72247467
1.7475,-34.44975296
1.748,-30.17703125
1.7485,-28.34586481
1.749,-28.95625362
1.7495,-28.0406704
1.75,-21.02119902
1.7505,-8.813422713
1.751,2.783964779
1.7515,9.803436157
1.752,14.38135227
1.7525,19.2644628
1.753,24.45276773
1.7535,27.80990621
1.754,29.94626706
1.7545,33.30340555
1.755,37.27093285
1.7555,39.1020993
1.756,39.1020993
1.7565,40.62807133
1.757,43.374821
1.7575,43.374821
1.758,39.1020993
1.7585,34.52418318
1.759,33.91379437
1.7595,34.21898877
1.76,31.77743351
1.7605,26.58912858
1.761,22.62160128
1.7615,21.09562924
1.762,20.79043483
1.7625,21.40082365
1.763,22.01121246
1.7635,20.18004602
1.764,14.07615786
1.7645,6.141103264
1.765,0.03721511
1.7655,-3.625117782
1.766,-8.203033898
1.7665,-13.69653324
1.767,-19.19003258
1.7675,-25.29392073
1.768,-32.61858651
1.7685,-39.02766908
1.769,-42.99519638
1.7695,-45.43675164
1.77,-49.40427894
1.7705,-52.76141742
1.771,-51.23544538
1.7715,-44.52116841
1.772,-37.50169704
1.7725,-33.53416974
1.773,-29.87183684
1.7735,-22.54717106
1.774,-12.47575561
1.7745,-2.709534559
1.775,4.920325633
1.7755,10.41382497
1.776,15.2969355
1.7765,22.92679569
1.777,33.91379437
1.7775,44.90079304
1.778,51.0046812
1.7785,51.61507001
1.779,51.3098756
1.7795,53.14104205
1.78,54.9722085
1.7805,55.88779172
1.781,55.88779172
1.7815,55.58259731
1.782,52.83584764
1.7825,46.12157067
1.783,38.18651607
1.7835,31.1670447
1.784,25.06315654
1.7845,20.18004602
1.785,16.51771313
1.7855,13.46576905
1.786,8.277464118
1.7865,-0.573173705
1.787,-12.47575561
1.7875,-23.76794869
1.788,-32.92378092
1.7885,-38.72247467
1.789,-40.85883552
1.7895,-42.07961315
1.79,-45.13155723
1.7905,-48.79389012
1.791,-48.48869571
1.7915,-44.52116841
1.792,-40.55364111
1.7925,-39.9432523
1.793,-38.72247467
1.7935,-32.31339211
1.794,-21.93678224
1.7945,-11.86536679
1.795,-4.540701005
1.7955,-0.573173705
1.796,0.952798333
1.7965,2.478770372
1.797,5.225520041
1.7975,7.97226971
1.798,8.887852934
1.7985,9.498241749
1.799,14.99174109
1.7995,25.36835095
1.8,32.69301673
1.8005,30.25146147
1.801,19.87485161
1.8015,9.193047341
1.802,1.563187149
1.8025,-5.151089821
1.803,-14.00172764
1.8035,-23.46275428
1.804,-31.09261448
1.8045,-35.06014178
1.805,-35.06014178
1.8055,-32.92378092
1.806,-30.48222566
1.8065,-29.26144803
1.807,-27.43028158
1.8075,-23.76794869
1.808,-18.57964376
1.8085,-13.69653324
1.809,-10.03420034
1.8095,-6.982256267
1.81,-3.319923375
1.8105,1.868381556
1.811,9.498241749
1.8115,16.51771313
1.812,21.09562924
1.8125,23.5371845
1.813,24.75796213
1.8135,23.2319901
1.814,18.65407398
1.8145,14.68654668
1.815,16.21251872
1.8155,22.01121246
1.816,25.06315654
1.8165,22.62160128
1.817,19.2644628
1.8175,18.34887957
1.818,16.51771313
1.8185,8.582658526
1.819,-3.625117782
1.8195,-14.61211646
1.82,-21.63158784
1.8205,-25.29392073
1.821,-24.68353191
1.8215,-19.80042139
1.822,-15.83289409
1.8225,-17.96925494
1.823,-22.54717106
1.8235,-20.41081021
1.824,-8.508228305
1.8245,2.783964779
1.825,7.97226971
1.8255,10.41382497
1.826,17.12810194
1.8265,27.1995174
1.827,36.66054403
1.8275,46.12157067
1.828,56.49818053
1.8285,59.85531902
1.829,46.73195949
1.8295,19.2644628
1.83,-8.203033898
1.8305,-28.0406704
1.831,-41.46922434
1.8315,-52.76141742
1.832,-59.47569439
1.8325,-61.91724965
1.833,-64.35880491
1.8335,-69.24191544
1.834,-71.6834707
1.8345,-69.24191544
1.835,-66.18997136
1.8355,-63.13802728
1.836,-53.37180624
1.8365,-32.61858651
1.837,-8.508228305
1.8375,6.75149208
1.838,11.93979701
1.8385,15.6021299
1.839,23.84237891
1.8395,33.91379437
1.84,42.45923778
1.8405,50.08909797
1.841,56.80337494
1.8415,58.9397358
1.842,54.05662527
1.8425,47.0371539
1.843,46.12157067
1.8435,51.61507001
1.844,54.05662527
1.8445,44.90079304
1.845,24.45276773
1.8455,4.615131226
1.846,-4.235506598
1.8465,-4.235506598
1.847,-4.235506598
1.8475,-9.118617121
1.848,-13.08614442
1.8485,-11.25497797
1.849,-6.371867452
1.8495,-4.540701005
1.85,-8.508228305
1.8505,-16.1380885
1.851,-26.51469836
1.8515,-37.80689144
1.852,-46.04714045
1.8525,-48.79389012
1.853,-49.40427894
1.8535,-51.23544538
1.854,-47.8783069
1.8545,-32.0081977
1.855,-7.89783949
1.8555,8.277464118
1.856,11.6346026
1.8565,11.3294082
1.857,14.68654668
1.8575,18.95926839
1.858,17.12810194
1.8585,12.55018583
1.859,11.93979701
1.8595,14.38135227
1.86,14.07615786
1.8605,9.498241749
1.861,4.00474241
1.8615,0.03721511
1.862,-3.014728967
1.8625,-6.982256267
1.863,-12.78095001
1.8635,-21.02119902
1.864,-28.0406704
1.8645,-30.48222566
1.865,-28.65105921
1.8655,-26.51469836
1.866,-24.98872632
1.8665,-20.41081021
1.867,-14.00172764
1.8675,-11.25497797
1.868,-11.56017238
1.8685,-7.592645082
1.869,2.173575964
1.8695,10.10863056
1.87,11.6346026
1.8705,13.46576905
1.871,21.70601806
1.8715,32.38782233
1.872,37.57612726
1.8725,38.18651607
1.873,38.79690489
1.8735,40.62807133
1.874,42.45923778
1.8745,47.3423483
1.875,56.49818053
1.8755,65.04362395
1.876,69.62154007
1.8765,72.97867855
1.877,74.19945618
1.8775,66.56959599
1.878,49.47870916
1.8785,35.134572
1.879,30.86185029
1.8795,28.72548943
1.88,16.51771313
1.8805,-1.183562521
1.881,-13.08614442
1.8815,-19.80042139
1.882,-30.17703125
1.8825,-44.21597401
1.883,-52.76141742
1.8835,-54.28738946
1.884,-54.89777828
1.8845,-54.59258387
1.885,-50.01466775
1.8855,-44.82636282
1.886,-49.40427894
1.8865,-62.52763847
1.887,-72.90424833
1.8875,-75.34580359
1.888,-74.43022037
1.8885,-71.37827629
1.889,-57.94972235
1.8895,-33.83936414
1.89,-12.78095001
1.8905,-7.287450675
1.891,-12.47575561
1.8915,-16.74847731
1.892,-17.66406054
1.8925,-18.57964376
1.893,-19.49522698
1.8935,-17.05367172
1.894,-12.78095001
1.8945,-9.729005936
1.895,-7.592645082
1.8955,-4.540701005
1.896,-2.709534559
1.8965,-2.099145744
1.897,0.952798333
1.8975,11.3294082
1.898,22.92679569
1.8985,27.80990621
1.899,25.97873976
1.8995,25.97873976
1.9,31.4722391
1.9005,39.4072937
1.901,45.51118186
1.9015,49.17351475
1.902,52.22545883
1.9025,53.44623646
1.903,53.75143087
1.9035,54.05662527
1.904,55.2774029
1.9045,56.49818053
1.905,57.71895817
1.9055,60.77090224
1.906,63.51765191
1.9065,61.07609665
1.907,50.69948679
1.9075,37.27093285
1.908,26.28393417
1.9085,19.87485161
1.909,15.2969355
1.9095,10.41382497
1.91,4.615131226
1.9105,-3.625117782
1.911,-16.44328291
1.9115,-29.56664244
1.912,-36.89130822
1.9125,-35.975725
1.913,-32.0081977
1.9135,-32.0081977
1.914,-37.19650263
1.9145,-43.30039078
1.915,-46.96272368
1.9155,-49.09908453
1.916,-50.93025098
1.9165,-53.06661183
1.917,-53.98219505
1.9175,-53.98219505
1.918,-52.76141742
1.9185,-49.09908453
1.919,-42.38480756
1.9195,-35.06014178
1.92,-29.56664244
1.9205,-26.20950395
1.921,-23.46275428
1.9215,-20.1056158
1.922,-17.05367172
1.9225,-14.00172764
1.923,-8.813422713
1.9235,-2.404340151
1.924,2.478770372
1.9245,4.920325633
1.925,4.920325633
1.9255,4.309936818
1.926,5.225520041
1.9265,7.97226971
1.927,11.3294082
1.9275,13.46576905
1.928,13.16057464
1.9285,12.85538023
1.929,17.43329635
1.9295,26.28393417
1.93,33.30340555
1.9305,33.30340555
1.931,27.5047118
1.9315,21.40082365
1.932,17.73849076
1.9325,13.77096346
1.933,7.667075303
1.9335,1.868381556
1.934,0.952798333
1.9345,5.835908857
1.935,12.55018583
1.9355,17.73849076
1.936,21.09562924
1.9365,23.5371845
1.937,26.28393417
1.9375,29.03068384
1.938,30.86185029
1.9385,30.86185029
1.939,29.64107266
1.9395,29.33587825
1.94,30.25146147
1.9405,31.4722391
1.941,32.08262792
1.9415,31.4722391
1.942,30.25146147
1.9425,29.33587825
1.943,29.03068384
1.9435,28.42029503
1.944,25.06315654
1.9445,17.43329635
1.945,9.193047341
1.9455,7.056686487
1.946,11.6346026
1.9465,15.90732431
1.947,14.07615786
1.9475,12.24499142
1.948,21.09562924
1.9485,40.32287693
1.949,58.63454139
1.9495,66.56959599
1.95,67.1799848
1.9505,65.95920717
1.951,63.2124575
1.9515,57.10856935
1.952,48.25793153
1.9525,37.57612726
1.953,22.31640687
1.9535,1.563187149
1.954,-20.41081021
1.9545,-37.80689144
1.955,-52.15102861
1.9555,-69.85230425
1.956,-93.04707924
1.9565,-113.800299
1.957,-123.8717144
1.9575,-121.4301592
1.958,-114.1054934
1.9585,-110.1379661
1.959,-109.8327717
1.9595,-106.4756332
1.96,-95.4886345
1.9605,-79.6185253
1.961,-66.18997136
1.9615,-57.94972235
1.962,-51.54063979
1.9625,-43.9107796
1.963,-35.06014178
1.9635,-27.43028158
1.964,-19.80042139
1.9645,-10.64458916
1.965,-1.793951336
1.9655,1.257992741
1.966,-1.793951336
1.9665,-7.287450675
1.967,-9.729005936
1.9675,-9.118617121
1.968,-9.423811529
1.9685,-13.39133883
1.969,-19.19003258
1.9695,-22.24197665
1.97,-19.19003258
1.9705,-11.56017238
1.971,-4.540701005
1.9715,-0.878368113
1.972,0.647603926
1.9725,6.75149208
1.973,21.70601806
1.9735,44.29040423
1.974,67.79037362
1.9745,87.93320453
1.975,102.5825361
1.9755,111.1279795
1.976,112.6539516
1.9765,108.3812298
1.977,103.4981193
1.9775,102.2773417
1.978,104.718897
1.9785,106.8552578
1.979,105.6344802
1.9795,100.1409808
1.98,88.54359334
1.9805,71.1475121
1.981,51.92026442
1.9815,37.57612726
1.982,28.11510062
1.9825,16.82290753
1.983,-2.099145744
1.9835,-26.20950395
1.984,-48.48869571
1.9845,-67.41074899
1.985,-85.11202464
1.9855,-101.8977171
1.986,-113.4951046
1.9865,-117.7678263
1.987,-115.6314654
1.9875,-109.5275773
1.988,-101.8977171
1.9885,-94.26785687
1.989,-86.63799668
1.9895,-77.78735885
1.99,-67.7159434
1.9905,-58.56011117
1.991,-52.15102861
1.9915,-47.57311249
1.992,-42.99519638
1.9925,-37.19650263
1.993,-30.17703125
1.9935,-21.32639343
1.994,-12.47575561
1.9945,-5.151089821
1.995,-0.878368113
1.9955,1.868381556
1.996,4.615131226
1.9965,4.00474241
1.997,-0.878368113
1.9975,-6.066673044
1.998,-4.235506598
1.9985,5.225520041
1.999,18.34887957
1.9995,27.80990621
2,29.94626706
2.0005,25.36835095
2.001,18.34887957
2.0015,14.07615786
2.002,13.46576905
2.0025,11.93979701
2.003,6.141103264
2.0035,-2.709534559
2.004,-11.25497797
2.0045,-17.96925494
2.005,-20.41081021
2.0055,-14.91731087
2.006,-1.793951336
2.0065,11.02421379
2.007,15.2969355
2.0075,11.93979701
2.008,9.193047341
2.0085,12.24499142
2.009,18.65407398
2.0095,25.67354536
2.01,33.60859996
2.0105,45.51118186
2.011,60.46570784
2.0115,73.89426177
2.012,79.0825667
2.0125,72.36828974
2.013,58.02415257
2.0135,45.81637627
2.014,42.15404337
2.0145,43.68001541
2.015,43.0696266
2.0155,36.35534963
2.016,25.36835095
2.0165,11.02421379
2.017,-8.508228305
2.0175,-32.0081977
2.018,-52.15102861
2.0185,-61.00166643
2.019,-56.42375031
2.0195,-43.9107796
2.02,-30.78742007
2.0205,-22.54717106
2.021,-18.57964376
2.0215,-16.74847731
2.022,-16.74847731
2.0225,-20.71600461
2.023,-27.73547599
2.0235,-32.92378092
2.024,-32.92378092
2.0245,-29.87183684
2.025,-26.81989277
2.0255,-22.85236547
2.026,-14.61211646
2.0265,-3.319923375
2.027,5.225520041
2.0275,8.582658526
2.028,8.582658526
2.0285,9.803436157
2.029,11.6346026
2.0295,12.85538023
2.03,13.77096346
2.0305,14.07615786
2.031,12.55018583
2.0315,8.582658526
2.032,4.309936818
2.0325,1.257992741
2.033,-2.099145744
2.0335,-9.729005936
2.034,-19.80042139
2.0345,-25.90430954
2.035,-27.73547599
2.0355,-28.95625362
2.036,-33.53416974
2.0365,-39.9432523
2.037,-44.82636282
2.0375,-46.35233486
2.038,-43.9107796
2.0385,-36.89130822
2.039,-25.90430954
2.0395,-15.83289409
2.04,-9.729005936
2.0405,-6.982256267
2.041,-4.540701005
2.0415,-0.878368113
2.042,3.394353595
2.0425,9.193047341
2.043,16.82290753
2.0435,23.5371845
2.044,27.1995174
2.0445,27.80990621
2.045,28.72548943
2.0455,32.08262792
2.046,36.66054403
2.0465,41.54365456
2.047,47.0371539
2.0475,53.75143087
2.048,59.55012461
2.0485,62.29687428
2.049,61.07609665
2.0495,58.02415257
2.05,54.9722085
2.0505,52.22545883
2.051,47.95273712
2.0515,40.62807133
2.052,31.1670447
2.0525,20.48524043
2.053,9.498241749
2.0535,-2.404340151
2.054,-14.91731087
2.0545,-25.59911514
2.055,-33.83936414
2.0555,-42.99519638
2.056,-53.37180624
2.0565,-59.7808888
2.057,-56.42375031
2.0575,-45.74194605
2.058,-36.28091941
2.0585,-32.31339211
2.059,-29.56664244
2.0595,-24.0731431
2.06,-18.88483817
2.0605,-17.05367172
2.061,-14.61211646
2.0615,-6.982256267
2.062,3.394353595
2.0625,10.71901938
2.063,13.77096346
2.0635,18.34887957
2.064,25.67354536
2.0645,31.1670447
2.065,30.86185029
2.0655,27.80990621
2.066,25.97873976
2.0665,26.28393417
2.067,24.75796213
2.0675,21.09562924
2.068,16.51771313
2.0685,13.46576905
2.069,11.02421379
2.0695,6.446297672
2.07,-0.878368113
2.0705,-9.118617121
2.071,-13.39133883
2.0715,-11.56017238
2.072,-6.371867452
2.0725,-0.573173705
2.073,2.783964779
2.0735,2.478770372
2.074,-4.540701005
2.0745,-17.66406054
2.075,-29.87183684
2.0755,-32.61858651
2.076,-23.15755988
2.0765,-6.371867452
2.077,10.71901938
2.0775,24.75796213
2.078,34.82937759
2.0785,43.374821
2.079,54.05662527
2.0795,66.26440158
2.08,77.25140026
2.0805,83.35528841
2.081,84.88126045
2.0815,83.96567723
2.082,81.82931637
2.0825,75.72542822
2.083,63.2124575
2.0835,43.98520982
2.084,22.31640687
2.0845,6.446297672
2.085,1.257992741
2.0855,3.699548003
2.086,3.394353595
2.0865,-7.287450675
2.087,-27.12508718
2.0875,-47.26791808
2.088,-61.91724965
2.0885,-69.24191544
2.089,-67.7159434
2.0895,-56.11855591
2.09,-38.72247467
2.0905,-23.76794869
2.091,-19.80042139
2.0915,-26.51469836
2.092,-34.75494737
2.0925,-34.14455855
2.093,-25.90430954
2.0935,-20.41081021
2.094,-23.46275428
2.0945,-31.39780888
2.095,-36.28091941
2.0955,-38.11208585
2.096,-42.38480756
2.0965,-49.09908453
2.097,-53.98219505
2.0975,-57.03413913
2.098,-61.91724965
2.0985,-67.10555458
2.099,-64.66399932
2.0995,-54.59258387
2.1,-44.82636282
2.1005,-40.24844671
2.101,-34.75494737
2.1015,-23.15755988
2.102,-8.203033898
2.1025,4.615131226
2.103,14.68654668
2.1035,23.5371845
2.104,29.03068384
2.1045,29.94626706
2.105,28.72548943
2.1055,29.33587825
2.106,30.25146147
2.1065,27.5047118
2.107,20.48524043
2.1075,12.24499142
2.108,5.225520041
2.1085,1.563187149
2.109,1.868381556
2.1095,2.783964779
2.11,-0.267979298
2.1105,-8.508228305
2.111,-17.05367172
2.1115,-21.02119902
2.112,-22.54717106
2.1125,-26.81989277
2.113,-33.53416974
2.1135,-37.19650263
2.114,-35.975725
2.1145,-33.53416974
2.115,-32.31339211
2.1155,-29.56664244
2.116,-22.85236547
2.1165,-14.00172764
2.117,-6.982256267
2.1175,-2.099145744
2.118,2.478770372
2.1185,7.361880895
2.119,11.02421379
2.1195,14.38135227
2.12,18.65407398
2.1205,22.31640687
2.121,22.62160128
2.1215,19.5696572
2.122,17.43329635
2.1225,19.2644628
2.123,22.31640687
2.1235,24.14757332
2.124,25.67354536
2.1245,26.89432299
2.125,25.67354536
2.1255,20.48524043
2.126,14.07615786
2.1265,10.71901938
2.127,12.55018583
2.1275,17.73849076
2.128,24.45276773
2.1285,29.64107266
2.129,30.25146147
2.1295,25.06315654
2.13,18.04368516
2.1305,12.85538023
2.131,8.887852934
2.1315,2.478770372
2.132,-5.761478636
2.1325,-12.47575561
2.133,-16.1380885
2.1335,-18.88483817
2.134,-22.24197665
2.1345,-25.90430954
2.135,-30.17703125
2.1355,-35.67053059
2.136,-38.11208585
2.1365,-31.70300329
2.137,-14.61211646
2.1375,6.141103264
2.138,22.62160128
2.1385,31.4722391
2.139,34.82937759
2.1395,35.134572
2.14,33.60859996
2.1405,31.4722391
2.141,29.94626706
2.1415,29.94626706
2.142,29.94626706
2.1425,29.64107266
2.143,29.94626706
2.1435,31.4722391
2.144,32.99821114
2.1445,32.38782233
2.145,29.64107266
2.1455,26.58912858
2.146,23.84237891
2.1465,18.04368516
2.147,8.277464118
2.1475,-1.488756928
2.148,-5.456284228
2.1485,-3.93031219
2.149,-3.93031219
2.1495,-10.64458916
2.15,-21.02119902
2.1505,-29.87183684
2.151,-34.44975296
2.1515,-34.44975296
2.152,-30.17703125
2.1525,-23.15755988
2.153,-16.74847731
2.1535,-12.78095001
2.154,-10.33939475
2.1545,-9.423811529
2.155,-11.86536679
2.1555,-15.83289409
2.156,-15.22250527
2.1565,-6.982256267
2.157,5.225520041
2.1575,15.2969355
2.158,21.09562924
2.1585,23.84237891
2.159,25.06315654
2.1595,24.45276773
2.16,24.14757332
2.1605,25.97873976
2.161,29.03068384
2.1615,32.08262792
2.162,36.35534963
2.1625,42.45923778
2.163,47.3423483
2.1635,47.0371539
2.164,43.374821
2.1645,40.62807133
2.165,39.4072937
2.1655,38.49171048
2.166,37.57612726
2.1665,37.27093285
2.167,35.4397664
2.1675,29.33587825
2.168,18.95926839
2.1685,8.887852934
2.169,2.173575964
2.1695,-0.267979298
2.17,-0.878368113
2.1705,0.342409518
2.171,3.089159187
2.1715,4.309936818
2.172,1.868381556
2.1725,-4.235506598
2.173,-10.33939475
2.1735,-12.1705612
2.174,-9.729005936
2.1745,-7.89783949
2.175,-11.86536679
2.1755,-20.71600461
2.176,-29.26144803
2.1765,-34.14455855
2.177,-36.58611381
2.1775,-39.02766908
2.178,-40.85883552
2.1785,-39.9432523
2.179,-38.72247467
2.1795,-39.9432523
2.18,-43.30039078
2.1805,-44.82636282
2.181,-40.55364111
2.1815,-32.92378092
2.182,-27.12508718
2.1825,-24.98872632
2.183,-21.63158784
2.1835,-10.94978357
2.184,3.699548003
2.1845,12.24499142
2.185,9.498241749
2.1855,1.868381556
2.186,-1.793951336
2.1865,-2.404340151
2.187,-6.066673044
2.1875,-11.25497797
2.188,-11.56017238
2.1885,-7.287450675
2.189,-5.456284228
2.1895,-8.508228305
2.19,-9.423811529
2.1905,-1.793951336
2.191,7.361880895
2.1915,7.97226971
2.192,-0.573173705
2.1925,-9.729005936
2.193,-11.25497797
2.1935,-6.066673044
2.194,-0.267979298
2.1945,1.563187149
2.195,-2.404340151
2.1955,-7.89783949
2.196,-9.729005936
2.1965,-7.287450675
2.197,-6.066673044
2.1975,-9.423811529
2.198,-13.08614442
2.1985,-13.08614442
2.199,-11.56017238
2.1995,-11.56017238
2.2,-10.94978357
2.2005,-5.761478636
2.201,0.03721511
2.2015,-0.573173705
2.202,-7.89783949
2.2025,-14.00172764
2.203,-14.61211646
2.2035,-11.56017238
2.204,-7.592645082
2.2045,-0.878368113
2.205,7.056686487
2.2055,11.93979701
2.206,11.02421379
2.2065,6.446297672
2.207,1.868381556
2.2075,0.03721511
2.208,3.394353595
2.2085,12.85538023
2.209,22.01121246
2.2095,22.62160128
2.21,13.46576905
2.2105,3.699548003
2.211,-0.267979298
2.2115,-1.488756928
2.212,-3.93031219
2.2125,-8.508228305
2.213,-11.25497797
2.2135,-11.86536679
2.214,-12.1705612
2.2145,-12.78095001
2.215,-14.30692205
2.2155,-18.57964376
2.216,-25.29392073
2.2165,-30.17703125
2.217,-26.81989277
2.2175,-16.44328291
2.218,-7.592645082
2.2185,-6.677061859
2.219,-12.78095001
2.2195,-17.35886613
2.22,-16.1380885
2.2205,-10.64458916
2.221,-5.761478636
2.2215,-3.93031219
2.222,-3.014728967
2.2225,-1.183562521
2.223,0.952798333
2.2235,3.394353595
2.224,4.309936818
2.2245,4.309936818
2.225,4.309936818
2.2255,6.141103264
2.226,9.498241749
2.2265,13.16057464
2.227,14.07615786
2.2275,11.6346026
2.228,5.835908857
2.2285,0.03721511
2.229,-1.793951336
2.2295,-0.878368113
2.23,0.03721511
2.2305,-0.878368113
2.231,-3.625117782
2.2315,-5.761478636
2.232,-6.677061859
2.2325,-6.677061859
2.233,-4.845895413
2.2335,-0.573173705
2.234,3.089159187
2.2345,3.394353595
2.235,0.647603926
2.2355,-0.573173705
2.236,0.952798333
2.2365,6.75149208
2.237,14.99174109
2.2375,24.14757332
2.238,30.86185029
2.2385,35.4397664
2.239,40.93326574
2.2395,46.73195949
2.24,49.47870916
2.2405,48.56312593
2.241,47.64754271
2.2415,51.0046812
2.242,54.05662527
2.2425,52.83584764
2.243,46.73195949
2.2435,38.79690489
2.244,28.11510062
2.2445,15.6021299
2.245,4.920325633
2.2455,-0.573173705
2.246,-6.677061859
2.2465,-18.27444935
2.247,-32.31339211
2.2475,-40.55364111
2.248,-42.38480756
2.2485,-43.60558519
2.249,-46.04714045
2.2495,-46.65752927
2.25,-45.74194605
2.2505,-46.65752927
2.251,-48.48869571
2.2515,-47.8783069
2.252,-44.52116841
2.2525,-41.77441874
2.253,-41.46922434
2.2535,-40.55364111
2.254,-38.41728026
2.2545,-37.80689144
2.255,-39.02766908
2.2555,-37.19650263
2.256,-29.26144803
2.2565,-18.27444935
2.257,-9.423811529
2.2575,-3.014728967
2.258,3.089159187
2.2585,10.10863056
2.259,16.51771313
2.2595,19.5696572
2.26,18.34887957
2.2605,14.99174109
2.261,13.46576905
2.2615,15.6021299
2.262,19.5696572
2.2625,22.62160128
2.263,23.84237891
2.2635,24.14757332
2.264,20.79043483
2.2645,12.85538023
2.265,4.00474241
2.2655,-0.267979298
2.266,-0.573173705
2.2665,-3.625117782
2.267,-12.78095001
2.2675,-22.24197665
2.268,-26.51469836
2.2685,-24.0731431
2.269,-18.88483817
2.2695,-13.08614442
2.27,-9.423811529
2.2705,-11.56017238
2.271,-17.96925494
2.2715,-19.49522698
2.272,-8.203033898
2.2725,9.803436157
2.273,21.09562924
2.2735,19.5696572
2.274,13.46576905
2.2745,13.46576905
2.275,19.87485161
2.2755,25.36835095
2.276,26.28393417
2.2765,24.75796213
2.277,21.09562924
2.2775,14.38135227
2.278,5.225520041
2.2785,-4.235506598
2.279,-14.00172764
2.2795,-22.85236547
2.28,-28.0406704
2.2805,-28.95625362
2.281,-27.73547599
2.2815,-27.43028158
2.282,-24.98872632
2.2825,-19.19003258
2.283,-14.91731087
2.2835,-17.66406054
2.284,-23.76794869
2.2845,-23.76794869
2.285,-16.44328291
2.2855,-11.86536679
2.286,-15.83289409
2.2865,-21.93678224
2.287,-22.85236547
2.2875,-19.80042139
2.288,-17.35886613
2.2885,-14.30692205
2.289,-4.235506598
2.2895,11.02421379
2.29,22.01121246
2.2905,21.09562924
2.291,11.93979701
2.2915,2.173575964
2.292,-1.793951336
2.2925,-0.267979298
2.293,6.446297672
2.2935,17.12810194
2.294,28.72548943
2.2945,37.88132167
2.295,44.29040423
2.2955,49.17351475
2.296,53.75143087
2.2965,54.05662527
2.297,48.86832034
2.2975,41.23846015
2.298,36.96573844
2.2985,36.96573844
2.299,33.30340555
2.2995,20.79043483
2.3,2.783964779
2.3005,-11.56017238
2.301,-17.96925494
2.3015,-17.66406054
2.302,-15.52769968
2.3025,-15.52769968
2.303,-18.88483817
2.3035,-23.76794869
2.304,-27.12508718
2.3045,-28.34586481
2.305,-27.43028158
2.3055,-24.68353191
2.306,-17.35886613
2.3065,-6.066673044
2.307,3.699548003
2.3075,6.446297672
2.308,3.394353595
2.3085,0.03721511
2.309,-0.878368113
2.3095,-0.573173705
2.31,0.342409518
2.3105,2.173575964
2.311,2.783964779
2.3115,0.952798333
2.312,1.563187149
2.3125,11.02421379
2.313,28.11510062
2.3135,42.45923778
2.314,46.42676508
2.3145,42.45923778
2.315,37.88132167
2.3155,34.52418318
2.316,29.64107266
2.3165,22.62160128
2.317,16.82290753
2.3175,13.46576905
2.318,9.803436157
2.3185,4.00474241
2.319,-0.878368113
2.3195,-0.267979298
2.32,2.478770372
2.3205,-0.878368113
2.321,-13.69653324
2.3215,-25.59911514
2.322,-24.37833751
2.3225,-12.47575561
2.323,-4.235506598
2.3235,-4.845895413
2.324,-5.761478636
2.3245,1.868381556
2.325,12.55018583
2.3255,13.46576905
2.326,2.478770372
2.3265,-10.03420034
2.327,-17.66406054
2.3275,-22.85236547
2.328,-29.87183684
2.3285,-37.19650263
2.329,-40.85883552
2.3295,-42.38480756
2.33,-46.96272368
2.3305,-55.8133615
2.331,-65.27438814
2.3315,-68.32633221
2.332,-61.61205525
2.3325,-48.48869571
2.333,-35.67053059
2.3335,-25.59911514
2.334,-16.74847731
2.3345,-7.592645082
2.335,-0.267979298
2.3355,1.563187149
2.336,0.647603926
2.3365,-0.878368113
2.337,-4.235506598
2.3375,-10.03420034
2.338,-14.61211646
2.3385,-13.69653324
2.339,-8.813422713
2.3395,-5.761478636
2.34,-8.203033898
2.3405,-13.39133883
2.341,-18.57964376
2.3415,-22.24197665
2.342,-23.76794869
2.3425,-22.54717106
2.343,-19.80042139
2.3435,-16.74847731
2.344,-13.69653324
2.3445,-11.25497797
2.345,-12.47575561
2.3455,-17.35886613
2.346,-17.35886613
2.3465,-6.982256267
2.347,8.582658526
2.3475,17.43329635
2.348,17.12810194
2.3485,16.51771313
2.349,21.40082365
2.3495,27.80990621
2.35,29.94626706
2.3505,29.64107266
2.351,30.55665588
2.3515,31.4722391
2.352,28.11510062
2.3525,23.84237891
2.353,26.28393417
2.3535,35.74496081
2.354,45.20598745
2.3545,47.95273712
2.355,44.90079304
2.3555,41.54365456
2.356,41.54365456
2.3565,43.98520982
2.357,43.374821
2.3575,36.96573844
2.358,25.97873976
2.3585,14.99174109
2.359,6.75149208
2.3595,0.647603926
2.36,-2.099145744
2.3605,-0.267979298
2.361,5.835908857
2.3615,14.38135227
2.362,22.62160128
2.3625,29.03068384
2.363,31.77743351
2.3635,29.64107266
2.364,23.5371845
2.3645,15.90732431
2.365,8.277464118
2.3655,0.342409518
2.366,-6.982256267
2.3665,-10.64458916
2.367,-9.729005936
2.3675,-9.423811529
2.368,-13.69653324
2.3685,-19.80042139
2.369,-23.46275428
2.3695,-24.0731431
2.37,-23.15755988
2.3705,-20.41081021
2.371,-14.91731087
2.3715,-9.729005936
2.372,-9.118617121
2.3725,-13.39133883
2.373,-16.1380885
2.3735,-12.1705612
2.374,-3.014728967
2.3745,5.225520041
2.375,10.41382497
2.3755,13.46576905
2.376,16.21251872
2.3765,18.34887957
2.377,18.65407398
2.3775,17.12810194
2.378,14.07615786
2.3785,9.193047341
2.379,3.394353595
2.3795,-0.267979298
2.38,-0.267979298
2.3805,1.868381556
2.381,2.783964779
2.3815,2.783964779
2.382,4.615131226
2.3825,10.10863056
2.383,17.73849076
2.3835,26.28393417
2.384,33.30340555
2.3845,34.52418318
2.385,26.28393417
2.3855,11.6346026
2.386,-0.878368113
2.3865,-7.592645082
2.387,-10.03420034
2.3875,-12.47575561
2.388,-16.44328291
2.3885,-22.85236547
2.389,-32.0081977
2.3895,-41.77441874
2.39,-49.09908453
2.3905,-54.28738946
2.391,-57.03413913
2.3915,-56.42375031
2.392,-52.45622301
2.3925,-50.62505657
2.393,-55.8133615
2.3935,-61.61205525
2.394,-56.72894472
2.3945,-41.77441874
2.395,-29.56664244
2.3955,-28.65105921
2.396,-32.92378092
2.3965,-32.92378092
2.397,-25.59911514
2.3975,-13.69653324
2.398,0.952798333
2.3985,12.85538023
2.399,11.3294082
2.3995,-5.151089821
2.4,-22.24197665
2.4005,-20.41081021
2.401,1.868381556
2.4015,29.03068384
2.402,44.90079304
2.4025,47.95273712
2.403,47.0371539
2.4035,49.17351475
2.404,55.2774029
2.4045,59.2449302
2.405,56.80337494
2.4055,50.39429238
2.406,46.42676508
2.4065,47.3423483
2.407,47.95273712
2.4075,44.29040423
2.408,38.18651607
2.4085,34.21898877
2.409,28.11510062
2.4095,15.2969355
2.41,-0.573173705
2.4105,-8.508228305
2.411,-5.456284228
2.4115,-0.573173705
2.412,-3.319923375
2.4125,-9.423811529
2.413,-6.371867452
2.4135,10.10863056
2.414,30.86185029
2.4145,44.29040423
2.415,51.92026442
2.4155,63.51765191
2.416,84.57606604
2.4165,107.770841
2.417,119.3682285
2.4175,111.7383683
2.418,88.23839894
2.4185,58.02415257
2.419,31.4722391
2.4195,13.46576905
2.42,0.342409518
2.4205,-15.22250527
2.421,-37.80689144
2.4215,-61.91724965
2.422,-80.53410852
2.4225,-92.13149602
2.423,-99.76135621
2.4235,-103.7288835
2.424,-99.4561618
2.4245,-85.72241345
2.425,-66.80036018
2.4255,-48.48869571
2.426,-33.22897533
2.4265,-18.88483817
2.427,-3.014728967
2.4275,16.51771313
2.428,41.23846015
2.4285,66.8747904
2.429,85.18645486
2.4295,90.98514861
2.43,85.18645486
2.4305,73.89426177
2.431,63.51765191
2.4315,56.19298613
2.432,49.47870916
2.4325,38.49171048
2.433,21.40082365
2.4335,3.394353595
2.434,-9.729005936
2.4345,-19.80042139
2.435,-32.92378092
2.4355,-50.01466775
2.436,-61.00166643
2.4365,-57.64452795
2.437,-44.52116841
2.4375,-32.31339211
2.438,-24.37833751
2.4385,-14.61211646
2.439,-2.099145744
2.4395,4.615131226
2.44,-1.793951336
2.4405,-18.27444935
2.441,-34.44975296
2.4415,-46.96272368
2.442,-59.17049998
2.4425,-70.46269307
2.443,-75.04060918
2.4435,-74.12502596
2.444,-77.17697004
2.4445,-89.99513516
2.445,-103.4236891
2.4455,-102.8133003
2.446,-82.97566378
2.4465,-50.31986216
2.447,-13.69653324
2.4475,19.5696572
2.448,43.68001541
2.4485,56.80337494
2.449,67.79037362
2.4495,85.79684367
2.45,105.3292858
2.4505,111.4331739
2.451,98.00461998
2.4515,75.42023381
2.452,54.05662527
2.4525,34.21898877
2.453,13.16057464
2.4535,-4.540701005
2.454,-11.25497797
2.4545,-6.066673044
2.455,3.699548003
2.4555,11.93979701
2.456,16.51771313
2.4565,16.21251872
2.457,9.193047341
2.4575,-3.625117782
2.458,-17.05367172
2.4585,-23.15755988
2.459,-20.41081021
2.4595,-14.91731087
2.46,-14.00172764
2.4605,-20.1056158
2.461,-26.81989277
2.4615,-26.51469836
2.462,-19.19003258
2.4625,-11.25497797
2.463,-7.592645082
2.4635,-6.371867452
2.464,-1.793951336
2.4645,8.277464118
2.465,23.2319901
2.4655,39.71248811
2.466,54.66701409
2.4665,62.9072631
2.467,61.68648547
2.4675,51.61507001
2.468,39.1020993
2.4685,29.03068384
2.469,18.95926839
2.4695,4.00474241
2.47,-14.00172764
2.4705,-29.26144803
2.471,-38.72247467
2.4715,-43.60558519
2.472,-44.82636282
2.4725,-40.24844671
2.473,-32.0081977
2.4735,-28.95625362
2.474,-35.67053059
2.4745,-45.13155723
2.475,-48.79389012
2.4755,-47.57311249
2.476,-50.31986216
2.4765,-59.17049998
2.477,-68.02113781
2.4775,-72.29385952
2.478,-70.15749866
2.4785,-61.61205525
2.479,-46.35233486
2.4795,-28.34586481
2.48,-15.52769968
2.4805,-11.56017238
2.481,-14.00172764
2.4815,-15.22250527
2.482,-4.845895413
2.4825,21.70601806
2.483,57.71895817
2.4835,83.66048282
2.484,86.10203808
2.4845,71.75790092
2.485,59.55012461
2.4855,59.85531902
2.486,68.70595684
2.4865,81.21892756
2.487,94.6474815
2.4875,102.2773417
2.488,93.73189827
2.4885,66.56959599
2.489,33.30340555
2.4895,9.193047341
2.49,-4.235506598
2.4905,-15.22250527
2.491,-26.51469836
2.4915,-35.06014178
2.492,-39.33286348
2.4925,-42.07961315
2.493,-44.21597401
2.4935,-41.16402993
2.494,-27.12508718
2.4945,-3.625117782
2.495,21.40082365
2.4955,40.01768252
2.496,47.3423483
2.4965,43.68001541
2.497,33.30340555
2.4975,21.70601806
2.498,14.07615786
2.4985,10.71901938
2.499,10.71901938
2.4995,13.16057464
2.5,16.51771313
2.5005,17.73849076
2.501,16.82290753
2.5015,18.95926839
2.502,29.03068384
2.5025,42.76443219
2.503,48.56312593
2.5035,43.0696266
2.504,40.01768252
2.5045,52.22545883
2.505,73.89426177
2.5055,89.15398216
2.506,90.06956538
2.5065,82.13451078
2.507,71.1475121
2.5075,54.9722085
2.508,31.1670447
2.5085,5.835908857
2.509,-14.00172764
2.5095,-28.34586481
2.51,-39.9432523
2.5105,-50.93025098
2.511,-62.52763847
2.5115,-76.26138682
2.512,-88.16396872
2.5125,-93.35227365
2.513,-91.82630161
2.5135,-91.21591279
2.514,-95.4886345
2.5145,-98.84577299
2.515,-96.70941213
2.5155,-93.96266246
2.516,-94.87824568
2.5165,-95.18344009
2.517,-89.38474635
2.5175,-83.5860526
2.518,-88.16396872
2.5185,-99.4561618
2.519,-99.4561618
2.5195,-80.22891412
2.52,-54.89777828
2.5205,-41.16402993
2.521,-41.16402993
2.5215,-42.99519638
2.522,-39.63805789
2.5225,-34.75494737
2.523,-33.53416974
2.5235,-35.67053059
2.524,-36.89130822
2.5245,-37.19650263
2.525,-39.33286348
2.5255,-44.21597401
2.526,-47.26791808
2.5265,-42.38480756
2.527,-29.87183684
2.5275,-16.74847731
2.528,-8.203033898
2.5285,-3.319923375
2.529,3.394353595
2.5295,13.77096346
2.53,25.67354536
2.5305,37.88132167
2.531,52.53065323
2.5315,68.09556803
2.532,80.91373315
2.5325,88.54359334
2.533,93.73189827
2.5335,99.53059202
2.534,103.8033137
2.5345,103.4981193
2.535,97.08903676
2.5355,84.57606604
2.536,67.1799848
2.5365,47.64754271
2.537,29.03068384
2.5375,12.85538023
2.538,-3.625117782
2.5385,-21.02119902
2.539,-36.58611381
2.5395,-48.79389012
2.54,-58.86530558
2.5405,-68.93672103
2.541,-75.95619241
2.5415,-76.56658122
2.542,-70.76788748
2.5425,-59.17049998
2.543,-42.99519638
2.5435,-26.20950395
2.544,-16.74847731
2.5445,-20.71600461
2.545,-33.53416974
2.5455,-43.30039078
2.546,-42.07961315
2.5465,-33.22897533
2.547,-27.12508718
2.5475,-27.12508718
2.548,-25.29392073
2.5485,-9.729005936
2.549,17.12810194
2.5495,41.54365456
2.55,54.66701409
2.5505,64.43323514
2.551,79.69295552
2.5515,94.95267591
2.552,99.22539761
2.5525,96.17345354
2.553,102.2773417
2.5535,123.0305614
2.554,144.39417
2.5545,152.9396134
2.555,147.446114
2.5555,133.7123657
2.556,116.6214789
2.5565,106.5500634
2.557,115.4007012
2.5575,140.7318371
2.558,159.9590847
2.5585,156.6019463
2.559,137.3746986
2.5595,120.8942006
2.56,113.2643404
2.5605,108.0760354
2.561,99.83578643
2.5615,89.76437097
2.562,78.16698348
2.5625,64.73842954
2.563,54.36181968
2.5635,52.53065323
2.564,54.66701409
2.5645,47.0371539
2.565,20.79043483
2.5655,-22.24197665
2.566,-72.90424833
2.5665,-123.56652
2.567,-171.1768476
2.5675,-217.5663976
2.568,-262.1247811
2.5685,-297.222138
2.569,-317.9753577
2.5695,-329.8779396
2.57,-344.8324656
2.5705,-361.3129636
2.571,-362.8389356
2.5715,-339.6441607
2.572,-302.7156373
2.5725,-271.2806133
2.573,-245.9494775
2.5735,-213.2936759
2.574,-168.4300979
2.5745,-122.9561312
2.575,-89.99513516
2.5755,-68.02113781
2.576,-48.18350131
2.5765,-28.65105921
2.577,-15.22250527
2.5775,-8.203033898
2.578,-1.183562521
2.5785,10.10863056
2.579,20.79043483
2.5795,23.2319901
2.58,21.40082365
2.5805,28.42029503
2.581,52.22545883
2.5815,85.18645486
2.582,112.6539516
2.5825,128.2188663
2.583,138.9006706
2.5835,152.3292246
2.584,165.4525841
2.5845,171.2512778
2.585,171.8616666
2.5855,176.1343884
2.586,185.2902206
2.5865,183.1538597
2.587,155.9915574
2.5875,111.1279795
2.588,70.53712329
2.5885,46.12157067
2.589,29.94626706
2.5895,9.803436157
2.59,-11.56017238
2.5905,-24.68353191
2.591,-27.12508718
2.5915,-28.65105921
2.592,-34.14455855
2.5925,-39.02766908
2.593,-36.89130822
2.5935,-30.48222566
2.594,-27.73547599
2.5945,-30.17703125
2.595,-29.87183684
2.5955,-18.88483817
2.596,1.257992741
2.5965,23.84237891
2.597,43.68001541
2.5975,59.85531902
2.598,71.75790092
2.5985,78.16698348
2.599,84.88126045
2.5995,101.3617585
2.6,128.2188663
2.6005,153.2448078
2.601,166.0629729
2.6015,170.9460834
2.602,176.4395828
2.6025,177.355166
2.603,159.9590847
2.6035,120.2838117
2.604,71.1475121
2.6045,28.72548943
2.605,0.342409518
2.6055,-15.83289409
2.606,-26.81989277
2.6065,-39.63805789
2.607,-56.11855591
2.6075,-72.29385952
2.608,-86.33280227
2.6085,-103.7288835
2.609,-126.0080753
2.6095,-140.3522124
2.61,-133.6379355
2.6105,-113.1899101
2.611,-100.9821338
2.6115,-105.2548555
2.612,-113.1899101
2.6125,-112.8847157
2.613,-106.7808276
2.6135,-98.54057858
2.614,-82.97566378
2.6145,-56.42375031
2.615,-26.81989277
2.6155,0.952798333
2.616,33.30340555
2.6165,73.89426177
2.617,108.9916187
2.6175,123.3357558
2.618,122.4201726
2.6185,123.0305614
2.619,125.7773111
2.6195,115.7058956
2.62,87.93320453
2.6205,58.63454139
2.621,42.45923778
2.6215,34.82937759
2.622,23.5371845
2.6225,8.277464118
2.623,-2.404340151
2.6235,-8.508228305
2.624,-14.91731087
2.6245,-21.93678224
2.625,-22.24197665
2.6255,-17.35886613
2.626,-22.24197665
2.6265,-45.13155723
2.627,-74.12502596
2.6275,-88.77435753
2.628,-83.89124701
2.6285,-73.81983155
2.629,-73.20944274
2.6295,-78.70294208
2.63,-78.39774767
2.6305,-71.07308188
2.631,-68.63152662
2.6315,-77.17697004
2.632,-85.41721905
2.6325,-78.39774767
2.633,-58.86530558
2.6335,-44.21597401
2.634,-42.69000197
2.6345,-45.74194605
2.635,-43.30039078
2.6355,-37.80689144
2.636,-38.72247467
2.6365,-46.04714045
2.637,-50.93025098
2.6375,-45.74194605
2.638,-31.09261448
2.6385,-11.25497797
2.639,9.193047341
2.6395,25.36835095
2.64,34.52418318
2.6405,39.4072937
2.641,42.76443219
2.6415,40.01768252
2.642,29.03068384
2.6425,18.95926839
2.643,20.79043483
2.6435,31.77743351
2.644,37.27093285
2.6445,31.77743351
2.645,23.2319901
2.6455,19.5696572
2.646,18.34887957
2.6465,16.82290753
2.647,16.82290753
2.6475,18.34887957
2.648,14.07615786
2.6485,3.699548003
2.649,-1.183562521
2.6495,7.361880895
2.65,22.62160128
2.6505,30.86185029
2.651,29.94626706
2.6515,29.33587825
2.652,31.77743351
2.6525,32.08262792
2.653,29.03068384
2.6535,29.94626706
2.654,36.66054403
2.6545,42.45923778
2.655,42.76443219
2.6555,41.23846015
2.656,40.93326574
2.6565,36.66054403
2.657,23.84237891
2.6575,8.582658526
2.658,-0.573173705
2.6585,-8.203033898
2.659,-22.85236547
2.6595,-42.99519638
2.66,-57.33933354
2.6605,-62.52763847
2.661,-64.05361051
2.6615,-63.13802728
2.662,-48.18350131
2.6625,-10.64458916
2.663,38.49171048
2.6635,79.0825667
2.664,98.6150088
2.6645,101.6669529
2.665,100.1409808
2.6655,102.5825361
2.666,109.9072019
2.6665,120.2838117
2.667,131.8811992
2.6675,142.2578091
2.668,141.6474203
2.6685,119.6734229
2.669,79.69295552
2.6695,40.62807133
2.67,15.2969355
2.6705,-5.151089821
2.671,-34.75494737
2.6715,-68.93672103
2.672,-91.21591279
2.6725,-98.84577299
2.673,-104.0340779
2.6735,-107.6964108
2.674,-94.26785687
2.6745,-56.42375031
2.675,-10.03420034
2.6755,26.58912858
2.676,53.75143087
2.6765,81.82931637
2.677,113.2643404
2.6775,145.3097532
2.678,172.7772499
2.6785,188.9525535
2.679,184.6798318
2.6795,159.3486959
2.68,126.0825055
2.6805,95.86825913
2.681,68.09556803
2.6815,37.57612726
2.682,7.361880895
2.6825,-18.27444935
2.683,-43.9107796
2.6835,-77.17697004
2.684,-115.9366598
2.6845,-148.287267
2.685,-164.4625706
2.6855,-169.3456812
2.686,-175.4495693
2.6865,-188.2677344
2.687,-201.6962884
2.6875,-206.8845933
2.688,-203.2222604
2.6885,-196.5079834
2.689,-184.3002071
2.6895,-158.6638769
2.69,-121.7353536
2.6905,-88.16396872
2.691,-68.32633221
2.6915,-53.67700065
2.692,-31.39780888
2.6925,-2.404340151
2.693,22.92679569
2.6935,40.32287693
2.694,50.39429238
2.6945,50.08909797
2.695,35.4397664
2.6955,18.04368516
2.696,17.12810194
2.6965,34.21898877
2.697,49.47870916
2.6975,45.20598745
2.698,25.67354536
2.6985,8.887852934
2.699,3.089159187
2.6995,2.173575964
2.7,-1.183562521
2.7005,-9.118617121
2.701,-21.63158784
2.7015,-37.50169704
2.702,-51.8458342
2.7025,-57.94972235
2.703,-56.11855591
2.7035,-51.8458342
2.704,-48.18350131
2.7045,-42.38480756
2.705,-34.75494737
2.7055,-32.92378092
2.706,-43.60558519
2.7065,-61.91724965
2.707,-77.48216445
2.7075,-84.19644142
2.708,-83.28085819
2.7085,-76.56658122
2.709,-64.66399932
2.7095,-49.70947335
2.71,-35.36533618
2.7105,-23.46275428
2.711,-13.39133883
2.7115,-4.235506598
2.712,4.00474241
2.7125,10.41382497
2.713,10.10863056
2.7135,0.342409518
2.714,-13.08614442
2.7145,-22.54717106
2.715,-28.34586481
2.7155,-38.41728026
2.716,-52.76141742
2.7165,-64.96919373
2.717,-74.43022037
2.7175,-87.85877431
2.718,-98.84577299
2.7185,-85.11202464
2.719,-35.975725
2.7195,24.14757332
2.72,63.82284632
2.7205,76.94620585
2.721,79.69295552
2.7215,83.35528841
2.722,88.23839894
2.7225,100.1409808
2.723,125.7773111
2.7235,157.5175295
2.724,178.5759436
2.7245,184.069443
2.725,181.6278877
2.7255,172.1668611
2.726,148.9720861
2.7265,115.0955068
2.727,83.96567723
2.7275,62.9072631
2.728,46.12157067
2.7285,31.77743351
2.729,24.75796213
2.7295,26.58912858
2.73,28.42029503
2.7305,25.36835095
2.731,21.70601806
2.7315,18.65407398
2.732,11.02421379
2.7325,-5.151089821
2.733,-24.68353191
2.7335,-40.85883552
2.734,-51.54063979
2.7345,-53.67700065
2.735,-43.30039078
2.7355,-21.93678224
2.736,0.952798333
2.7365,19.5696572
2.737,32.38782233
2.7375,40.62807133
2.738,44.59559863
2.7385,48.56312593
2.739,57.71895817
2.7395,67.1799848
2.74,66.8747904
2.7405,54.36181968
2.741,39.4072937
2.7415,28.72548943
2.742,18.34887957
2.7425,5.225520041
2.743,-2.099145744
2.7435,5.225520041
2.744,24.14757332
2.7445,38.49171048
2.745,39.1020993
2.7455,28.42029503
2.746,13.77096346
2.7465,0.647603926
2.747,-9.423811529
2.7475,-19.49522698
2.748,-33.53416974
2.7485,-50.62505657
2.749,-60.69647202
2.7495,-54.89777828
2.75,-42.38480756
2.7505,-41.77441874
2.751,-58.56011117
2.7515,-76.87177563
2.752,-80.22891412
2.7525,-70.76788748
2.753,-63.13802728
2.7535,-63.44322169
2.754,-66.80036018
2.7545,-70.15749866
2.755,-71.98866511
2.7555,-66.80036018
2.756,-50.01466775
2.7565,-30.78742007
2.757,-25.90430954
2.7575,-40.55364111
2.758,-59.7808888
2.7585,-65.57958255
2.759,-56.42375031
2.7595,-42.69000197
2.76,-28.95625362
2.7605,-12.78095001
2.761,5.530714449
2.7615,21.09562924
2.762,26.58912858
2.7625,19.5696572
2.763,4.00474241
2.7635,-12.78095001
2.764,-24.98872632
2.7645,-30.17703125
2.765,-32.92378092
2.7655,-39.33286348
2.766,-49.70947335
2.7665,-59.47569439
2.767,-61.00166643
2.7675,-51.8458342
2.768,-36.28091941
2.7685,-24.0731431
2.769,-21.93678224
2.7695,-26.51469836
2.77,-26.81989277
2.7705,-11.86536679
2.771,17.12810194
2.7715,49.78390357
2.772,71.1475121
2.7725,72.36828974
2.773,56.80337494
2.7735,38.79690489
2.774,35.134572
2.7745,52.83584764
2.775,81.21892756
2.7755,99.22539761
2.776,94.95267591
2.7765,78.16698348
2.777,70.53712329
2.7775,76.94620585
2.778,81.21892756
2.7785,66.26440158
2.779,36.66054403
2.7795,15.2969355
2.78,14.38135227
2.7805,26.89432299
2.781,39.4072937
2.7815,47.0371539
2.782,48.56312593
2.7825,40.62807133
2.783,22.62160128
2.7835,4.309936818
2.784,-0.573173705
2.7845,9.193047341
2.785,27.1995174
2.7855,43.0696266
2.786,52.83584764
2.7865,54.05662527
2.787,45.81637627
2.7875,31.77743351
2.788,15.90732431
2.7885,-5.456284228
2.789,-40.85883552
2.7895,-87.85877431
2.79,-125.7028809
2.7905,-130.5859914
2.791,-99.4561618
2.7915,-57.03413913
2.792,-29.87183684
2.7925,-25.29392073
2.793,-32.92378092
2.7935,-42.07961315
2.794,-49.70947335
2.7945,-53.98219505
2.795,-53.67700065
2.7955,-48.48869571
2.796,-40.55364111
2.7965,-28.65105921
2.797,-12.47575561
2.7975,2.478770372
2.798,11.3294082
2.7985,12.85538023
2.799,9.498241749
2.7995,0.952798333
2.8,-9.729005936
2.8005,-10.33939475
2.801,7.361880895
2.8015,33.60859996
2.802,49.17351475
2.8025,52.53065323
2.803,58.32934698
2.8035,69.92673447
2.804,73.28387296
2.8045,62.9072631
2.805,51.61507001
2.8055,49.47870916
2.806,47.0371539
2.8065,36.35534963
2.807,24.14757332
2.8075,17.73849076
2.808,6.141103264
2.8085,-24.0731431
2.809,-69.24191544
2.8095,-116.2418542
2.81,-158.9690713
2.8105,-194.3716226
2.811,-213.9040647
2.8115,-212.0728982
2.812,-197.1183723
2.8125,-176.6703469
2.813,-148.8976558
2.8135,-112.5795213
2.814,-75.650998
2.8145,-45.43675164
2.815,-19.49522698
2.8155,-0.267979298
2.816,5.225520041
2.8165,1.563187149
2.817,7.361880895
2.8175,25.36835095
2.818,32.99821114
2.8185,15.90732431
2.819,-6.371867452
2.8195,-13.69653324
2.82,-16.74847731
2.8205,-34.14455855
2.821,-50.93025098
2.8215,-35.67053059
2.822,11.3294082
2.8225,57.71895817
2.823,85.79684367
2.8235,108.0760354
2.824,134.3227545
2.8245,152.634419
2.825,148.0565028
2.8255,125.1669223
2.826,98.6150088
2.8265,78.16698348
2.827,68.40076244
2.8275,69.62154007
2.828,77.25140026
2.8285,81.82931637
2.829,79.0825667
2.8295,71.1475121
2.83,64.12804073
2.8305,64.43323514
2.831,74.809845
2.8315,86.10203808
2.832,80.91373315
2.8325,55.58259731
2.833,29.03068384
2.8335,22.01121246
2.834,31.4722391
2.8345,39.71248811
2.835,40.01768252
2.8355,39.71248811
2.836,40.62807133
2.8365,36.66054403
2.837,26.89432299
2.8375,19.2644628
2.838,13.77096346
2.8385,-2.404340151
2.839,-36.58611381
2.8395,-76.87177563
2.84,-104.6444667
2.8405,-116.2418542
2.841,-119.5989927
2.8415,-116.5470486
2.842,-100.6769394
2.8425,-72.90424833
2.843,-48.18350131
2.8435,-38.11208585
2.844,-38.72247467
2.8445,-33.83936414
2.845,-18.57964376
2.8455,-4.235506598
2.846,-1.183562521
2.8465,-7.89783949
2.847,-15.83289409
2.8475,-21.02119902
2.848,-25.29392073
2.8485,-29.56664244
2.849,-35.36533618
2.8495,-48.48869571
2.85,-70.76788748
2.8505,-88.77435753
2.851,-83.5860526
2.8515,-54.28738946
2.852,-20.1056158
2.8525,0.647603926
2.853,9.498241749
2.8535,17.43329635
2.854,30.86185029
2.8545,46.12157067
2.855,60.46570784
2.8555,71.1475121
2.856,75.72542822
2.8565,72.36828974
2.857,65.65401277
2.8575,58.9397358
2.858,45.20598745
2.8585,18.04368516
2.859,-14.30692205
2.8595,-32.31339211
2.86,-25.90430954
2.8605,-7.287450675
2.861,6.75149208
2.8615,14.38135227
2.862,22.31640687
2.8625,28.72548943
2.863,25.36835095
2.8635,8.887852934
2.864,-12.78095001
2.8645,-34.44975296
2.865,-57.33933354
2.8655,-82.97566378
2.866,-108.9171884
2.8665,-130.8911858
2.867,-147.6768782
2.8675,-159.5794601
2.868,-166.2937371
2.8685,-168.7352923
2.869,-165.3781539
2.8695,-151.3392111
2.87,-123.8717144
2.8705,-91.21591279
2.871,-65.27438814
2.8715,-43.9107796
2.872,-16.44328291
2.8725,20.18004602
2.873,52.83584764
2.8735,72.36828974
2.874,83.96567723
2.8745,98.30981439
2.875,113.8747292
2.8755,122.725367
2.876,123.6409502
2.8765,118.1474509
2.877,104.4137025
2.8775,80.30334434
2.878,54.36181968
2.8785,38.18651607
2.879,29.94626706
2.8795,17.73849076
2.88,-0.267979298
2.8805,-12.47575561
2.881,-9.729005936
2.8815,0.03721511
2.882,2.478770372
2.8825,-4.845895413
2.883,-9.423811529
2.8835,0.952798333
2.884,23.2319901
2.8845,43.68001541
2.885,52.83584764
2.8855,54.36181968
2.886,54.9722085
2.8865,54.66701409
2.887,50.69948679
2.8875,45.51118186
2.888,43.98520982
2.8885,46.12157067
2.889,47.0371539
2.8895,45.20598745
2.89,43.68001541
2.8905,45.20598745
2.891,48.86832034
2.8915,53.44623646
2.892,58.02415257
2.8925,61.38129106
2.893,64.12804073
2.8935,69.31634566
2.894,76.33581704
2.8945,76.03062263
2.895,60.46570784
2.8955,37.27093285
2.896,24.45276773
2.8965,28.11510062
2.897,34.82937759
2.8975,29.64107266
2.898,13.77096346
2.8985,-0.267979298
2.899,-5.151089821
2.8995,-3.93031219
2.9,1.563187149
2.9005,12.24499142
2.901,24.14757332
2.9015,30.55665588
2.902,31.1670447
2.9025,33.30340555
2.903,43.98520982
2.9035,61.68648547
2.904,78.47217789
2.9045,86.7124269
2.905,83.050094
2.9055,72.06309533
2.906,64.43323514
2.9065,68.40076244
2.907,77.86178907
2.9075,78.7773723
2.908,65.34881836
2.9085,47.0371539
2.909,34.21898877
2.9095,23.2319901
2.91,3.089159187
2.9105,-22.85236547
2.911,-39.63805789
2.9115,-37.50169704
2.912,-22.85236547
2.9125,-6.677061859
2.913,8.582658526
2.9135,23.84237891
2.914,32.38782233
2.9145,25.97873976
2.915,8.277464118
2.9155,-7.592645082
2.916,-14.30692205
2.9165,-18.27444935
2.917,-28.0406704
2.9175,-42.99519638
2.918,-53.98219505
2.9185,-56.42375031
2.919,-53.67700065
2.9195,-49.70947335
2.92,-47.57311249
2.9205,-50.93025098
2.921,-63.13802728
2.9215,-78.70294208
2.922,-84.80683023
2.9225,-75.04060918
2.923,-62.52763847
2.9235,-68.02113781
2.924,-99.76135621
2.9245,-143.7093509
2.925,-178.8067078
2.9255,-195.5924002
2.926,-200.7807052
2.9265,-202.6118716
2.927,-201.0858996
2.9275,-191.6248729
2.928,-176.9755414
2.9285,-167.8197091
2.929,-166.2937371
2.9295,-158.6638769
2.93,-128.4496305
2.9305,-78.09255326
2.931,-29.87183684
2.9315,1.563187149
2.932,24.75796213
2.9325,54.9722085
2.933,90.37475979
2.9335,116.01109
2.934,125.4721167
2.9345,127.3032831
2.935,127.3032831
2.9355,118.7578397
2.936,93.12150946
2.9365,55.2774029
2.937,18.65407398
2.9375,-11.25497797
2.938,-39.9432523
2.9385,-73.51463715
2.939,-109.8327717
2.9395,-140.047018
2.94,-152.5599887
2.9405,-136.3846851
2.941,-84.50163582
2.9415,-6.677061859
2.942,72.67348414
2.9425,129.1344496
2.943,155.3811686
2.9435,165.7577785
2.944,175.5239995
2.9445,187.4265814
2.945,193.5304696
2.9455,190.7837199
2.946,184.9850262
2.9465,180.4071101
2.947,169.4201114
2.9475,139.205865
2.948,89.45917657
2.9485,39.71248811
2.949,10.71901938
2.9495,6.75149208
2.95,12.55018583
2.9505,11.02421379
2.951,-0.267979298
2.9515,-15.22250527
2.952,-32.31339211
2.9525,-52.76141742
2.953,-74.12502596
2.9535,-86.94319108
2.954,-85.11202464
2.9545,-73.20944274
2.955,-63.13802728
2.9555,-62.52763847
2.956,-67.7159434
2.9565,-68.93672103
2.957,-59.17049998
2.9575,-41.16402993
2.958,-23.15755988
2.9585,-11.25497797
2.959,-8.203033898
2.9595,-14.00172764
2.96,-26.51469836
2.9605,-40.55364111
2.961,-47.8783069
2.9615,-44.21597401
2.962,-31.39780888
2.9625,-14.91731087
2.963,1.868381556
2.9635,14.68654668
2.964,18.65407398
2.9645,12.85538023
2.965,7.667075303
2.9655,12.24499142
2.966,22.31640687
2.9665,25.67354536
2.967,18.34887957
2.9675,10.41382497
2.968,11.93979701
2.9685,21.70601806
2.969,33.60859996
2.9695,46.73195949
2.97,64.73842954
2.9705,86.7124269
2.971,107.1604522
2.9715,123.0305614
2.972,133.7123657
2.9725,137.9850874
2.973,134.6279489
2.9735,125.4721167
2.974,114.1799236
2.9745,100.7513697
2.975,81.82931637
2.9755,56.49818053
2.976,27.80990621
2.9765,-2.099145744
2.977,-33.83936414
2.9775,-63.13802728
2.978,-83.89124701
2.9785,-95.79382891
2.979,-103.7288835
2.9795,-111.0535493
2.98,-112.8847157
2.9805,-104.6444667
2.981,-91.5211072
2.9815,-82.06008056
2.982,-76.26138682
2.9825,-66.80036018
2.983,-52.15102861
2.9835,-39.33286348
2.984,-30.78742007
2.9845,-19.19003258
2.985,0.647603926
2.9855,24.75796213
2.986,43.0696266
2.9865,53.75143087
2.987,54.05662527
2.9875,36.96573844
2.988,1.257992741
2.9885,-34.75494737
2.989,-51.54063979
2.9895,-49.40427894
2.99,-43.9107796
2.9905,-38.72247467
2.991,-21.02119902
2.9915,10.71901938
2.992,37.88132167
2.9925,44.59559863
2.993,40.32287693
2.9935,47.0371539
2.994,67.79037362
2.9945,85.79684367
2.995,86.10203808
2.9955,68.40076244
2.996,43.68001541
2.9965,27.5047118
2.997,29.94626706
2.9975,46.12157067
2.998,59.2449302
2.9985,57.41376376
2.999,49.17351475
2.9995,51.0046812
3,64.73842954
3.0005,75.42023381
3.001,72.06309533
3.0015,59.2449302
3.002,47.95273712
3.0025,42.45923778
3.003,39.1020993
3.0035,31.4722391
3.004,14.68654668
3.0045,-11.25497797
3.005,-40.55364111
3.0055,-64.05361051
3.006,-75.95619241
3.0065,-79.92371971
3.007,-84.19644142
3.0075,-94.57305128
3.008,-109.8327717
3.0085,-122.9561312
3.009,-126.6184641
3.0095,-120.2093815
3.01,-109.8327717
3.0105,-100.9821338
3.011,-92.13149602
3.0115,-77.78735885
3.012,-57.33933354
3.0125,-35.67053059
3.013,-14.30692205
3.0135,7.056686487
3.014,27.1995174
3.0145,36.96573844
3.015,29.33587825
3.0155,3.699548003
3.016,-30.78742007
3.0165,-62.22244406
3.017,-79.92371971
3.0175,-82.97566378
3.018,-79.92371971
3.0185,-75.95619241
3.019,-61.61205525
3.0195,-22.54717106
3.02,34.21898877
3.0205,80.91373315
3.021,96.17345354
3.0215,85.49164927
3.022,63.82284632
3.0225,35.134572
3.023,-2.099145744
