time,value
0,-1.005723101
0.0005,0.21505453
0.001,0.520248938
0.0015,-0.090139878
0.002,-0.700528693
0.0025,-0.090139878
0.003,0.520248938
0.0035,0.21505453
0.004,0.21505453
0.0045,0.825443346
0.005,1.130637753
0.0055,0.21505453
0.006,-0.090139878
0.0065,0.520248938
0.007,1.741026569
0.0075,1.741026569
0.008,1.130637753
0.0085,1.435832161
0.009,1.741026569
0.0095,0.825443346
0.01,-0.395334285
0.0105,-0.395334285
0.011,0.520248938
0.0115,1.130637753
0.012,0.21505453
0.0125,-1.005723101
0.013,-1.616111916
0.0135,-1.310917508
0.014,-0.700528693
0.0145,-0.090139878
0.015,-0.090139878
0.0155,0.21505453
0.016,-0.090139878
0.0165,-0.395334285
0.017,-1.005723101
0.0175,-1.005723101
0.018,-0.395334285
0.0185,0.21505453
0.019,0.825443346
0.0195,0.520248938
0.02,-0.090139878
0.0205,-0.090139878
0.021,-0.090139878
0.0215,-0.090139878
0.022,-0.700528693
0.0225,-0.700528693
0.023,-0.090139878
0.0235,0.825443346
0.024,0.825443346
0.0245,0.21505453
0.025,0.21505453
0.0255,0.520248938
0.026,0.825443346
0.0265,0.825443346
0.027,0.520248938
0.0275,0.520248938
0.028,-0.090139878
0.0285,-0.395334285
0.029,-0.700528693
0.0295,-0.395334285
0.03,-0.395334285
0.0305,-0.090139878
0.031,-0.090139878
0.0315,-0.090139878
0.032,-0.090139878
0.0325,0.21505453
0.033,0.520248938
0.0335,1.130637753
0.034,1.130637753
0.0345,0.520248938
0.035,-0.090139878
0.0355,-0.395334285
0.036,-0.700528693
0.0365,-0.090139878
0.037,0.825443346
0.0375,0.825443346
0.038,-0.395334285
0.0385,-1.310917508
0.039,-1.310917508
0.0395,-0.395334285
0.04,-0.395334285
0.0405,-0.700528693
0.041,-0.090139878
0.0415,1.130637753
0.042,1.130637753
0.0425,-0.090139878
0.043,-1.616111916
0.0435,-1.310917508
0.044,-0.395334285
0.0445,0.21505453
0.045,-0.090139878
0.0455,-0.395334285
0.046,-1.921306324
0.0465,-3.142083955
0.047,-2.226500731
0.0475,-0.090139878
0.048,0.825443346
0.0485,0.21505453
0.049,-0.395334285
0.0495,-0.090139878
0.05,0.520248938
0.0505,-0.090139878
0.051,-1.310917508
0.0515,-1.616111916
0.052,-0.395334285
0.0525,0.825443346
0.053,1.130637753
0.0535,0.520248938
0.054,-0.090139878
0.0545,-0.700528693
0.055,-0.395334285
0.0555,0.21505453
0.056,-0.090139878
0.0565,-1.310917508
0.057,-1.921306324
0.0575,-0.700528693
0.058,-0.090139878
0.0585,-0.395334285
0.059,-1.921306324
0.0595,-1.616111916
0.06,-0.700528693
0.0605,-1.005723101
0.061,-1.616111916
0.0615,-0.395334285
0.062,1.435832161
0.0625,1.741026569
0.063,-0.090139878
0.0635,-1.921306324
0.064,-1.005723101
0.0645,-0.090139878
0.065,-0.395334285
0.0655,-1.310917508
0.066,-0.700528693
0.0665,0.520248938
0.067,1.130637753
0.0675,0.825443346
0.068,0.825443346
0.0685,0.825443346
0.069,0.21505453
0.0695,-1.005723101
0.07,-1.310917508
0.0705,-0.700528693
0.071,-0.090139878
0.0715,-0.700528693
0.072,-1.921306324
0.0725,-2.226500731
0.073,-1.310917508
0.0735,-0.090139878
0.074,-0.090139878
0.0745,-0.700528693
0.075,-0.700528693
0.0755,-0.090139878
0.076,0.825443346
0.0765,0.21505453
0.077,-0.700528693
0.0775,-0.395334285
0.078,0.520248938
0.0785,0.520248938
0.079,-0.090139878
0.0795,-0.090139878
0.08,0.21505453
0.0805,0.520248938
0.081,-0.395334285
0.0815,-0.700528693
0.082,-0.090139878
0.0825,-0.090139878
0.083,-1.005723101
0.0835,-1.616111916
0.084,-0.090139878
0.0845,1.130637753
0.085,1.130637753
0.0855,-0.090139878
0.086,-0.395334285
0.0865,-0.090139878
0.087,0.21505453
0.0875,1.130637753
0.088,1.435832161
0.0885,0.21505453
0.089,-1.310917508
0.0895,-1.921306324
0.09,-0.395334285
0.0905,0.520248938
0.091,0.21505453
0.0915,-0.700528693
0.092,-1.616111916
0.0925,-1.616111916
0.093,-1.005723101
0.0935,-0.090139878
0.094,0.21505453
0.0945,-0.090139878
0.095,-0.090139878
0.0955,-0.090139878
0.096,0.21505453
0.0965,-1.005723101
0.097,-3.142083955
0.0975,-2.531695139
0.098,-0.090139878
0.0985,1.435832161
0.099,0.520248938
0.0995,-0.395334285
0.1,-0.090139878
0.1005,0.520248938
0.101,0.21505453
0.1015,-0.090139878
0.102,0.825443346
0.1025,1.435832161
0.103,0.21505453
0.1035,-0.700528693
0.104,-0.395334285
0.1045,0.21505453
0.105,-0.090139878
0.1055,-0.090139878
0.106,-0.090139878
0.1065,0.21505453
0.107,0.21505453
0.1075,-0.090139878
0.108,0.520248938
0.1085,1.435832161
0.109,1.741026569
0.1095,1.130637753
0.11,0.520248938
0.1105,0.21505453
0.111,0.520248938
0.1115,0.520248938
0.112,0.825443346
0.1125,0.520248938
0.113,-0.090139878
0.1135,-0.090139878
0.114,-0.090139878
0.1145,-0.090139878
0.115,-1.005723101
0.1155,-1.921306324
0.116,-1.310917508
0.1165,0.21505453
0.117,1.130637753
0.1175,0.21505453
0.118,-1.005723101
0.1185,-1.005723101
0.119,-0.090139878
0.1195,-0.090139878
0.12,-0.395334285
0.1205,-1.310917508
0.121,-1.005723101
0.1215,-0.090139878
0.122,0.21505453
0.1225,0.21505453
0.123,-0.395334285
0.1235,-0.395334285
0.124,-0.090139878
0.1245,0.825443346
0.125,0.21505453
0.1255,-0.700528693
0.126,-1.616111916
0.1265,-1.921306324
0.127,-1.310917508
0.1275,-0.700528693
0.128,-1.005723101
0.1285,-1.310917508
0.129,-0.700528693
0.1295,0.21505453
0.13,1.130637753
0.1305,0.825443346
0.131,-0.395334285
0.1315,-1.310917508
0.132,-1.005723101
0.1325,-0.090139878
0.133,-0.090139878
0.1335,-0.090139878
0.134,-0.090139878
0.1345,-0.090139878
0.135,-0.090139878
0.1355,0.21505453
0.136,0.825443346
0.1365,0.520248938
0.137,-0.395334285
0.1375,-1.616111916
0.138,-1.310917508
0.1385,-0.700528693
0.139,-0.700528693
0.1395,-0.700528693
0.14,-0.090139878
0.1405,0.21505453
0.141,0.520248938
0.1415,0.520248938
0.142,0.520248938
0.1425,-0.090139878
0.143,-0.700528693
0.1435,-1.005723101
0.144,-0.090139878
0.1445,0.520248938
0.145,0.520248938
0.1455,0.21505453
0.146,0.520248938
0.1465,1.435832161
0.147,1.435832161
0.1475,0.520248938
0.148,-0.090139878
0.1485,-0.700528693
0.149,-0.090139878
0.1495,0.520248938
0.15,1.130637753
0.1505,1.130637753
0.151,0.520248938
0.1515,0.21505453
0.152,1.130637753
0.1525,1.435832161
0.153,0.825443346
0.1535,0.21505453
0.154,0.520248938
0.1545,0.520248938
0.155,-0.090139878
0.1555,-0.700528693
0.156,-1.005723101
0.1565,-0.395334285
0.157,-0.090139878
0.1575,0.21505453
0.158,0.825443346
0.1585,1.130637753
0.159,0.21505453
0.1595,-0.395334285
0.16,-0.700528693
0.1605,-0.090139878
0.161,0.520248938
0.1615,0.21505453
0.162,-0.090139878
0.1625,0.520248938
0.163,0.520248938
0.1635,-0.090139878
0.164,-1.005723101
0.1645,-0.700528693
0.165,0.21505453
0.1655,0.825443346
0.166,0.520248938
0.1665,0.21505453
0.167,-0.090139878
0.1675,-0.700528693
0.168,-1.310917508
0.1685,-1.310917508
0.169,-0.700528693
0.1695,-0.090139878
0.17,-0.395334285
0.1705,-0.395334285
0.171,-0.090139878
0.1715,0.520248938
0.172,1.435832161
0.1725,1.741026569
0.173,1.130637753
0.1735,0.21505453
0.174,-0.090139878
0.1745,-0.090139878
0.175,-0.090139878
0.1755,-1.005723101
0.176,-1.616111916
0.1765,-1.005723101
0.177,0.21505453
0.1775,0.520248938
0.178,-0.700528693
0.1785,-1.921306324
0.179,-1.616111916
0.1795,-0.700528693
0.18,-0.395334285
0.1805,-0.395334285
0.181,0.21505453
0.1815,0.825443346
0.182,-0.090139878
0.1825,-1.310917508
0.183,-1.616111916
0.1835,-1.005723101
0.184,-0.395334285
0.1845,-1.005723101
0.185,-1.005723101
0.1855,-0.395334285
0.186,0.21505453
0.1865,0.520248938
0.187,0.21505453
0.1875,0.520248938
0.188,0.520248938
0.1885,0.520248938
0.189,0.21505453
0.1895,0.21505453
0.19,-0.090139878
0.1905,-0.090139878
0.191,-0.090139878
0.1915,-0.090139878
0.192,-0.090139878
0.1925,-0.090139878
0.193,-0.090139878
0.1935,-0.090139878
0.194,-0.090139878
0.1945,0.21505453
0.195,1.130637753
0.1955,1.435832161
0.196,0.21505453
0.1965,-1.310917508
0.197,-1.616111916
0.1975,-0.395334285
0.198,0.520248938
0.1985,0.520248938
0.199,-0.395334285
0.1995,-1.005723101
0.2,-0.700528693
0.2005,-0.090139878
0.201,-0.395334285
0.2015,-1.005723101
0.202,-0.700528693
0.2025,-0.090139878
0.203,0.825443346
0.2035,1.130637753
0.204,1.130637753
0.2045,0.825443346
0.205,0.520248938
0.2055,-0.090139878
0.206,-0.090139878
0.2065,0.520248938
0.207,0.825443346
0.2075,-0.090139878
0.208,-1.310917508
0.2085,-1.921306324
0.209,-0.700528693
0.2095,0.21505453
0.21,0.825443346
0.2105,0.21505453
0.211,-0.395334285
0.2115,-1.005723101
0.212,-0.700528693
0.2125,-0.395334285
0.213,-0.395334285
0.2135,-0.395334285
0.214,-0.395334285
0.2145,-0.090139878
0.215,-0.090139878
0.2155,-0.090139878
0.216,-0.090139878
0.2165,0.21505453
0.217,0.825443346
0.2175,0.520248938
0.218,-0.395334285
0.2185,-0.395334285
0.219,0.21505453
0.2195,1.130637753
0.22,0.520248938
0.2205,-0.090139878
0.221,-0.090139878
0.2215,1.130637753
0.222,2.046220976
0.2225,1.130637753
0.223,-0.700528693
0.2235,-1.616111916
0.224,-0.700528693
0.2245,-0.090139878
0.225,-0.090139878
0.2255,-0.090139878
0.226,-0.090139878
0.2265,0.825443346
0.227,0.825443346
0.2275,-0.090139878
0.228,-1.310917508
0.2285,-1.005723101
0.229,-0.090139878
0.2295,0.520248938
0.23,0.825443346
0.2305,1.130637753
0.231,0.520248938
0.2315,-0.395334285
0.232,-1.310917508
0.2325,-1.310917508
0.233,-0.700528693
0.2335,-0.395334285
0.234,-0.395334285
0.2345,-0.090139878
0.235,0.21505453
0.2355,0.520248938
0.236,0.520248938
0.2365,0.520248938
0.237,0.825443346
0.2375,0.825443346
0.238,0.21505453
0.2385,0.520248938
0.239,0.825443346
0.2395,0.825443346
0.24,-0.395334285
0.2405,-1.310917508
0.241,-1.005723101
0.2415,0.21505453
0.242,1.741026569
0.2425,2.351415384
0.243,2.046220976
0.2435,0.825443346
0.244,-1.005723101
0.2445,-2.226500731
0.245,-1.310917508
0.2455,-0.090139878
0.246,0.21505453
0.2465,-0.395334285
0.247,-1.005723101
0.2475,-0.090139878
0.248,0.825443346
0.2485,0.825443346
0.249,-0.090139878
0.2495,-1.310917508
0.25,-1.616111916
0.2505,-1.005723101
0.251,-0.090139878
0.2515,0.520248938
0.252,0.825443346
0.2525,0.520248938
0.253,-0.395334285
0.2535,-1.005723101
0.254,-0.700528693
0.2545,-0.395334285
0.255,-0.090139878
0.2555,-0.700528693
0.256,-1.310917508
0.2565,-0.700528693
0.257,-0.395334285
0.2575,-0.395334285
0.258,-1.310917508
0.2585,-1.616111916
0.259,-0.700528693
0.2595,0.21505453
0.26,0.21505453
0.2605,-0.700528693
0.261,-1.310917508
0.2615,-0.700528693
0.262,0.520248938
0.2625,1.435832161
0.263,1.435832161
0.2635,0.520248938
0.264,-0.090139878
0.2645,-0.090139878
0.265,0.21505453
0.2655,0.520248938
0.266,0.21505453
0.2665,-0.090139878
0.267,0.520248938
0.2675,1.130637753
0.268,0.825443346
0.2685,-0.395334285
0.269,-1.616111916
0.2695,-1.005723101
0.27,-0.090139878
0.2705,-0.090139878
0.271,-0.700528693
0.2715,-0.090139878
0.272,1.130637753
0.2725,1.435832161
0.273,-0.090139878
0.2735,-1.921306324
0.274,-1.616111916
0.2745,-0.090139878
0.275,-0.090139878
0.2755,-0.395334285
0.276,-0.395334285
0.2765,-0.090139878
0.277,0.520248938
0.2775,0.21505453
0.278,0.520248938
0.2785,1.130637753
0.279,1.130637753
0.2795,-0.090139878
0.28,-1.310917508
0.2805,-1.310917508
0.281,-0.395334285
0.2815,0.21505453
0.282,0.520248938
0.2825,0.825443346
0.283,0.21505453
0.2835,-0.395334285
0.284,-1.310917508
0.2845,-1.005723101
0.285,-0.090139878
0.2855,0.520248938
0.286,0.520248938
0.2865,0.21505453
0.287,0.21505453
0.2875,0.21505453
0.288,-0.090139878
0.2885,-0.700528693
0.289,-1.005723101
0.2895,-0.395334285
0.29,-0.090139878
0.2905,0.21505453
0.291,-0.090139878
0.2915,-0.395334285
0.292,-0.395334285
0.2925,-0.700528693
0.293,-0.700528693
0.2935,-0.090139878
0.294,0.21505453
0.2945,0.21505453
0.295,-0.090139878
0.2955,-0.090139878
0.296,-0.090139878
0.2965,-0.090139878
0.297,-0.700528693
0.2975,-1.310917508
0.298,-1.005723101
0.2985,-0.395334285
0.299,-0.395334285
0.2995,-1.310917508
0.3,-1.310917508
0.3005,-0.090139878
0.301,0.520248938
0.3015,-0.395334285
0.302,-1.616111916
0.3025,-1.921306324
0.303,-1.005723101
0.3035,-0.090139878
0.304,-0.090139878
0.3045,-0.090139878
0.305,0.21505453
0.3055,0.520248938
0.306,0.520248938
0.3065,0.520248938
0.307,0.21505453
0.3075,-0.090139878
0.308,-0.700528693
0.3085,-1.005723101
0.309,-0.090139878
0.3095,0.520248938
0.31,1.130637753
0.3105,0.520248938
0.311,-0.090139878
0.3115,-0.090139878
0.312,-0.090139878
0.3125,0.520248938
0.313,0.825443346
0.3135,0.520248938
0.314,-0.090139878
0.3145,-1.005723101
0.315,-0.700528693
0.3155,0.21505453
0.316,0.825443346
0.3165,0.520248938
0.317,0.520248938
0.3175,1.130637753
0.318,0.825443346
0.3185,0.21505453
0.319,-0.090139878
0.3195,0.21505453
0.32,0.825443346
0.3205,1.130637753
0.321,0.21505453
0.3215,-0.395334285
0.322,-1.005723101
0.3225,-0.090139878
0.323,0.520248938
0.3235,1.130637753
0.324,0.520248938
0.3245,-0.090139878
0.325,-0.090139878
0.3255,0.21505453
0.326,0.21505453
0.3265,-0.090139878
0.327,-0.090139878
0.3275,-0.090139878
0.328,-0.090139878
0.3285,0.21505453
0.329,0.520248938
0.3295,0.520248938
0.33,-0.395334285
0.3305,-1.921306324
0.331,-1.921306324
0.3315,-0.700528693
0.332,-0.090139878
0.3325,0.21505453
0.333,-0.090139878
0.3335,-0.090139878
0.334,-0.090139878
0.3345,-0.090139878
0.335,-0.090139878
0.3355,-0.090139878
0.336,-0.395334285
0.3365,-0.700528693
0.337,-0.395334285
0.3375,-0.090139878
0.338,0.520248938
0.3385,0.21505453
0.339,-0.090139878
0.3395,-0.700528693
0.34,-1.310917508
0.3405,-1.310917508
0.341,-0.395334285
0.3415,0.520248938
0.342,0.825443346
0.3425,0.520248938
0.343,0.520248938
0.3435,0.520248938
0.344,-0.090139878
0.3445,-0.395334285
0.345,-0.090139878
0.3455,0.520248938
0.346,0.21505453
0.3465,-0.090139878
0.347,0.520248938
0.3475,1.741026569
0.348,1.741026569
0.3485,0.21505453
0.349,-0.700528693
0.3495,-0.090139878
0.35,0.825443346
0.3505,0.520248938
0.351,-0.090139878
0.3515,-0.090139878
0.352,0.21505453
0.3525,-0.090139878
0.353,-0.700528693
0.3535,-1.005723101
0.354,-0.395334285
0.3545,0.21505453
0.355,0.520248938
0.3555,0.21505453
0.356,-0.090139878
0.3565,-0.090139878
0.357,-0.395334285
0.3575,-0.395334285
0.358,-0.395334285
0.3585,-0.700528693
0.359,-0.700528693
0.3595,-0.395334285
0.36,-0.090139878
0.3605,-0.090139878
0.361,-0.090139878
0.3615,-0.395334285
0.362,-0.090139878
0.3625,0.21505453
0.363,0.825443346
0.3635,0.520248938
0.364,-0.395334285
0.3645,-1.310917508
0.365,-1.005723101
0.3655,-0.090139878
0.366,0.825443346
0.3665,-0.090139878
0.367,-1.005723101
0.3675,-1.310917508
0.368,-0.700528693
0.3685,-0.090139878
0.369,-0.090139878
0.3695,-0.395334285
0.37,-0.090139878
0.3705,-0.090139878
0.371,-0.090139878
0.3715,-0.090139878
0.372,-0.090139878
0.3725,0.21505453
0.373,-0.090139878
0.3735,-0.395334285
0.374,-0.395334285
0.3745,-0.090139878
0.375,-0.090139878
0.3755,-1.005723101
0.376,-1.310917508
0.3765,-0.700528693
0.377,-0.090139878
0.3775,-0.395334285
0.378,-1.310917508
0.3785,-1.616111916
0.379,-1.310917508
0.3795,-0.700528693
0.38,-0.395334285
0.3805,-0.090139878
0.381,0.520248938
0.3815,0.520248938
0.382,-0.090139878
0.3825,-1.005723101
0.383,-0.395334285
0.3835,0.825443346
0.384,2.046220976
0.3845,1.130637753
0.385,-0.395334285
0.3855,-0.700528693
0.386,-0.090139878
0.3865,0.21505453
0.387,-0.090139878
0.3875,-0.090139878
0.388,0.825443346
0.3885,1.130637753
0.389,-0.090139878
0.3895,-1.005723101
0.39,-0.700528693
0.3905,-0.090139878
0.391,-0.700528693
0.3915,-1.616111916
0.392,-0.700528693
0.3925,0.520248938
0.393,0.825443346
0.3935,-0.395334285
0.394,-0.700528693
0.3945,0.21505453
0.395,0.520248938
0.3955,-0.090139878
0.396,-0.395334285
0.3965,-0.090139878
0.397,-0.090139878
0.3975,-1.005723101
0.398,-1.616111916
0.3985,-1.310917508
0.399,-0.090139878
0.3995,-0.090139878
0.4,-0.090139878
0.4005,-0.700528693
0.401,-1.310917508
0.4015,-1.616111916
0.402,-1.310917508
0.4025,-0.090139878
0.403,-0.090139878
0.4035,-1.005723101
0.404,-1.616111916
0.4045,-0.395334285
0.405,0.520248938
0.4055,0.520248938
0.406,-0.090139878
0.4065,0.21505453
0.407,0.825443346
0.4075,0.21505453
0.408,-1.310917508
0.4085,-1.921306324
0.409,-1.616111916
0.4095,-0.700528693
0.41,-0.700528693
0.4105,-1.005723101
0.411,-0.395334285
0.4115,-0.090139878
0.412,0.21505453
0.4125,-0.090139878
0.413,-0.090139878
0.4135,-0.090139878
0.414,-0.395334285
0.4145,-0.090139878
0.415,0.21505453
0.4155,0.520248938
0.416,0.21505453
0.4165,-0.090139878
0.417,0.21505453
0.4175,0.520248938
0.418,0.825443346
0.4185,0.520248938
0.419,-0.090139878
0.4195,-0.090139878
0.42,0.21505453
0.4205,0.520248938
0.421,0.21505453
0.4215,-0.090139878
0.422,-1.005723101
0.4225,-1.005723101
0.423,-0.700528693
0.4235,-1.005723101
0.424,-1.310917508
0.4245,-1.005723101
0.425,0.21505453
0.4255,1.130637753
0.426,0.825443346
0.4265,-0.090139878
0.427,-0.700528693
0.4275,-0.090139878
0.428,0.21505453
0.4285,0.520248938
0.429,0.825443346
0.4295,1.435832161
0.43,0.825443346
0.4305,-0.395334285
0.431,-0.395334285
0.4315,0.21505453
0.432,0.520248938
0.4325,-0.700528693
0.433,-2.531695139
0.4335,-1.616111916
0.434,0.21505453
0.4345,0.825443346
0.435,-0.395334285
0.4355,-1.310917508
0.436,-1.005723101
0.4365,-0.395334285
0.437,-0.700528693
0.4375,-0.700528693
0.438,-0.090139878
0.4385,1.130637753
0.439,1.435832161
0.4395,1.130637753
0.44,1.435832161
0.4405,1.741026569
0.441,1.435832161
0.4415,0.520248938
0.442,-0.090139878
0.4425,-0.395334285
0.443,-0.395334285
0.4435,-0.090139878
0.444,-0.090139878
0.4445,-0.090139878
0.445,-0.090139878
0.4455,0.21505453
0.446,0.825443346
0.4465,1.130637753
0.447,0.825443346
0.4475,0.520248938
0.448,0.520248938
0.4485,0.21505453
0.449,-0.090139878
0.4495,-1.310917508
0.45,-1.616111916
0.4505,-1.005723101
0.451,0.825443346
0.4515,1.741026569
0.452,1.130637753
0.4525,-0.395334285
0.453,-1.005723101
0.4535,-0.395334285
0.454,-0.090139878
0.4545,-0.700528693
0.455,-0.395334285
0.4555,0.21505453
0.456,1.130637753
0.4565,-0.090139878
0.457,-0.395334285
0.4575,0.21505453
0.458,2.046220976
0.4585,1.741026569
0.459,-0.090139878
0.4595,-0.700528693
0.46,-0.090139878
0.4605,0.825443346
0.461,0.825443346
0.4615,0.520248938
0.462,1.130637753
0.4625,1.741026569
0.463,1.435832161
0.4635,0.520248938
0.464,-0.090139878
0.4645,-0.090139878
0.465,0.21505453
0.4655,0.520248938
0.466,0.21505453
0.4665,-0.700528693
0.467,-1.310917508
0.4675,-0.395334285
0.468,0.520248938
0.4685,1.435832161
0.469,1.130637753
0.4695,0.21505453
0.47,-0.090139878
0.4705,0.21505453
0.471,0.520248938
0.4715,1.130637753
0.472,1.130637753
0.4725,0.21505453
0.473,-1.005723101
0.4735,-1.005723101
0.474,0.21505453
0.4745,1.435832161
0.475,0.825443346
0.4755,-0.090139878
0.476,-0.395334285
0.4765,-0.090139878
0.477,0.21505453
0.4775,-0.090139878
0.478,-0.395334285
0.4785,-1.310917508
0.479,-1.310917508
0.4795,-0.700528693
0.48,-0.090139878
0.4805,0.21505453
0.481,-0.090139878
0.4815,-0.700528693
0.482,-0.700528693
0.4825,-0.700528693
0.483,-0.090139878
0.4835,0.21505453
0.484,0.520248938
0.4845,-0.395334285
0.485,-1.921306324
0.4855,-2.226500731
0.486,-1.005723101
0.4865,-0.090139878
0.487,-0.090139878
0.4875,-0.395334285
0.488,-0.395334285
0.4885,-0.700528693
0.489,-1.005723101
0.4895,-1.310917508
0.49,-1.005723101
0.4905,-0.700528693
0.491,-0.700528693
0.4915,-0.395334285
0.492,0.520248938
0.4925,1.130637753
0.493,0.825443346
0.4935,-0.395334285
0.494,-1.005723101
0.4945,-0.090139878
0.495,0.825443346
0.4955,1.435832161
0.496,0.825443346
0.4965,0.520248938
0.497,1.130637753
0.4975,1.741026569
0.498,1.435832161
0.4985,-0.090139878
0.499,-1.005723101
0.4995,-1.005723101
0.5,-0.395334285
0.5005,-0.090139878
0.501,0.21505453
0.5015,-0.090139878
0.502,-0.090139878
0.5025,-0.395334285
0.503,-0.090139878
0.5035,0.21505453
0.504,0.825443346
0.5045,1.130637753
0.505,1.130637753
0.5055,0.825443346
0.506,0.520248938
0.5065,0.520248938
0.507,0.520248938
0.5075,-0.090139878
0.508,-0.700528693
0.5085,-0.700528693
0.509,-0.090139878
0.5095,0.825443346
0.51,-0.090139878
0.5105,-0.700528693
0.511,-0.395334285
0.5115,0.520248938
0.512,1.435832161
0.5125,1.130637753
0.513,-0.090139878
0.5135,-1.310917508
0.514,-2.226500731
0.5145,-1.616111916
0.515,-0.395334285
0.5155,0.21505453
0.516,-0.090139878
0.5165,-0.395334285
0.517,-0.090139878
0.5175,0.21505453
0.518,-0.090139878
0.5185,-1.310917508
0.519,-1.005723101
0.5195,-0.090139878
0.52,-0.395334285
0.5205,-1.005723101
0.521,-0.700528693
0.5215,0.21505453
0.522,0.520248938
0.5225,-0.090139878
0.523,-0.090139878
0.5235,0.21505453
0.524,-0.090139878
0.5245,-0.395334285
0.525,-0.700528693
0.5255,-0.090139878
0.526,0.21505453
0.5265,-0.395334285
0.527,-1.005723101
0.5275,-0.090139878
0.528,0.825443346
0.5285,0.825443346
0.529,-0.090139878
0.5295,-0.090139878
0.53,-0.090139878
0.5305,-0.090139878
0.531,-0.700528693
0.5315,-0.700528693
0.532,-0.090139878
0.5325,-0.090139878
0.533,-0.395334285
0.5335,-0.090139878
0.534,0.21505453
0.5345,0.520248938
0.535,-0.090139878
0.5355,-0.090139878
0.536,-0.090139878
0.5365,-0.090139878
0.537,0.21505453
0.5375,-0.090139878
0.538,-0.700528693
0.5385,-1.005723101
0.539,-0.395334285
0.5395,0.21505453
0.54,0.825443346
0.5405,0.825443346
0.541,0.520248938
0.5415,0.21505453
0.542,-0.090139878
0.5425,0.21505453
0.543,0.21505453
0.5435,0.21505453
0.544,-0.700528693
0.5445,-1.616111916
0.545,-1.616111916
0.5455,-0.700528693
0.546,-0.090139878
0.5465,-0.395334285
0.547,-0.395334285
0.5475,-0.090139878
0.548,-0.090139878
0.5485,-0.090139878
0.549,-0.090139878
0.5495,-0.090139878
0.55,-0.090139878
0.5505,0.21505453
0.551,0.520248938
0.5515,0.825443346
0.552,0.21505453
0.5525,-0.090139878
0.553,-0.090139878
0.5535,0.21505453
0.554,-0.090139878
0.5545,-0.395334285
0.555,-0.395334285
0.5555,-0.090139878
0.556,-0.090139878
0.5565,-1.005723101
0.557,-1.616111916
0.5575,-1.005723101
0.558,-0.395334285
0.5585,-0.090139878
0.559,0.21505453
0.5595,0.825443346
0.56,0.825443346
0.5605,0.520248938
0.561,0.21505453
0.5615,0.520248938
0.562,1.130637753
0.5625,1.130637753
0.563,0.520248938
0.5635,-0.090139878
0.564,-0.700528693
0.5645,-1.616111916
0.565,-1.005723101
0.5655,0.520248938
0.566,1.130637753
0.5665,-0.090139878
0.567,-1.616111916
0.5675,-2.226500731
0.568,-1.005723101
0.5685,-0.090139878
0.569,-0.090139878
0.5695,-0.395334285
0.57,-1.005723101
0.5705,-1.005723101
0.571,-0.090139878
0.5715,0.520248938
0.572,-0.090139878
0.5725,-1.921306324
0.573,-2.836889547
0.5735,-1.616111916
0.574,-0.395334285
0.5745,-0.700528693
0.575,-1.616111916
0.5755,-1.005723101
0.576,-0.090139878
0.5765,-0.090139878
0.577,-0.395334285
0.5775,-1.005723101
0.578,-0.395334285
0.5785,-0.090139878
0.579,-0.090139878
0.5795,-0.090139878
0.58,0.21505453
0.5805,0.21505453
0.581,-0.090139878
0.5815,-0.090139878
0.582,-0.090139878
0.5825,-0.090139878
0.583,-0.395334285
0.5835,-0.700528693
0.584,-0.090139878
0.5845,0.520248938
0.585,0.520248938
0.5855,-0.090139878
0.586,-1.005723101
0.5865,-0.700528693
0.587,-0.090139878
0.5875,0.520248938
0.588,-0.090139878
0.5885,-0.700528693
0.589,-0.395334285
0.5895,0.21505453
0.59,-0.090139878
0.5905,-0.700528693
0.591,-1.005723101
0.5915,-0.395334285
0.592,-0.700528693
0.5925,-1.921306324
0.593,-2.226500731
0.5935,-0.700528693
0.594,0.21505453
0.5945,0.520248938
0.595,0.21505453
0.5955,0.21505453
0.596,-0.090139878
0.5965,-1.005723101
0.597,-1.310917508
0.5975,-0.700528693
0.598,-0.090139878
0.5985,-0.090139878
0.599,-0.090139878
0.5995,-0.090139878
0.6,-0.090139878
0.6005,-0.700528693
0.601,-0.700528693
0.6015,-0.090139878
0.602,0.21505453
0.6025,-0.090139878
0.603,-0.090139878
0.6035,1.130637753
0.604,1.741026569
0.6045,0.825443346
0.605,-0.090139878
0.6055,-0.090139878
0.606,0.21505453
0.6065,-0.090139878
0.607,-1.005723101
0.6075,-0.700528693
0.608,0.520248938
0.6085,1.130637753
0.609,0.21505453
0.6095,-0.090139878
0.61,0.520248938
0.6105,0.825443346
0.611,-0.090139878
0.6115,-2.226500731
0.612,-2.836889547
0.6125,-1.005723101
0.613,0.825443346
0.6135,1.130637753
0.614,-0.090139878
0.6145,-0.395334285
0.615,-0.090139878
0.6155,0.21505453
0.616,-0.090139878
0.6165,-0.700528693
0.617,-1.005723101
0.6175,-0.090139878
0.618,0.520248938
0.6185,-0.090139878
0.619,-1.005723101
0.6195,-1.616111916
0.62,-1.005723101
0.6205,-0.090139878
0.621,0.21505453
0.6215,0.21505453
0.622,0.21505453
0.6225,0.21505453
0.623,0.21505453
0.6235,0.21505453
0.624,-0.090139878
0.6245,-0.090139878
0.625,-0.395334285
0.6255,-0.090139878
0.626,0.825443346
0.6265,1.741026569
0.627,1.741026569
0.6275,0.21505453
0.628,-0.700528693
0.6285,-0.090139878
0.629,1.435832161
0.6295,1.741026569
0.63,-0.090139878
0.6305,-1.310917508
0.631,-0.090139878
0.6315,2.046220976
0.632,2.351415384
0.6325,0.21505453
0.633,-0.395334285
0.6335,0.520248938
0.634,1.130637753
0.6345,0.21505453
0.635,-1.005723101
0.6355,-0.395334285
0.636,0.825443346
0.6365,1.130637753
0.637,-0.090139878
0.6375,-1.005723101
0.638,-0.090139878
0.6385,1.130637753
0.639,0.825443346
0.6395,-0.090139878
0.64,-0.090139878
0.6405,0.825443346
0.641,0.825443346
0.6415,-0.090139878
0.642,-0.700528693
0.6425,-0.090139878
0.643,0.520248938
0.6435,0.21505453
0.644,-0.700528693
0.6445,-1.310917508
0.645,-0.395334285
0.6455,0.825443346
0.646,2.046220976
0.6465,2.351415384
0.647,1.130637753
0.6475,-0.090139878
0.648,-0.700528693
0.6485,-0.090139878
0.649,0.825443346
0.6495,0.825443346
0.65,0.21505453
0.6505,-0.090139878
0.651,0.21505453
0.6515,0.520248938
0.652,-0.090139878
0.6525,-1.005723101
0.653,-1.921306324
0.6535,-1.005723101
0.654,-0.090139878
0.6545,0.21505453
0.655,-0.090139878
0.6555,0.520248938
0.656,1.435832161
0.6565,0.825443346
0.657,-1.616111916
0.6575,-3.142083955
0.658,-1.921306324
0.6585,0.520248938
0.659,1.130637753
0.6595,-0.090139878
0.66,-1.005723101
0.6605,-0.700528693
0.661,-0.395334285
0.6615,-0.700528693
0.662,-1.005723101
0.6625,-0.700528693
0.663,-0.090139878
0.6635,0.21505453
0.664,-0.090139878
0.6645,-0.700528693
0.665,-0.395334285
0.6655,0.21505453
0.666,0.825443346
0.6665,0.21505453
0.667,-1.005723101
0.6675,-1.310917508
0.668,-0.090139878
0.6685,1.435832161
0.669,1.435832161
0.6695,0.825443346
0.67,-0.090139878
0.6705,-1.005723101
0.671,-1.921306324
0.6715,-1.616111916
0.672,-0.090139878
0.6725,0.21505453
0.673,-0.700528693
0.6735,-1.616111916
0.674,-1.310917508
0.6745,-0.700528693
0.675,-1.310917508
0.6755,-1.921306324
0.676,-1.005723101
0.6765,0.520248938
0.677,0.21505453
0.6775,-1.310917508
0.678,-1.616111916
0.6785,-0.090139878
0.679,1.435832161
0.6795,0.825443346
0.68,-0.090139878
0.6805,-0.395334285
0.681,-0.395334285
0.6815,-1.005723101
0.682,-1.005723101
0.6825,-0.090139878
0.683,1.130637753
0.6835,1.130637753
0.684,0.21505453
0.6845,-0.090139878
0.685,0.21505453
0.6855,-0.090139878
0.686,-0.700528693
0.6865,-1.310917508
0.687,-0.090139878
0.6875,0.825443346
0.688,0.825443346
0.6885,-0.395334285
0.689,-1.616111916
0.6895,-1.616111916
0.69,-0.700528693
0.6905,-0.090139878
0.691,0.21505453
0.6915,-0.090139878
0.692,-0.395334285
0.6925,-0.700528693
0.693,-0.090139878
0.6935,-0.090139878
0.694,-0.090139878
0.6945,-1.005723101
0.695,-1.005723101
0.6955,-0.090139878
0.696,0.520248938
0.6965,-0.395334285
0.697,-1.616111916
0.6975,-1.616111916
0.698,-0.395334285
0.6985,0.21505453
0.699,0.21505453
0.6995,0.21505453
0.7,0.825443346
0.7005,0.825443346
0.701,-0.395334285
0.7015,-1.310917508
0.702,-0.700528693
0.7025,0.21505453
0.703,0.520248938
0.7035,-0.090139878
0.704,-0.700528693
0.7045,-0.395334285
0.705,-0.090139878
0.7055,-0.090139878
0.706,-0.090139878
0.7065,-0.090139878
0.707,-0.395334285
0.7075,-0.700528693
0.708,-0.395334285
0.7085,-0.090139878
0.709,-0.090139878
0.7095,-0.090139878
0.71,-0.090139878
0.7105,0.520248938
0.711,1.130637753
0.7115,0.520248938
0.712,-0.090139878
0.7125,-0.090139878
0.713,0.21505453
0.7135,-0.090139878
0.714,-0.090139878
0.7145,-0.090139878
0.715,0.825443346
0.7155,0.520248938
0.716,-0.395334285
0.7165,-1.310917508
0.717,-0.395334285
0.7175,0.825443346
0.718,1.130637753
0.7185,0.21505453
0.719,-0.090139878
0.7195,0.520248938
0.72,1.130637753
0.7205,0.520248938
0.721,-0.090139878
0.7215,-0.090139878
0.722,0.21505453
0.7225,-0.090139878
0.723,-1.005723101
0.7235,-1.005723101
0.724,-0.090139878
0.7245,-0.090139878
0.725,-1.310917508
0.7255,-2.531695139
0.726,-1.005723101
0.7265,1.130637753
0.727,1.741026569
0.7275,0.21505453
0.728,-0.395334285
0.7285,0.21505453
0.729,1.435832161
0.7295,1.130637753
0.73,0.21505453
0.7305,-0.090139878
0.731,0.21505453
0.7315,0.21505453
0.732,-0.090139878
0.7325,-0.395334285
0.733,-0.395334285
0.7335,-0.700528693
0.734,-1.005723101
0.7345,-0.395334285
0.735,0.520248938
0.7355,1.130637753
0.736,0.520248938
0.7365,-0.395334285
0.737,-1.005723101
0.7375,-0.395334285
0.738,-0.090139878
0.7385,0.21505453
0.739,-0.090139878
0.7395,-0.090139878
0.74,-0.090139878
0.7405,0.21505453
0.741,0.825443346
0.7415,1.130637753
0.742,0.520248938
0.7425,0.21505453
0.743,0.825443346
0.7435,1.435832161
0.744,0.520248938
0.7445,-0.395334285
0.745,-0.700528693
0.7455,-0.395334285
0.746,-0.090139878
0.7465,-0.090139878
0.747,1.741026569
0.7475,5.098165053
0.748,7.539720315
0.7485,7.234525907
0.749,5.403359461
0.7495,4.18258183
0.75,3.266998607
0.7505,2.046220976
0.751,1.435832161
0.7515,2.351415384
0.752,2.961804199
0.7525,1.741026569
0.753,-0.090139878
0.7535,-1.310917508
0.754,-1.921306324
0.7545,-2.836889547
0.755,-4.668055993
0.7555,-5.583639216
0.756,-4.973250401
0.7565,-4.057667178
0.757,-4.057667178
0.7575,-4.362861585
0.758,-3.447278362
0.7585,-1.921306324
0.759,-1.616111916
0.7595,-2.531695139
0.76,-3.142083955
0.7605,-2.226500731
0.761,-1.005723101
0.7615,-0.395334285
0.762,-0.700528693
0.7625,-0.395334285
0.763,-0.090139878
0.7635,-0.395334285
0.764,-0.090139878
0.7645,0.520248938
0.765,2.351415384
0.7655,2.656609792
0.766,1.741026569
0.7665,0.825443346
0.767,0.21505453
0.7675,-0.090139878
0.768,0.520248938
0.7685,3.266998607
0.769,7.234525907
0.7695,9.370886761
0.77,8.15010913
0.7705,6.013748276
0.771,4.792970646
0.7715,4.18258183
0.772,3.266998607
0.7725,2.656609792
0.773,2.656609792
0.7735,1.741026569
0.774,0.21505453
0.7745,0.520248938
0.775,3.266998607
0.7755,5.098165053
0.776,3.877387423
0.7765,2.046220976
0.777,2.046220976
0.7775,1.741026569
0.778,-0.700528693
0.7785,-3.75247277
0.779,-3.447278362
0.7795,-1.310917508
0.78,-1.616111916
0.7805,-4.362861585
0.781,-5.888833624
0.7815,-5.278444808
0.782,-4.973250401
0.7825,-7.109611255
0.783,-8.940777701
0.7835,-9.551166516
0.784,-8.940777701
0.7845,-8.330388885
0.785,-6.499222439
0.7855,-3.142083955
0.786,-1.310917508
0.7865,-2.531695139
0.787,-3.75247277
0.7875,-2.836889547
0.788,-1.005723101
0.7885,-0.395334285
0.789,-1.616111916
0.7895,-2.226500731
0.79,-2.226500731
0.7905,-2.531695139
0.791,-4.057667178
0.7915,-5.888833624
0.792,-6.499222439
0.7925,-6.804416847
0.793,-6.804416847
0.7935,-6.194028032
0.794,-4.668055993
0.7945,-2.531695139
0.795,-0.700528693
0.7955,0.520248938
0.796,1.435832161
0.7965,2.046220976
0.797,2.046220976
0.7975,2.351415384
0.798,2.961804199
0.7985,3.877387423
0.799,3.572193015
0.7995,2.961804199
0.8,2.351415384
0.8005,2.656609792
0.801,2.961804199
0.8015,2.656609792
0.802,1.741026569
0.8025,1.435832161
0.803,1.741026569
0.8035,2.656609792
0.804,2.961804199
0.8045,2.351415384
0.805,1.130637753
0.8055,0.21505453
0.806,-0.090139878
0.8065,0.21505453
0.807,1.435832161
0.8075,2.656609792
0.808,2.961804199
0.8085,2.046220976
0.809,0.825443346
0.8095,-0.090139878
0.81,0.520248938
0.8105,1.130637753
0.811,1.130637753
0.8115,0.520248938
0.812,-0.090139878
0.8125,-0.700528693
0.813,-0.700528693
0.8135,0.21505453
0.814,1.435832161
0.8145,2.351415384
0.815,1.741026569
0.8155,0.21505453
0.816,-1.005723101
0.8165,-1.005723101
0.817,-0.395334285
0.8175,0.21505453
0.818,0.520248938
0.8185,0.825443346
0.819,1.741026569
0.8195,2.351415384
0.82,1.130637753
0.8205,-0.395334285
0.821,-0.090139878
0.8215,1.435832161
0.822,2.351415384
0.8225,0.520248938
0.823,-0.090139878
0.8235,2.656609792
0.824,6.318942684
0.8245,6.9293315
0.825,4.792970646
0.8255,3.877387423
0.826,5.708553869
0.8265,7.539720315
0.827,6.9293315
0.8275,5.403359461
0.828,4.18258183
0.8285,3.572193015
0.829,2.961804199
0.8295,2.656609792
0.83,2.046220976
0.8305,0.520248938
0.831,-1.310917508
0.8315,-1.616111916
0.832,0.21505453
0.8325,2.046220976
0.833,1.130637753
0.8335,-0.395334285
0.834,-0.395334285
0.8345,1.741026569
0.835,3.572193015
0.8355,2.656609792
0.836,0.21505453
0.8365,-0.395334285
0.837,0.520248938
0.8375,2.351415384
0.838,3.266998607
0.8385,2.351415384
0.839,0.21505453
0.8395,-1.921306324
0.84,-4.057667178
0.8405,-6.194028032
0.841,-8.330388885
0.8415,-11.07713855
0.842,-12.60311059
0.8425,-12.29791619
0.843,-11.38233296
0.8435,-10.77194415
0.844,-11.38233296
0.8445,-11.68752737
0.845,-10.16155533
0.8455,-7.72000007
0.846,-6.194028032
0.8465,-5.278444808
0.847,-4.057667178
0.8475,-1.616111916
0.848,0.825443346
0.8485,2.656609792
0.849,2.961804199
0.8495,1.741026569
0.85,0.825443346
0.8505,0.520248938
0.851,0.520248938
0.8515,-0.090139878
0.852,-0.700528693
0.8525,0.21505453
0.853,2.656609792
0.8535,4.487776238
0.854,4.487776238
0.8545,5.403359461
0.855,9.370886761
0.8555,15.16958051
0.856,17.30594136
0.8565,14.8643861
0.857,10.28646998
0.8575,6.9293315
0.858,5.098165053
0.8585,3.266998607
0.859,2.046220976
0.8595,1.130637753
0.86,-0.090139878
0.8605,-3.142083955
0.861,-6.804416847
0.8615,-9.245972109
0.862,-10.77194415
0.8625,-11.99272178
0.863,-12.908305
0.8635,-12.908305
0.864,-11.99272178
0.8645,-10.77194415
0.865,-9.856360924
0.8655,-7.72000007
0.866,-4.973250401
0.8665,-3.447278362
0.867,-3.447278362
0.8675,-3.142083955
0.868,-1.310917508
0.8685,1.130637753
0.869,1.741026569
0.8695,0.825443346
0.87,-0.090139878
0.8705,-0.395334285
0.871,-0.700528693
0.8715,-1.616111916
0.872,-2.531695139
0.8725,-2.531695139
0.873,-2.226500731
0.8735,-2.836889547
0.874,-4.057667178
0.8745,-3.75247277
0.875,-2.531695139
0.8755,-1.616111916
0.876,-1.005723101
0.8765,-0.090139878
0.877,0.825443346
0.8775,0.520248938
0.878,-0.700528693
0.8785,-1.005723101
0.879,0.21505453
0.8795,1.741026569
0.88,1.435832161
0.8805,0.520248938
0.881,1.130637753
0.8815,2.351415384
0.882,2.351415384
0.8825,1.741026569
0.883,1.741026569
0.8835,2.046220976
0.884,1.435832161
0.8845,0.825443346
0.885,0.825443346
0.8855,2.046220976
0.886,2.351415384
0.8865,2.351415384
0.887,3.572193015
0.8875,5.708553869
0.888,6.318942684
0.8885,4.792970646
0.889,2.961804199
0.8895,2.961804199
0.89,3.877387423
0.8905,3.572193015
0.891,2.351415384
0.8915,1.435832161
0.892,1.130637753
0.8925,1.741026569
0.893,1.741026569
0.8935,1.435832161
0.894,0.825443346
0.8945,0.520248938
0.895,-0.090139878
0.8955,-1.310917508
0.896,-2.226500731
0.8965,-2.226500731
0.897,-1.310917508
0.8975,-0.090139878
0.898,2.351415384
0.8985,5.098165053
0.899,6.013748276
0.8995,5.098165053
0.9,4.792970646
0.9005,6.624137092
0.901,8.455303538
0.9015,6.9293315
0.902,3.877387423
0.9025,2.656609792
0.903,2.656609792
0.9035,2.046220976
0.904,-0.090139878
0.9045,-0.700528693
0.905,1.130637753
0.9055,4.792970646
0.906,10.8968588
0.9065,19.13710781
0.907,24.93580155
0.9075,23.10463511
0.908,13.94880288
0.9085,5.403359461
0.909,3.266998607
0.9095,4.18258183
0.91,3.266998607
0.9105,-0.395334285
0.911,-5.278444808
0.9115,-9.856360924
0.912,-12.29791619
0.9125,-12.60311059
0.913,-12.29791619
0.9135,-13.82388822
0.914,-16.8758323
0.9145,-19.01219316
0.915,-20.53816519
0.9155,-21.75894282
0.916,-22.36933164
0.9165,-21.14855401
0.917,-18.40180434
0.9175,-15.96024908
0.918,-13.82388822
0.9185,-9.245972109
0.919,-3.447278362
0.9195,-0.395334285
0.92,-2.226500731
0.9205,-4.973250401
0.921,-5.278444808
0.9215,-3.142083955
0.922,-1.005723101
0.9225,-0.090139878
0.923,-0.090139878
0.9235,-0.395334285
0.924,-0.700528693
0.9245,-0.395334285
0.925,2.961804199
0.9255,9.370886761
0.926,15.16958051
0.9265,16.69555255
0.927,13.33841406
0.9275,9.065692354
0.928,7.844914723
0.9285,7.844914723
0.929,4.487776238
0.9295,-0.395334285
0.93,-2.226500731
0.9305,1.130637753
0.931,5.098165053
0.9315,3.572193015
0.932,-1.921306324
0.9325,-6.194028032
0.933,-7.109611255
0.9335,-6.499222439
0.934,-6.499222439
0.9345,-7.109611255
0.935,-8.025194478
0.9355,-10.16155533
0.936,-12.29791619
0.9365,-12.908305
0.937,-12.29791619
0.9375,-11.07713855
0.938,-9.856360924
0.9385,-8.025194478
0.939,-6.499222439
0.9395,-5.888833624
0.94,-4.668055993
0.9405,-1.616111916
0.941,2.656609792
0.9415,5.403359461
0.942,4.487776238
0.9425,2.046220976
0.943,1.741026569
0.9435,4.18258183
0.944,6.318942684
0.9445,6.624137092
0.945,6.318942684
0.9455,6.624137092
0.946,7.234525907
0.9465,6.318942684
0.947,3.877387423
0.9475,1.741026569
0.948,1.130637753
0.9485,0.825443346
0.949,0.21505453
0.9495,-0.090139878
0.95,0.520248938
0.9505,1.435832161
0.951,1.130637753
0.9515,1.435832161
0.952,2.961804199
0.9525,4.487776238
0.953,4.18258183
0.9535,2.656609792
0.954,1.741026569
0.9545,2.046220976
0.955,3.266998607
0.9555,3.266998607
0.956,2.351415384
0.9565,1.741026569
0.957,2.656609792
0.9575,3.572193015
0.958,3.266998607
0.9585,2.046220976
0.959,1.435832161
0.9595,2.046220976
0.96,2.961804199
0.9605,2.656609792
0.961,1.435832161
0.9615,1.435832161
0.962,2.351415384
0.9625,2.046220976
0.963,1.130637753
0.9635,0.520248938
0.964,0.825443346
0.9645,0.520248938
0.965,-0.090139878
0.9655,0.21505453
0.966,1.435832161
0.9665,2.046220976
0.967,0.520248938
0.9675,-0.090139878
0.968,0.825443346
0.9685,2.351415384
0.969,2.351415384
0.9695,0.825443346
0.97,-0.090139878
0.9705,-0.090139878
0.971,-0.090139878
0.9715,0.21505453
0.972,0.520248938
0.9725,1.435832161
0.973,1.435832161
0.9735,0.520248938
0.974,-0.090139878
0.9745,-0.090139878
0.975,-0.090139878
0.9755,-0.090139878
0.976,-0.090139878
0.9765,0.21505453
0.977,0.825443346
0.9775,0.825443346
0.978,0.520248938
0.9785,0.21505453
0.979,-0.090139878
0.9795,-0.090139878
0.98,0.520248938
0.9805,0.825443346
0.981,0.825443346
0.9815,0.825443346
0.982,0.21505453
0.9825,-0.090139878
0.983,-1.310917508
0.9835,-1.921306324
0.984,-1.005723101
0.9845,-0.090139878
0.985,0.21505453
0.9855,-0.090139878
0.986,0.21505453
0.9865,0.825443346
0.987,1.435832161
0.9875,1.741026569
0.988,2.351415384
0.9885,2.046220976
0.989,0.21505453
0.9895,-0.395334285
0.99,3.572193015
0.9905,13.94880288
0.991,23.10463511
0.9915,24.32541274
0.992,19.13710781
0.9925,13.94880288
0.993,11.50724762
0.9935,9.065692354
0.994,6.013748276
0.9945,3.572193015
0.995,2.656609792
0.9955,0.825443346
0.996,-2.226500731
0.9965,-4.057667178
0.997,-3.142083955
0.9975,-1.921306324
0.998,-2.531695139
0.9985,-3.142083955
0.999,-0.700528693
0.9995,2.351415384
1,2.961804199
1.0005,1.130637753
1.001,0.520248938
1.0015,0.825443346
1.002,-0.090139878
1.0025,-2.226500731
1.003,-3.75247277
1.0035,-3.75247277
1.004,-4.668055993
1.0045,-7.72000007
1.005,-11.38233296
1.0055,-13.51869382
1.006,-15.04466585
1.0065,-17.18102671
1.007,-19.92777638
1.0075,-22.97972046
1.008,-25.72647012
1.0085,-26.03166453
1.009,-21.75894282
1.0095,-15.04466585
1.01,-10.46674974
1.0105,-8.940777701
1.011,-7.414805662
1.0115,-4.668055993
1.012,-3.75247277
1.0125,-5.278444808
1.013,-5.888833624
1.0135,-2.226500731
1.014,2.046220976
1.0145,4.487776238
1.015,6.9293315
1.0155,10.8968588
1.016,14.55919169
1.0165,14.25399728
1.017,11.81244202
1.0175,10.8968588
1.018,10.59166439
1.0185,8.15010913
1.019,4.18258183
1.0195,2.046220976
1.02,0.21505453
1.0205,-4.057667178
1.021,-11.07713855
1.0215,-15.65505467
1.022,-15.04466585
1.0225,-12.29791619
1.023,-10.46674974
1.0235,-10.16155533
1.024,-9.551166516
1.0245,-8.635583293
1.025,-6.804416847
1.0255,-2.226500731
1.026,2.351415384
1.0265,4.18258183
1.027,2.046220976
1.0275,-1.005723101
1.028,-2.226500731
1.0285,-1.921306324
1.029,-2.226500731
1.0295,-2.226500731
1.03,-1.005723101
1.0305,-0.090139878
1.031,-0.395334285
1.0315,-1.616111916
1.032,-1.310917508
1.0325,0.21505453
1.033,0.825443346
1.0335,-0.090139878
1.034,-0.700528693
1.0345,-0.090139878
1.035,0.520248938
1.0355,-0.090139878
1.036,-0.700528693
1.0365,-0.090139878
1.037,0.825443346
1.0375,0.520248938
1.038,-0.090139878
1.0385,-0.090139878
1.039,1.435832161
1.0395,2.351415384
1.04,2.656609792
1.0405,2.961804199
1.041,2.656609792
1.0415,1.741026569
1.042,1.435832161
1.0425,2.656609792
1.043,3.877387423
1.0435,2.351415384
1.044,-0.395334285
1.0445,-1.310917508
1.045,0.825443346
1.0455,3.266998607
1.046,3.877387423
1.0465,3.877387423
1.047,4.18258183
1.0475,4.18258183
1.048,2.656609792
1.0485,1.130637753
1.049,1.435832161
1.0495,2.351415384
1.05,1.435832161
1.0505,-0.090139878
1.051,-0.395334285
1.0515,1.130637753
1.052,2.656609792
1.0525,2.046220976
1.053,0.825443346
1.0535,1.435832161
1.054,2.656609792
1.0545,2.961804199
1.055,2.046220976
1.0555,1.741026569
1.056,2.046220976
1.0565,2.046220976
1.057,1.130637753
1.0575,-0.090139878
1.058,-0.090139878
1.0585,0.520248938
1.059,0.825443346
1.0595,1.130637753
1.06,2.046220976
1.0605,2.351415384
1.061,1.130637753
1.0615,0.21505453
1.062,0.520248938
1.0625,1.741026569
1.063,2.046220976
1.0635,1.130637753
1.064,0.21505453
1.0645,0.21505453
1.065,0.825443346
1.0655,0.520248938
1.066,-0.090139878
1.0665,-0.090139878
1.067,-0.090139878
1.0675,-0.090139878
1.068,-0.090139878
1.0685,-0.090139878
1.069,-0.090139878
1.0695,-0.090139878
1.07,-0.395334285
1.0705,-0.090139878
1.071,0.21505453
1.0715,0.825443346
1.072,0.825443346
1.0725,0.520248938
1.073,0.825443346
1.0735,0.825443346
1.074,1.130637753
1.0745,1.130637753
1.075,0.520248938
1.0755,-0.090139878
1.076,-0.700528693
1.0765,-0.395334285
1.077,-0.090139878
1.0775,-0.090139878
1.078,-0.090139878
1.0785,-0.090139878
1.079,0.825443346
1.0795,1.130637753
1.08,0.520248938
1.0805,-0.090139878
1.081,-0.090139878
1.0815,0.21505453
1.082,-0.090139878
1.0825,-0.090139878
1.083,0.520248938
1.0835,1.435832161
1.084,0.520248938
1.0845,-1.005723101
1.085,-1.921306324
1.0855,-0.700528693
1.086,0.21505453
1.0865,0.825443346
1.087,0.825443346
1.0875,0.825443346
1.088,0.825443346
1.0885,0.21505453
1.089,-0.090139878
1.0895,-0.395334285
1.09,-0.395334285
1.0905,-0.090139878
1.091,0.21505453
1.0915,0.520248938
1.092,0.21505453
1.0925,-0.395334285
1.093,-1.005723101
1.0935,-1.005723101
1.094,-1.310917508
1.0945,-1.005723101
1.095,-0.090139878
1.0955,-0.090139878
1.096,-0.090139878
1.0965,-0.395334285
1.097,0.520248938
1.0975,1.741026569
1.098,2.046220976
1.0985,1.130637753
1.099,0.825443346
1.0995,0.520248938
1.1,-0.090139878
1.1005,-0.700528693
1.101,-0.395334285
1.1015,-0.090139878
1.102,-0.395334285
1.1025,-1.005723101
1.103,-0.395334285
1.1035,0.825443346
1.104,0.825443346
1.1045,-0.090139878
1.105,-0.700528693
1.1055,-0.395334285
1.106,-0.700528693
1.1065,-1.616111916
1.107,-1.005723101
1.1075,-0.090139878
1.108,-0.090139878
1.1085,-1.005723101
1.109,-1.005723101
1.1095,0.520248938
1.11,1.435832161
1.1105,0.825443346
1.111,0.21505453
1.1115,1.435832161
1.112,2.656609792
1.1125,1.741026569
1.113,0.21505453
1.1135,-0.090139878
1.114,0.520248938
1.1145,1.130637753
1.115,1.435832161
1.1155,1.741026569
1.116,1.741026569
1.1165,1.435832161
1.117,1.741026569
1.1175,2.656609792
1.118,2.656609792
1.1185,1.435832161
1.119,-0.090139878
1.1195,-1.005723101
1.12,-0.395334285
1.1205,-0.090139878
1.121,-0.090139878
1.1215,-0.090139878
1.122,-0.090139878
1.1225,-0.700528693
1.123,-1.616111916
1.1235,-1.616111916
1.124,-0.395334285
1.1245,-0.090139878
1.125,-1.310917508
1.1255,-3.142083955
1.126,-3.75247277
1.1265,-2.836889547
1.127,-2.836889547
1.1275,-4.362861585
1.128,-4.973250401
1.1285,-2.836889547
1.129,-0.700528693
1.1295,-1.310917508
1.13,-3.142083955
1.1305,-2.836889547
1.131,-1.005723101
1.1315,-0.700528693
1.132,-2.226500731
1.1325,-3.142083955
1.133,-1.921306324
1.1335,-0.700528693
1.134,-1.310917508
1.1345,-2.226500731
1.135,-2.226500731
1.1355,-1.921306324
1.136,-1.921306324
1.1365,-1.310917508
1.137,0.21505453
1.1375,0.825443346
1.138,-0.090139878
1.1385,-0.700528693
1.139,-0.090139878
1.1395,1.435832161
1.14,1.435832161
1.1405,0.21505453
1.141,-0.700528693
1.1415,-1.310917508
1.142,-1.310917508
1.1425,-0.395334285
1.143,-0.090139878
1.1435,-0.700528693
1.144,-1.921306324
1.1445,-1.310917508
1.145,-0.090139878
1.1455,-0.090139878
1.146,-1.005723101
1.1465,-1.005723101
1.147,0.520248938
1.1475,1.741026569
1.148,1.130637753
1.1485,-0.090139878
1.149,-0.090139878
1.1495,-0.090139878
1.15,0.21505453
1.1505,1.435832161
1.151,2.961804199
1.1515,2.656609792
1.152,1.130637753
1.1525,0.21505453
1.153,1.435832161
1.1535,2.961804199
1.154,2.961804199
1.1545,1.741026569
1.155,0.825443346
1.1555,0.825443346
1.156,1.435832161
1.1565,1.435832161
1.157,1.435832161
1.1575,1.741026569
1.158,2.656609792
1.1585,3.572193015
1.159,2.961804199
1.1595,1.741026569
1.16,1.741026569
1.1605,3.572193015
1.161,6.013748276
1.1615,9.065692354
1.162,13.03321965
1.1625,17.91633018
1.163,19.44230222
1.1635,16.69555255
1.164,12.72802525
1.1645,12.11763643
1.165,13.03321965
1.1655,10.8968588
1.166,5.403359461
1.1665,-0.090139878
1.167,-4.057667178
1.1675,-6.804416847
1.168,-9.856360924
1.1685,-12.60311059
1.169,-14.73947145
1.1695,-16.26544349
1.17,-16.8758323
1.1705,-16.26544349
1.171,-15.96024908
1.1715,-16.57063789
1.172,-17.48622112
1.1725,-17.18102671
1.173,-16.57063789
1.1735,-15.96024908
1.174,-15.04466585
1.1745,-12.29791619
1.175,-8.940777701
1.1755,-7.414805662
1.176,-7.109611255
1.1765,-5.583639216
1.177,-3.447278362
1.1775,-1.921306324
1.178,-1.921306324
1.1785,-2.226500731
1.179,-1.921306324
1.1795,-1.616111916
1.18,-1.005723101
1.1805,-0.090139878
1.181,0.21505453
1.1815,0.21505453
1.182,0.21505453
1.1825,0.520248938
1.183,0.21505453
1.1835,-1.005723101
1.184,-1.616111916
1.1845,-0.090139878
1.185,1.130637753
1.1855,-0.090139878
1.186,-2.531695139
1.1865,-3.447278362
1.187,-1.616111916
1.1875,-0.090139878
1.188,0.21505453
1.1885,-0.090139878
1.189,0.21505453
1.1895,-0.090139878
1.19,-0.090139878
1.1905,-0.090139878
1.191,1.130637753
1.1915,1.435832161
1.192,0.520248938
1.1925,0.21505453
1.193,1.130637753
1.1935,2.351415384
1.194,2.351415384
1.1945,2.046220976
1.195,2.046220976
1.1955,2.351415384
1.196,1.741026569
1.1965,1.435832161
1.197,2.351415384
1.1975,3.266998607
1.198,3.266998607
1.1985,2.656609792
1.199,2.961804199
1.1995,3.572193015
1.2,3.572193015
1.2005,2.656609792
1.201,2.046220976
1.2015,1.435832161
1.202,0.520248938
1.2025,-0.395334285
1.203,-0.090139878
1.2035,2.046220976
1.204,4.18258183
1.2045,4.18258183
1.205,2.351415384
1.2055,0.825443346
1.206,0.825443346
1.2065,0.825443346
1.207,0.520248938
1.2075,-0.090139878
1.208,-0.090139878
1.2085,1.130637753
1.209,2.656609792
1.2095,3.572193015
1.21,2.961804199
1.2105,2.046220976
1.211,1.435832161
1.2115,1.130637753
1.212,0.520248938
1.2125,0.825443346
1.213,2.351415384
1.2135,3.266998607
1.214,1.741026569
1.2145,-0.395334285
1.215,-1.005723101
1.2155,0.21505453
1.216,1.741026569
1.2165,2.046220976
1.217,2.046220976
1.2175,2.351415384
1.218,2.351415384
1.2185,0.825443346
1.219,-0.090139878
1.2195,0.21505453
1.22,1.435832161
1.2205,1.435832161
1.221,1.130637753
1.2215,1.130637753
1.222,1.435832161
1.2225,2.351415384
1.223,3.572193015
1.2235,3.877387423
1.224,2.351415384
1.2245,0.21505453
1.225,0.825443346
1.2255,3.266998607
1.226,2.961804199
1.2265,1.130637753
1.227,2.961804199
1.2275,8.455303538
1.228,10.59166439
1.2285,7.234525907
1.229,8.455303538
1.2295,23.40982952
1.23,42.02668839
1.2305,47.52018772
1.231,36.83838345
1.2315,24.32541274
1.232,19.44230222
1.2325,17.61113577
1.233,12.42283084
1.2335,5.708553869
1.234,-0.090139878
1.2345,-6.194028032
1.235,-13.82388822
1.2355,-19.92777638
1.236,-22.06413723
1.2365,-24.50569249
1.237,-28.7784142
1.2375,-31.52516387
1.238,-29.69399742
1.2385,-26.94724776
1.239,-26.33685894
1.2395,-25.72647012
1.24,-21.14855401
1.2405,-15.04466585
1.241,-12.29791619
1.2415,-11.68752737
1.242,-9.856360924
1.2425,-7.109611255
1.243,-6.804416847
1.2435,-8.635583293
1.244,-10.16155533
1.2445,-9.245972109
1.245,-7.72000007
1.2455,-5.888833624
1.246,-4.362861585
1.2465,-4.362861585
1.247,-5.583639216
1.2475,-5.583639216
1.248,-2.226500731
1.2485,1.741026569
1.249,2.961804199
1.2495,1.741026569
1.25,1.130637753
1.2505,2.656609792
1.251,3.877387423
1.2515,3.572193015
1.252,3.266998607
1.2525,3.572193015
1.253,2.961804199
1.2535,0.21505453
1.254,-1.310917508
1.2545,-0.090139878
1.255,2.351415384
1.2555,2.961804199
1.256,1.741026569
1.2565,0.825443346
1.257,1.130637753
1.2575,1.130637753
1.258,0.520248938
1.2585,0.520248938
1.259,1.130637753
1.2595,1.741026569
1.26,1.435832161
1.2605,1.435832161
1.261,3.266998607
1.2615,4.792970646
1.262,4.792970646
1.2625,3.877387423
1.263,3.877387423
1.2635,4.487776238
1.264,4.487776238
1.2645,3.877387423
1.265,3.877387423
1.2655,4.18258183
1.266,4.487776238
1.2665,3.877387423
1.267,2.656609792
1.2675,2.046220976
1.268,1.741026569
1.2685,2.351415384
1.269,2.961804199
1.2695,3.266998607
1.27,2.656609792
1.2705,2.046220976
1.271,2.046220976
1.2715,2.046220976
1.272,1.435832161
1.2725,0.21505453
1.273,-0.395334285
1.2735,-0.395334285
1.274,-0.090139878
1.2745,1.130637753
1.275,1.435832161
1.2755,0.520248938
1.276,-0.395334285
1.2765,-0.395334285
1.277,0.520248938
1.2775,0.825443346
1.278,-0.090139878
1.2785,-1.005723101
1.279,-0.090139878
1.2795,1.435832161
1.28,2.351415384
1.2805,2.046220976
1.281,2.046220976
1.2815,2.351415384
1.282,2.046220976
1.2825,1.741026569
1.283,1.741026569
1.2835,1.741026569
1.284,1.130637753
1.2845,1.435832161
1.285,3.266998607
1.2855,6.013748276
1.286,6.9293315
1.2865,6.624137092
1.287,6.624137092
1.2875,8.455303538
1.288,9.981275577
1.2885,9.981275577
1.289,8.455303538
1.2895,7.539720315
1.29,7.844914723
1.2905,9.370886761
1.291,9.981275577
1.2915,9.065692354
1.292,6.624137092
1.2925,4.487776238
1.293,2.656609792
1.2935,0.520248938
1.294,-2.226500731
1.2945,-4.362861585
1.295,-5.583639216
1.2955,-7.109611255
1.296,-9.245972109
1.2965,-10.46674974
1.297,-9.856360924
1.2975,-9.245972109
1.298,-10.46674974
1.2985,-11.99272178
1.299,-11.99272178
1.2995,-9.856360924
1.3,-8.940777701
1.3005,-8.940777701
1.301,-7.109611255
1.3015,-1.616111916
1.302,5.098165053
1.3025,9.676081169
1.303,9.676081169
1.3035,8.760497946
1.304,9.676081169
1.3045,13.33841406
1.305,16.69555255
1.3055,17.30594136
1.306,16.69555255
1.3065,16.08516373
1.307,14.8643861
1.3075,10.8968588
1.308,4.18258183
1.3085,-2.226500731
1.309,-5.583639216
1.3095,-6.804416847
1.31,-8.940777701
1.3105,-12.60311059
1.311,-15.96024908
1.3115,-19.31738756
1.312,-23.89530368
1.3125,-28.47321979
1.313,-28.7784142
1.3135,-22.97972046
1.314,-15.34986026
1.3145,-11.38233296
1.315,-11.38233296
1.3155,-11.68752737
1.316,-9.856360924
1.3165,-7.72000007
1.317,-7.72000007
1.3175,-9.245972109
1.318,-9.856360924
1.3185,-8.025194478
1.319,-5.583639216
1.3195,-4.668055993
1.32,-5.278444808
1.3205,-5.888833624
1.321,-5.583639216
1.3215,-6.804416847
1.322,-11.07713855
1.3225,-15.34986026
1.323,-15.65505467
1.3235,-11.07713855
1.324,-6.499222439
1.3245,-4.057667178
1.325,-3.142083955
1.3255,-1.310917508
1.326,1.130637753
1.3265,2.656609792
1.327,2.961804199
1.3275,2.961804199
1.328,2.961804199
1.3285,2.656609792
1.329,2.656609792
1.3295,3.877387423
1.33,5.403359461
1.3305,5.403359461
1.331,4.487776238
1.3315,4.18258183
1.332,4.18258183
1.3325,3.572193015
1.333,2.656609792
1.3335,3.266998607
1.334,4.792970646
1.3345,4.792970646
1.335,3.266998607
1.3355,1.741026569
1.336,1.435832161
1.3365,2.046220976
1.337,2.961804199
1.3375,4.487776238
1.338,5.708553869
1.3385,5.403359461
1.339,4.487776238
1.3395,3.572193015
1.34,2.961804199
1.3405,1.130637753
1.341,0.21505453
1.3415,1.741026569
1.342,3.877387423
1.3425,4.18258183
1.343,2.351415384
1.3435,1.741026569
1.344,2.656609792
1.3445,2.656609792
1.345,0.825443346
1.3455,-0.090139878
1.346,1.741026569
1.3465,3.877387423
1.347,3.877387423
1.3475,2.046220976
1.348,1.130637753
1.3485,1.435832161
1.349,2.046220976
1.3495,2.351415384
1.35,2.656609792
1.3505,2.656609792
1.351,2.656609792
1.3515,2.351415384
1.352,1.130637753
1.3525,-0.090139878
1.353,-0.090139878
1.3535,0.825443346
1.354,1.435832161
1.3545,0.520248938
1.355,-0.090139878
1.3555,0.21505453
1.356,2.046220976
1.3565,2.656609792
1.357,2.351415384
1.3575,2.961804199
1.358,5.708553869
1.3585,7.539720315
1.359,6.318942684
1.3595,3.266998607
1.36,1.741026569
1.3605,2.351415384
1.361,2.961804199
1.3615,2.351415384
1.362,2.046220976
1.3625,2.961804199
1.363,4.18258183
1.3635,3.572193015
1.364,3.572193015
1.3645,7.234525907
1.365,13.64360847
1.3655,17.91633018
1.366,16.39035814
1.3665,12.11763643
1.367,9.370886761
1.3675,9.065692354
1.368,8.455303538
1.3685,5.403359461
1.369,2.046220976
1.3695,-0.090139878
1.37,-0.395334285
1.3705,-1.921306324
1.371,-5.278444808
1.3715,-8.940777701
1.372,-11.99272178
1.3725,-14.43427704
1.373,-15.96024908
1.3735,-15.34986026
1.374,-12.29791619
1.3745,-7.414805662
1.375,-3.447278362
1.3755,-1.616111916
1.376,-1.005723101
1.3765,-0.090139878
1.377,0.520248938
1.3775,0.520248938
1.378,-0.395334285
1.3785,-2.531695139
1.379,-4.057667178
1.3795,-4.362861585
1.38,-3.142083955
1.3805,-1.921306324
1.381,-2.226500731
1.3815,-4.362861585
1.382,-6.804416847
1.3825,-8.330388885
1.383,-8.330388885
1.3835,-8.025194478
1.384,-8.635583293
1.3845,-9.245972109
1.385,-8.635583293
1.3855,-6.499222439
1.386,-3.75247277
1.3865,-2.226500731
1.387,-3.447278362
1.3875,-5.583639216
1.388,-6.194028032
1.3885,-5.888833624
1.389,-5.888833624
1.3895,-6.194028032
1.39,-5.278444808
1.3905,-3.142083955
1.391,-1.310917508
1.3915,-1.921306324
1.392,-3.447278362
1.3925,-3.142083955
1.393,-1.310917508
1.3935,0.21505453
1.394,0.825443346
1.3945,1.435832161
1.395,2.961804199
1.3955,2.961804199
1.396,2.046220976
1.3965,1.741026569
1.397,3.877387423
1.3975,6.9293315
1.398,7.844914723
1.3985,6.9293315
1.399,6.9293315
1.3995,8.15010913
1.4,7.844914723
1.4005,6.013748276
1.401,3.877387423
1.4015,2.961804199
1.402,2.656609792
1.4025,2.046220976
1.403,1.130637753
1.4035,0.825443346
1.404,-0.090139878
1.4045,-1.005723101
1.405,-1.310917508
1.4055,-1.005723101
1.406,-0.700528693
1.4065,-1.310917508
1.407,-1.616111916
1.4075,-0.700528693
1.408,-0.090139878
1.4085,0.21505453
1.409,0.520248938
1.4095,1.435832161
1.41,2.351415384
1.4105,1.741026569
1.411,0.21505453
1.4115,-0.395334285
1.412,-0.700528693
1.4125,-0.395334285
1.413,-0.090139878
1.4135,0.825443346
1.414,1.741026569
1.4145,1.435832161
1.415,0.520248938
1.4155,-0.090139878
1.416,-0.090139878
1.4165,-0.395334285
1.417,-1.310917508
1.4175,-0.700528693
1.418,0.825443346
1.4185,2.046220976
1.419,1.435832161
1.4195,0.520248938
1.42,-0.090139878
1.4205,0.21505453
1.421,0.520248938
1.4215,1.130637753
1.422,1.741026569
1.4225,1.435832161
1.423,0.21505453
1.4235,-0.090139878
1.424,0.21505453
1.4245,1.130637753
1.425,2.351415384
1.4255,6.318942684
1.426,11.81244202
1.4265,14.55919169
1.427,11.50724762
1.4275,5.708553869
1.428,3.266998607
1.4285,4.792970646
1.429,4.792970646
1.4295,2.046220976
1.43,0.520248938
1.4305,2.961804199
1.431,6.013748276
1.4315,5.403359461
1.432,2.351415384
1.4325,-0.090139878
1.433,-0.700528693
1.4335,-1.921306324
1.434,-3.75247277
1.4345,-4.057667178
1.435,-2.531695139
1.4355,-1.005723101
1.436,-0.395334285
1.4365,-1.310917508
1.437,-3.447278362
1.4375,-5.888833624
1.438,-7.109611255
1.4385,-6.804416847
1.439,-5.888833624
1.4395,-6.194028032
1.44,-7.109611255
1.4405,-8.330388885
1.441,-8.940777701
1.4415,-9.245972109
1.442,-8.940777701
1.4425,-8.330388885
1.443,-7.109611255
1.4435,-4.973250401
1.444,-1.310917508
1.4445,2.656609792
1.445,6.9293315
1.4455,9.370886761
1.446,8.455303538
1.4465,3.572193015
1.447,-1.616111916
1.4475,-2.836889547
1.448,1.435832161
1.4485,7.234525907
1.449,8.455303538
1.4495,4.792970646
1.45,0.520248938
1.4505,-1.310917508
1.451,-2.531695139
1.4515,-3.75247277
1.452,-5.278444808
1.4525,-6.804416847
1.453,-8.940777701
1.4535,-10.77194415
1.454,-11.68752737
1.4545,-10.77194415
1.455,-9.551166516
1.4555,-9.551166516
1.456,-9.856360924
1.4565,-9.245972109
1.457,-7.72000007
1.4575,-6.499222439
1.458,-5.888833624
1.4585,-5.583639216
1.459,-4.362861585
1.4595,-3.447278362
1.46,-4.057667178
1.4605,-5.278444808
1.461,-5.278444808
1.4615,-3.142083955
1.462,-0.395334285
1.4625,0.825443346
1.463,1.435832161
1.4635,1.741026569
1.464,1.741026569
1.4645,0.825443346
1.465,0.21505453
1.4655,0.520248938
1.466,2.046220976
1.4665,2.961804199
1.467,2.961804199
1.4675,2.351415384
1.468,1.741026569
1.4685,1.435832161
1.469,2.046220976
1.4695,2.961804199
1.47,3.572193015
1.4705,3.572193015
1.471,3.572193015
1.4715,3.877387423
1.472,3.877387423
1.4725,3.266998607
1.473,2.656609792
1.4735,2.961804199
1.474,3.572193015
1.4745,3.572193015
1.475,2.961804199
1.4755,2.656609792
1.476,2.961804199
1.4765,2.351415384
1.477,1.130637753
1.4775,0.21505453
1.478,0.21505453
1.4785,0.21505453
1.479,-0.090139878
1.4795,-1.005723101
1.48,-1.921306324
1.4805,-1.921306324
1.481,-1.005723101
1.4815,-0.090139878
1.482,0.520248938
1.4825,-0.090139878
1.483,-0.700528693
1.4835,-0.700528693
1.484,0.825443346
1.4845,3.572193015
1.485,5.708553869
1.4855,6.318942684
1.486,5.403359461
1.4865,4.487776238
1.487,5.098165053
1.4875,4.792970646
1.488,2.046220976
1.4885,-0.700528693
1.489,-0.395334285
1.4895,2.656609792
1.49,4.487776238
1.4905,2.351415384
1.491,-1.005723101
1.4915,-2.226500731
1.492,-1.005723101
1.4925,-0.090139878
1.493,-1.005723101
1.4935,-2.226500731
1.494,-2.226500731
1.4945,-1.616111916
1.495,-1.616111916
1.4955,-1.616111916
1.496,-0.395334285
1.4965,1.130637753
1.497,2.961804199
1.4975,4.18258183
1.498,5.098165053
1.4985,4.487776238
1.499,3.266998607
1.4995,2.046220976
1.5,2.046220976
1.5005,2.656609792
1.501,2.351415384
1.5015,1.435832161
1.502,0.520248938
1.5025,0.21505453
1.503,0.21505453
1.5035,0.21505453
1.504,-0.090139878
1.5045,-0.090139878
1.505,-0.395334285
1.5055,-0.700528693
1.506,-0.395334285
1.5065,-0.090139878
1.507,-0.395334285
1.5075,-1.005723101
1.508,-1.616111916
1.5085,-1.921306324
1.509,-2.531695139
1.5095,-2.226500731
1.51,-1.310917508
1.5105,-0.395334285
1.511,-0.395334285
1.5115,-1.005723101
1.512,-0.090139878
1.5125,0.825443346
1.513,1.130637753
1.5135,2.656609792
1.514,6.9293315
1.5145,11.81244202
1.515,12.42283084
1.5155,8.455303538
1.516,4.792970646
1.5165,3.877387423
1.517,2.351415384
1.5175,-1.616111916
1.518,-5.278444808
1.5185,-4.362861585
1.519,-0.700528693
1.5195,-0.395334285
1.52,-3.75247277
1.5205,-6.804416847
1.521,-7.72000007
1.5215,-7.72000007
1.522,-8.635583293
1.5225,-9.245972109
1.523,-8.330388885
1.5235,-6.194028032
1.524,-5.278444808
1.5245,-4.973250401
1.525,-4.362861585
1.5255,-4.057667178
1.526,-4.973250401
1.5265,-6.499222439
1.527,-6.804416847
1.5275,-4.973250401
1.528,-3.142083955
1.5285,-1.921306324
1.529,-1.616111916
1.5295,-1.310917508
1.53,-1.005723101
1.5305,-0.700528693
1.531,-0.395334285
1.5315,0.21505453
1.532,1.741026569
1.5325,3.572193015
1.533,4.792970646
1.5335,5.098165053
1.534,3.877387423
1.5345,1.741026569
1.535,-0.090139878
1.5355,-0.395334285
1.536,0.520248938
1.5365,2.961804199
1.537,4.792970646
1.5375,5.403359461
1.538,4.18258183
1.5385,2.656609792
1.539,1.741026569
1.5395,1.435832161
1.54,1.130637753
1.5405,0.21505453
1.541,-0.395334285
1.5415,-0.700528693
1.542,-1.005723101
1.5425,-1.310917508
1.543,-1.310917508
1.5435,-1.310917508
1.544,-1.616111916
1.5445,-1.921306324
1.545,-1.310917508
1.5455,0.21505453
1.546,1.435832161
1.5465,1.741026569
1.547,1.435832161
1.5475,0.520248938
1.548,-0.090139878
1.5485,-0.395334285
1.549,-0.090139878
1.5495,0.825443346
1.55,0.520248938
1.5505,-0.090139878
1.551,-0.395334285
1.5515,-0.090139878
1.552,-0.090139878
1.5525,-1.005723101
1.553,-1.310917508
1.5535,0.21505453
1.554,1.741026569
1.5545,0.825443346
1.555,-1.005723101
1.5555,-1.616111916
1.556,-0.395334285
1.5565,1.130637753
1.557,1.741026569
1.5575,1.435832161
1.558,1.435832161
1.5585,2.351415384
1.559,2.656609792
1.5595,2.351415384
1.56,1.741026569
1.5605,1.435832161
1.561,1.435832161
1.5615,0.520248938
1.562,-0.395334285
1.5625,-0.395334285
1.563,1.130637753
1.5635,3.877387423
1.564,5.403359461
1.5645,5.098165053
1.565,3.572193015
1.5655,1.741026569
1.566,0.825443346
1.5665,0.825443346
1.567,1.130637753
1.5675,1.435832161
1.568,1.741026569
1.5685,2.046220976
1.569,1.741026569
1.5695,0.520248938
1.57,-0.700528693
1.5705,-1.616111916
1.571,-1.310917508
1.5715,-0.395334285
1.572,0.520248938
1.5725,0.825443346
1.573,-0.090139878
1.5735,-0.700528693
1.574,-0.090139878
1.5745,1.130637753
1.575,0.825443346
1.5755,-0.700528693
1.576,-1.005723101
1.5765,0.825443346
1.577,1.741026569
1.5775,-0.395334285
1.578,-1.310917508
1.5785,3.572193015
1.579,12.11763643
1.5795,15.47477492
1.58,12.11763643
1.5805,7.234525907
1.581,5.708553869
1.5815,6.013748276
1.582,5.098165053
1.5825,2.961804199
1.583,0.520248938
1.5835,-1.616111916
1.584,-2.226500731
1.5845,-0.090139878
1.585,2.961804199
1.5855,2.351415384
1.586,-1.921306324
1.5865,-5.888833624
1.587,-6.804416847
1.5875,-6.804416847
1.588,-8.635583293
1.5885,-11.38233296
1.589,-12.908305
1.5895,-13.21349941
1.59,-14.73947145
1.5905,-15.96024908
1.591,-15.96024908
1.5915,-15.65505467
1.592,-15.65505467
1.5925,-14.73947145
1.593,-11.38233296
1.5935,-7.414805662
1.594,-4.057667178
1.5945,-1.616111916
1.595,-0.090139878
1.5955,-0.090139878
1.596,-0.395334285
1.5965,1.130637753
1.597,6.318942684
1.5975,9.981275577
1.598,9.065692354
1.5985,6.9293315
1.599,8.15010913
1.5995,11.81244202
1.6,13.03321965
1.6005,9.676081169
1.601,5.708553869
1.6015,3.266998607
1.602,1.435832161
1.6025,-0.700528693
1.603,-2.531695139
1.6035,-3.75247277
1.604,-4.973250401
1.6045,-6.804416847
1.605,-7.72000007
1.6055,-7.109611255
1.606,-7.414805662
1.6065,-8.635583293
1.607,-8.635583293
1.6075,-6.804416847
1.608,-4.668055993
1.6085,-3.447278362
1.609,-2.226500731
1.6095,-1.005723101
1.61,-0.700528693
1.6105,-1.310917508
1.611,-1.005723101
1.6115,1.741026569
1.612,4.18258183
1.6125,4.18258183
1.613,2.046220976
1.6135,-0.090139878
1.614,-1.310917508
1.6145,-2.836889547
1.615,-4.057667178
1.6155,-4.057667178
1.616,-3.75247277
1.6165,-4.362861585
1.617,-4.668055993
1.6175,-3.142083955
1.618,-1.005723101
1.6185,-0.395334285
1.619,-1.005723101
1.6195,-1.005723101
1.62,0.520248938
1.6205,2.046220976
1.621,2.351415384
1.6215,2.656609792
1.622,2.961804199
1.6225,2.656609792
1.623,1.435832161
1.6235,0.520248938
1.624,0.520248938
1.6245,0.825443346
1.625,0.21505453
1.6255,-0.090139878
1.626,-0.090139878
1.6265,1.130637753
1.627,2.351415384
1.6275,3.266998607
1.628,3.266998607
1.6285,2.351415384
1.629,1.130637753
1.6295,0.520248938
1.63,0.520248938
1.6305,1.435832161
1.631,2.046220976
1.6315,1.741026569
1.632,1.130637753
1.6325,1.130637753
1.633,1.741026569
1.6335,1.741026569
1.634,0.520248938
1.6345,-0.395334285
1.635,-0.395334285
1.6355,0.520248938
1.636,0.825443346
1.6365,-0.395334285
1.637,-1.616111916
1.6375,-0.395334285
1.638,0.825443346
1.6385,1.435832161
1.639,0.825443346
1.6395,0.825443346
1.64,2.351415384
1.6405,3.266998607
1.641,2.351415384
1.6415,0.520248938
1.642,-0.090139878
1.6425,0.21505453
1.643,1.130637753
1.6435,0.825443346
1.644,-0.090139878
1.6445,0.21505453
1.645,1.435832161
1.6455,1.741026569
1.646,1.435832161
1.6465,1.130637753
1.647,1.435832161
1.6475,1.130637753
1.648,-0.090139878
1.6485,0.21505453
1.649,2.656609792
1.6495,5.403359461
1.65,6.013748276
1.6505,5.708553869
1.651,5.098165053
1.6515,4.487776238
1.652,2.961804199
1.6525,2.046220976
1.653,2.656609792
1.6535,4.18258183
1.654,4.18258183
1.6545,3.877387423
1.655,5.098165053
1.6555,7.234525907
1.656,7.844914723
1.6565,5.708553869
1.657,4.487776238
1.6575,5.098165053
1.658,6.318942684
1.6585,6.9293315
1.659,6.9293315
1.6595,7.234525907
1.66,6.318942684
1.6605,3.266998607
1.661,-0.700528693
1.6615,-3.447278362
1.662,-5.583639216
1.6625,-8.025194478
1.663,-10.77194415
1.6635,-12.60311059
1.664,-12.908305
1.6645,-12.908305
1.665,-13.82388822
1.6655,-13.21349941
1.666,-7.414805662
1.6665,2.351415384
1.667,9.676081169
1.6675,9.676081169
1.668,4.487776238
1.6685,0.825443346
1.669,0.21505453
1.6695,-1.005723101
1.67,-3.75247277
1.6705,-4.057667178
1.671,-1.310917508
1.6715,-0.700528693
1.672,-4.668055993
1.6725,-10.16155533
1.673,-12.60311059
1.6735,-12.908305
1.674,-14.12908263
1.6745,-15.65505467
1.675,-14.43427704
1.6755,-11.68752737
1.676,-8.940777701
1.6765,-5.583639216
1.677,-0.090139878
1.6775,5.098165053
1.678,6.318942684
1.6785,4.487776238
1.679,2.961804199
1.6795,3.266998607
1.68,2.656609792
1.6805,0.825443346
1.681,0.21505453
1.6815,1.435832161
1.682,1.741026569
1.6825,-0.395334285
1.683,-3.447278362
1.6835,-4.973250401
1.684,-4.362861585
1.6845,-3.447278362
1.685,-2.531695139
1.6855,-1.921306324
1.686,-1.921306324
1.6865,-2.531695139
1.687,-2.531695139
1.6875,-0.700528693
1.688,1.435832161
1.6885,3.266998607
1.689,3.572193015
1.6895,3.266998607
1.69,3.266998607
1.6905,3.572193015
1.691,3.266998607
1.6915,2.351415384
1.692,2.046220976
1.6925,2.351415384
1.693,2.351415384
1.6935,1.741026569
1.694,0.21505453
1.6945,-0.395334285
1.695,-1.005723101
1.6955,-0.090139878
1.696,1.130637753
1.6965,2.961804199
1.697,3.572193015
1.6975,3.572193015
1.698,3.572193015
1.6985,3.266998607
1.699,2.046220976
1.6995,0.825443346
1.7,1.130637753
1.7005,2.656609792
1.701,3.572193015
1.7015,3.266998607
1.702,2.961804199
1.7025,2.656609792
1.703,1.741026569
1.7035,0.520248938
1.704,0.520248938
1.7045,1.130637753
1.705,0.825443346
1.7055,-0.090139878
1.706,0.21505453
1.7065,2.046220976
1.707,2.046220976
1.7075,-0.090139878
1.708,-1.310917508
1.7085,-0.090139878
1.709,2.046220976
1.7095,1.435832161
1.71,-0.700528693
1.7105,-0.700528693
1.711,0.825443346
1.7115,1.435832161
1.712,-0.090139878
1.7125,-0.395334285
1.713,1.130637753
1.7135,3.877387423
1.714,4.18258183
1.7145,2.351415384
1.715,0.21505453
1.7155,-0.395334285
1.716,-0.090139878
1.7165,-0.090139878
1.717,-0.090139878
1.7175,-0.700528693
1.718,-1.616111916
1.7185,-1.310917508
1.719,-1.310917508
1.7195,-2.226500731
1.72,-2.836889547
1.7205,-2.531695139
1.721,-1.616111916
1.7215,-1.616111916
1.722,-1.921306324
1.7225,-1.310917508
1.723,-0.090139878
1.7235,-0.090139878
1.724,0.520248938
1.7245,2.656609792
1.725,6.624137092
1.7255,9.981275577
1.726,10.28646998
1.7265,8.15010913
1.727,5.708553869
1.7275,3.572193015
1.728,2.351415384
1.7285,0.825443346
1.729,-1.005723101
1.7295,-2.531695139
1.73,-1.921306324
1.7305,-0.090139878
1.731,-0.090139878
1.7315,-2.531695139
1.732,-4.973250401
1.7325,-4.973250401
1.733,-3.75247277
1.7335,-4.057667178
1.734,-5.888833624
1.7345,-6.499222439
1.735,-6.194028032
1.7355,-6.804416847
1.736,-7.72000007
1.7365,-7.109611255
1.737,-6.194028032
1.7375,-7.109611255
1.738,-8.025194478
1.7385,-6.499222439
1.739,-2.531695139
1.7395,-0.090139878
1.74,-0.395334285
1.7405,-1.616111916
1.741,-1.005723101
1.7415,-0.090139878
1.742,-0.090139878
1.7425,-1.616111916
1.743,-2.531695139
1.7435,-1.310917508
1.744,1.741026569
1.7445,4.487776238
1.745,5.403359461
1.7455,4.792970646
1.746,5.098165053
1.7465,5.708553869
1.747,5.403359461
1.7475,3.266998607
1.748,2.046220976
1.7485,2.046220976
1.749,2.351415384
1.7495,0.825443346
1.75,-1.310917508
1.7505,-2.226500731
1.751,-2.226500731
1.7515,-2.531695139
1.752,-3.142083955
1.7525,-1.921306324
1.753,0.21505453
1.7535,1.435832161
1.754,0.21505453
1.7545,-0.395334285
1.755,-0.090139878
1.7555,0.520248938
1.756,0.21505453
1.7565,-0.700528693
1.757,-0.700528693
1.7575,0.21505453
1.758,2.046220976
1.7585,4.487776238
1.759,6.9293315
1.7595,7.234525907
1.76,5.098165053
1.7605,2.656609792
1.761,3.266998607
1.7615,5.403359461
1.762,5.098165053
1.7625,1.435832161
1.763,-2.531695139
1.7635,-4.668055993
1.764,-4.668055993
1.7645,-4.057667178
1.765,-3.75247277
1.7655,-3.447278362
1.766,-4.362861585
1.7665,-6.804416847
1.767,-8.025194478
1.7675,-6.804416847
1.768,-4.973250401
1.7685,-4.973250401
1.769,-5.583639216
1.7695,-5.278444808
1.77,-3.447278362
1.7705,-1.921306324
1.771,-0.395334285
1.7715,2.046220976
1.772,3.877387423
1.7725,2.961804199
1.773,0.520248938
1.7735,-0.090139878
1.774,0.825443346
1.7745,2.046220976
1.775,1.435832161
1.7755,0.825443346
1.776,0.520248938
1.7765,-0.090139878
1.777,-0.395334285
1.7775,0.21505453
1.778,1.741026569
1.7785,1.435832161
1.779,-0.395334285
1.7795,-1.616111916
1.78,-0.395334285
1.7805,1.130637753
1.781,1.130637753
1.7815,0.21505453
1.782,0.520248938
1.7825,1.130637753
1.783,0.520248938
1.7835,-1.005723101
1.784,-1.310917508
1.7845,0.21505453
1.785,2.351415384
1.7855,2.961804199
1.786,2.961804199
1.7865,3.572193015
1.787,4.792970646
1.7875,5.708553869
1.788,6.013748276
1.7885,5.098165053
1.789,3.266998607
1.7895,0.825443346
1.79,-0.395334285
1.7905,-0.090139878
1.791,0.520248938
1.7915,-0.090139878
1.792,-1.310917508
1.7925,-2.226500731
1.793,-1.616111916
1.7935,-0.395334285
1.794,-0.090139878
1.7945,-0.395334285
1.795,-1.005723101
1.7955,-1.310917508
1.796,-1.310917508
1.7965,-1.005723101
1.797,-0.090139878
1.7975,-0.090139878
1.798,-0.700528693
1.7985,-1.921306324
1.799,-1.616111916
1.7995,-0.090139878
1.8,1.130637753
1.8005,0.21505453
1.801,-0.700528693
1.8015,-0.395334285
1.802,0.21505453
1.8025,0.520248938
1.803,-0.090139878
1.8035,-0.395334285
1.804,0.21505453
1.8045,0.825443346
1.805,0.825443346
1.8055,0.520248938
1.806,1.130637753
1.8065,2.046220976
1.807,3.266998607
1.8075,5.403359461
1.808,9.065692354
1.8085,12.11763643
1.809,12.11763643
1.8095,8.760497946
1.81,5.098165053
1.8105,4.18258183
1.811,4.18258183
1.8115,2.961804199
1.812,0.21505453
1.8125,-1.921306324
1.813,-2.531695139
1.8135,-2.531695139
1.814,-4.057667178
1.8145,-6.194028032
1.815,-7.72000007
1.8155,-8.025194478
1.816,-7.72000007
1.8165,-8.330388885
1.817,-9.551166516
1.8175,-9.856360924
1.818,-8.940777701
1.8185,-7.414805662
1.819,-6.499222439
1.8195,-5.583639216
1.82,-3.75247277
1.8205,-0.700528693
1.821,2.351415384
1.8215,2.961804199
1.822,1.130637753
1.8225,-1.310917508
1.823,-2.226500731
1.8235,-0.090139878
1.824,2.656609792
1.8245,3.877387423
1.825,2.656609792
1.8255,0.21505453
1.826,-0.395334285
1.8265,-0.090139878
1.827,-0.090139878
1.8275,-0.395334285
1.828,-0.395334285
1.8285,-0.090139878
1.829,-0.395334285
1.8295,-2.226500731
1.83,-3.142083955
1.8305,-2.836889547
1.831,-2.226500731
1.8315,-2.531695139
1.832,-2.226500731
1.8325,-0.090139878
1.833,1.741026569
1.8335,0.825443346
1.834,-1.616111916
1.8345,-2.226500731
1.835,-0.090139878
1.8355,1.741026569
1.836,1.741026569
1.8365,0.520248938
1.837,-0.090139878
1.8375,-0.395334285
1.838,-0.700528693
1.8385,-0.395334285
1.839,0.21505453
1.8395,0.21505453
1.84,-1.310917508
1.8405,-2.531695139
1.841,-1.310917508
1.8415,1.130637753
1.842,2.656609792
1.8425,3.266998607
1.843,3.877387423
1.8435,5.403359461
1.844,6.013748276
1.8445,5.098165053
1.845,4.18258183
1.8455,3.572193015
1.846,2.656609792
1.8465,0.825443346
1.847,-0.700528693
1.8475,-1.616111916
1.848,-2.836889547
1.8485,-4.668055993
1.849,-6.194028032
1.8495,-6.499222439
1.85,-6.499222439
1.8505,-5.888833624
1.851,-5.278444808
1.8515,-4.362861585
1.852,-4.362861585
1.8525,-4.973250401
1.853,-3.75247277
1.8535,0.520248938
1.854,5.708553869
1.8545,7.844914723
1.855,5.708553869
1.8555,2.351415384
1.856,0.21505453
1.8565,0.21505453
1.857,0.520248938
1.8575,0.520248938
1.858,-0.090139878
1.8585,-2.226500731
1.859,-4.362861585
1.8595,-4.973250401
1.86,-4.057667178
1.8605,-2.531695139
1.861,-1.005723101
1.8615,-0.090139878
1.862,0.520248938
1.8625,0.21505453
1.863,-0.395334285
1.8635,-0.700528693
1.864,-0.090139878
1.8645,2.046220976
1.865,4.18258183
1.8655,5.403359461
1.866,4.792970646
1.8665,3.266998607
1.867,2.656609792
1.8675,3.572193015
1.868,3.266998607
1.8685,1.130637753
1.869,-1.005723101
1.8695,-1.005723101
1.87,-0.090139878
1.8705,-1.310917508
1.871,-3.447278362
1.8715,-4.057667178
1.872,-2.531695139
1.8725,-1.005723101
1.873,-1.616111916
1.8735,-2.836889547
1.874,-3.447278362
1.8745,-2.836889547
1.875,-2.226500731
1.8755,-1.310917508
1.876,-0.700528693
1.8765,-0.395334285
1.877,-0.090139878
1.8775,0.520248938
1.878,1.130637753
1.8785,1.435832161
1.879,1.435832161
1.8795,2.046220976
1.88,2.961804199
1.8805,2.656609792
1.881,1.435832161
1.8815,-0.090139878
1.882,-1.310917508
1.8825,-1.921306324
1.883,-0.700528693
1.8835,1.435832161
1.884,3.572193015
1.8845,3.266998607
1.885,2.046220976
1.8855,2.351415384
1.886,3.266998607
1.8865,2.961804199
1.887,0.520248938
1.8875,-1.005723101
1.888,-1.616111916
1.8885,-1.616111916
1.889,-2.836889547
1.8895,-4.362861585
1.89,-4.668055993
1.8905,-3.447278362
1.891,-2.836889547
1.8915,-3.447278362
1.892,-4.057667178
1.8925,-4.057667178
1.893,-3.142083955
1.8935,-2.226500731
1.894,-1.616111916
1.8945,-1.616111916
1.895,-1.616111916
1.8955,-1.310917508
1.896,-0.090139878
1.8965,2.961804199
1.897,5.098165053
1.8975,5.098165053
1.898,5.098165053
1.8985,7.234525907
1.899,10.28646998
1.8995,10.59166439
1.9,6.9293315
1.9005,3.877387423
1.901,3.572193015
1.9015,4.18258183
1.902,3.572193015
1.9025,2.046220976
1.903,1.741026569
1.9035,1.741026569
1.904,0.21505453
1.9045,-2.226500731
1.905,-4.362861585
1.9055,-4.362861585
1.906,-4.362861585
1.9065,-4.973250401
1.907,-5.888833624
1.9075,-6.194028032
1.908,-6.194028032
1.9085,-6.804416847
1.909,-6.804416847
1.9095,-5.583639216
1.91,-4.362861585
1.9105,-4.973250401
1.911,-6.804416847
1.9115,-6.499222439
1.912,-3.142083955
1.9125,0.520248938
1.913,2.656609792
1.9135,2.351415384
1.914,1.741026569
1.9145,1.130637753
1.915,0.520248938
1.9155,-0.090139878
1.916,-0.395334285
1.9165,-0.700528693
1.917,-0.090139878
1.9175,0.825443346
1.918,2.046220976
1.9185,1.741026569
1.919,-0.090139878
1.9195,-1.005723101
1.92,-1.005723101
1.9205,-0.700528693
1.921,-0.395334285
1.9215,0.21505453
1.922,2.046220976
1.9225,3.572193015
1.923,4.487776238
1.9235,6.624137092
1.924,9.370886761
1.9245,9.981275577
1.925,7.234525907
1.9255,4.18258183
1.926,4.18258183
1.9265,6.013748276
1.927,6.318942684
1.9275,3.572193015
1.928,-0.090139878
1.9285,-3.142083955
1.929,-4.973250401
1.9295,-6.194028032
1.93,-7.414805662
1.9305,-7.414805662
1.931,-4.668055993
1.9315,-0.090139878
1.932,3.877387423
1.9325,3.877387423
1.933,0.21505453
1.9335,-2.531695139
1.934,-3.447278362
1.9345,-3.142083955
1.935,-3.75247277
1.9355,-4.362861585
1.936,-3.142083955
1.9365,-2.226500731
1.937,-2.226500731
1.9375,-2.836889547
1.938,-2.531695139
1.9385,-1.310917508
1.939,-1.005723101
1.9395,-1.616111916
1.94,-2.226500731
1.9405,-1.921306324
1.941,-0.090139878
1.9415,1.741026569
1.942,3.572193015
1.9425,3.877387423
1.943,3.877387423
1.9435,3.877387423
1.944,3.572193015
1.9445,1.435832161
1.945,-1.921306324
1.9455,-4.362861585
1.946,-4.057667178
1.9465,-3.447278362
1.947,-3.75247277
1.9475,-4.057667178
1.948,-3.447278362
1.9485,-1.616111916
1.949,-1.005723101
1.9495,-1.310917508
1.95,-1.005723101
1.9505,-0.090139878
1.951,1.130637753
1.9515,0.520248938
1.952,-0.395334285
1.9525,-0.700528693
1.953,-0.090139878
1.9535,0.520248938
1.954,0.520248938
1.9545,0.520248938
1.955,1.435832161
1.9555,2.351415384
1.956,2.351415384
1.9565,1.741026569
1.957,1.130637753
1.9575,0.520248938
1.958,-0.090139878
1.9585,-0.090139878
1.959,0.21505453
1.9595,1.435832161
1.96,2.656609792
1.9605,3.572193015
1.961,3.266998607
1.9615,2.656609792
1.962,2.961804199
1.9625,4.487776238
1.963,5.403359461
1.9635,4.18258183
1.964,2.046220976
1.9645,2.046220976
1.965,3.877387423
1.9655,4.792970646
1.966,3.266998607
1.9665,1.130637753
1.967,0.825443346
1.9675,1.130637753
1.968,-0.090139878
1.9685,-1.005723101
1.969,-0.090139878
1.9695,2.656609792
1.97,4.18258183
1.9705,3.877387423
1.971,3.877387423
1.9715,4.18258183
1.972,3.572193015
1.9725,1.741026569
1.973,0.21505453
1.9735,0.21505453
1.974,-0.395334285
1.9745,-2.836889547
1.975,-4.362861585
1.9755,-4.362861585
1.976,-4.057667178
1.9765,-4.973250401
1.977,-5.583639216
1.9775,-4.362861585
1.978,-2.226500731
1.9785,-1.310917508
1.979,-1.310917508
1.9795,-1.310917508
1.98,-1.005723101
1.9805,-0.700528693
1.981,-0.700528693
1.9815,-0.395334285
1.982,-0.090139878
1.9825,0.520248938
1.983,1.435832161
1.9835,1.435832161
1.984,-0.090139878
1.9845,-1.616111916
1.985,-1.310917508
1.9855,0.21505453
1.986,1.130637753
1.9865,-0.090139878
1.987,-1.005723101
1.9875,-0.700528693
1.988,0.21505453
1.9885,0.21505453
1.989,-0.700528693
1.9895,-1.921306324
1.99,-1.921306324
1.9905,-0.090139878
1.991,3.266998607
1.9915,5.708553869
1.992,4.792970646
1.9925,1.435832161
1.993,-0.700528693
1.9935,-0.700528693
1.994,-0.090139878
1.9945,-0.700528693
1.995,-0.700528693
1.9955,1.741026569
1.996,6.624137092
1.9965,9.676081169
1.997,8.760497946
1.9975,4.487776238
1.998,0.520248938
1.9985,1.130637753
1.999,7.844914723
1.9995,15.77996932
2,19.13710781
2.0005,15.47477492
2.001,9.065692354
2.0015,5.708553869
2.002,4.792970646
2.0025,2.351415384
2.003,-1.005723101
2.0035,-3.75247277
2.004,-5.583639216
2.0045,-8.025194478
2.005,-11.38233296
2.0055,-14.12908263
2.006,-15.04466585
2.0065,-15.04466585
2.007,-16.26544349
2.0075,-17.48622112
2.008,-16.26544349
2.0085,-11.07713855
2.009,-4.057667178
2.0095,0.825443346
2.01,2.351415384
2.0105,0.520248938
2.011,-2.226500731
2.0115,-4.057667178
2.012,-4.973250401
2.0125,-4.668055993
2.013,-4.362861585
2.0135,-5.583639216
2.014,-7.72000007
2.0145,-8.635583293
2.015,-7.109611255
2.0155,-4.973250401
2.016,-5.888833624
2.0165,-9.245972109
2.017,-10.46674974
2.0175,-6.804416847
2.018,-1.310917508
2.0185,0.825443346
2.019,0.520248938
2.0195,0.520248938
2.02,1.741026569
2.0205,1.741026569
2.021,-0.090139878
2.0215,-2.226500731
2.022,-2.226500731
2.0225,-1.616111916
2.023,-1.616111916
2.0235,-2.531695139
2.024,-3.447278362
2.0245,-3.447278362
2.025,-2.836889547
2.0255,-1.921306324
2.026,-0.700528693
2.0265,-0.090139878
2.027,0.21505453
2.0275,1.130637753
2.028,2.656609792
2.0285,4.487776238
2.029,5.098165053
2.0295,4.792970646
2.03,4.18258183
2.0305,3.572193015
2.031,3.572193015
2.0315,3.572193015
2.032,3.572193015
2.0325,2.961804199
2.033,2.656609792
2.0335,2.351415384
2.034,2.656609792
2.0345,2.961804199
2.035,2.351415384
2.0355,1.435832161
2.036,0.520248938
2.0365,1.130637753
2.037,2.351415384
2.0375,3.266998607
2.038,2.656609792
2.0385,1.741026569
2.039,2.046220976
2.0395,3.572193015
2.04,5.098165053
2.0405,5.098165053
2.041,3.877387423
2.0415,2.351415384
2.042,2.351415384
2.0425,2.656609792
2.043,2.351415384
2.0435,1.130637753
2.044,0.520248938
2.0445,0.520248938
2.045,1.130637753
2.0455,1.130637753
2.046,0.825443346
2.0465,1.130637753
2.047,1.130637753
2.0475,1.130637753
2.048,0.825443346
2.0485,0.21505453
2.049,-0.090139878
2.0495,-1.005723101
2.05,-1.310917508
2.0505,-0.700528693
2.051,-0.395334285
2.0515,-1.005723101
2.052,-1.921306324
2.0525,-1.616111916
2.053,-1.310917508
2.0535,-1.005723101
2.054,0.21505453
2.0545,2.961804199
2.055,5.403359461
2.0555,6.013748276
2.056,5.098165053
2.0565,4.487776238
2.057,3.877387423
2.0575,2.961804199
2.058,2.351415384
2.0585,2.961804199
2.059,4.487776238
2.0595,4.18258183
2.06,1.130637753
2.0605,-1.921306324
2.061,-3.142083955
2.0615,-2.226500731
2.062,-1.616111916
2.0625,-3.447278362
2.063,-6.194028032
2.0635,-8.025194478
2.064,-8.025194478
2.0645,-7.414805662
2.065,-7.109611255
2.0655,-6.804416847
2.066,-5.583639216
2.0665,-3.75247277
2.067,-2.836889547
2.0675,-2.531695139
2.068,-1.616111916
2.0685,-0.090139878
2.069,0.825443346
2.0695,0.825443346
2.07,1.435832161
2.0705,2.961804199
2.071,3.877387423
2.0715,3.266998607
2.072,2.351415384
2.0725,2.046220976
2.073,2.046220976
2.0735,1.741026569
2.074,1.130637753
2.0745,0.825443346
2.075,1.130637753
2.0755,1.741026569
2.076,2.351415384
2.0765,2.656609792
2.077,1.741026569
2.0775,-0.090139878
2.078,-1.616111916
2.0785,-1.310917508
2.079,-0.395334285
2.0795,-0.700528693
2.08,-1.310917508
2.0805,-0.090139878
2.081,1.130637753
2.0815,0.21505453
2.082,-2.226500731
2.0825,-4.057667178
2.083,-3.447278362
2.0835,-2.531695139
2.084,-3.75247277
2.0845,-5.888833624
2.085,-5.583639216
2.0855,-4.362861585
2.086,-4.362861585
2.0865,-5.278444808
2.087,-4.057667178
2.0875,-1.005723101
2.088,-0.090139878
2.0885,-1.616111916
2.089,-2.226500731
2.0895,0.825443346
2.09,5.708553869
2.0905,7.234525907
2.091,4.792970646
2.0915,2.046220976
2.092,0.825443346
2.0925,0.825443346
2.093,0.21505453
2.0935,0.21505453
2.094,-0.090139878
2.0945,-0.395334285
2.095,-1.616111916
2.0955,-2.531695139
2.096,-2.836889547
2.0965,-2.531695139
2.097,-1.921306324
2.0975,-0.700528693
2.098,0.21505453
2.0985,0.21505453
2.099,-0.090139878
2.0995,-0.395334285
2.1,-0.090139878
2.1005,-0.090139878
2.101,-0.090139878
2.1015,-0.395334285
2.102,-0.090139878
2.1025,-0.090139878
2.103,-0.395334285
2.1035,-0.090139878
2.104,0.520248938
2.1045,-0.090139878
2.105,-1.005723101
2.1055,-1.616111916
2.106,-0.395334285
2.1065,-0.090139878
2.107,-0.090139878
2.1075,0.825443346
2.108,2.961804199
2.1085,4.487776238
2.109,3.266998607
2.1095,1.130637753
2.11,0.825443346
2.1105,2.046220976
2.111,2.351415384
2.1115,2.351415384
2.112,2.351415384
2.1125,2.046220976
2.113,1.130637753
2.1135,-0.090139878
2.114,0.520248938
2.1145,1.435832161
2.115,1.435832161
2.1155,0.21505453
2.116,-0.090139878
2.1165,1.130637753
2.117,1.741026569
2.1175,1.130637753
2.118,0.520248938
2.1185,0.825443346
2.119,1.741026569
2.1195,1.130637753
2.12,-0.090139878
2.1205,-1.310917508
2.121,-2.226500731
2.1215,-1.921306324
2.122,-0.395334285
2.1225,2.046220976
2.123,4.792970646
2.1235,5.708553869
2.124,5.098165053
2.1245,4.487776238
2.125,4.487776238
2.1255,3.572193015
2.126,2.046220976
2.1265,0.825443346
2.127,1.435832161
2.1275,2.351415384
2.128,2.656609792
2.1285,2.351415384
2.129,1.130637753
2.1295,-0.090139878
2.13,-0.090139878
2.1305,3.572193015
2.131,10.59166439
2.1315,15.77996932
2.132,14.55919169
2.1325,8.15010913
2.133,2.046220976
2.1335,-0.090139878
2.134,0.825443346
2.1345,0.825443346
2.135,-1.005723101
2.1355,-5.278444808
2.136,-8.635583293
2.1365,-9.856360924
2.137,-8.940777701
2.1375,-7.72000007
2.138,-6.804416847
2.1385,-6.499222439
2.139,-5.583639216
2.1395,-5.278444808
2.14,-4.973250401
2.1405,-4.668055993
2.141,-4.057667178
2.1415,-4.057667178
2.142,-5.583639216
2.1425,-6.804416847
2.143,-7.109611255
2.1435,-6.804416847
2.144,-6.804416847
2.1445,-6.499222439
2.145,-5.583639216
2.1455,-6.194028032
2.146,-8.635583293
2.1465,-10.77194415
2.147,-10.46674974
2.1475,-8.025194478
2.148,-3.75247277
2.1485,0.825443346
2.149,6.013748276
2.1495,8.760497946
2.15,7.234525907
2.1505,4.18258183
2.151,2.961804199
2.1515,2.961804199
2.152,1.435832161
2.1525,-0.700528693
2.153,-1.921306324
2.1535,-1.310917508
2.154,-1.310917508
2.1545,-2.836889547
2.155,-4.668055993
2.1555,-5.278444808
2.156,-5.278444808
2.1565,-4.362861585
2.157,-2.836889547
2.1575,-1.616111916
2.158,-1.616111916
2.1585,-1.921306324
2.159,-1.616111916
2.1595,-0.395334285
2.16,0.21505453
2.1605,0.21505453
2.161,0.825443346
2.1615,2.046220976
2.162,2.046220976
2.1625,1.130637753
2.163,-0.090139878
2.1635,-1.005723101
2.164,-0.700528693
2.1645,0.520248938
2.165,2.351415384
2.1655,3.877387423
2.166,4.18258183
2.1665,4.487776238
2.167,5.403359461
2.1675,6.318942684
2.168,6.318942684
2.1685,6.013748276
2.169,5.708553869
2.1695,4.792970646
2.17,3.572193015
2.1705,2.961804199
2.171,2.961804199
2.1715,2.046220976
2.172,-0.395334285
2.1725,-2.531695139
2.173,-2.226500731
2.1735,-0.700528693
2.174,-0.700528693
2.1745,-1.616111916
2.175,-1.921306324
2.1755,-0.395334285
2.176,1.130637753
2.1765,2.351415384
2.177,2.351415384
2.1775,2.046220976
2.178,1.741026569
2.1785,2.351415384
2.179,4.18258183
2.1795,5.708553869
2.18,5.403359461
2.1805,3.877387423
2.181,2.656609792
2.1815,1.435832161
2.182,0.21505453
2.1825,-0.700528693
2.183,-1.616111916
2.1835,-2.226500731
2.184,-3.142083955
2.1845,-2.836889547
2.185,-1.616111916
2.1855,-0.700528693
2.186,-1.616111916
2.1865,-2.836889547
2.187,-2.836889547
2.1875,-2.226500731
2.188,-2.836889547
2.1885,-4.057667178
2.189,-4.668055993
2.1895,-4.057667178
2.19,-3.447278362
2.1905,-3.142083955
2.191,-2.836889547
2.1915,-2.226500731
2.192,-1.921306324
2.1925,-1.921306324
2.193,-0.700528693
2.1935,0.21505453
2.194,0.520248938
2.1945,-0.090139878
2.195,-0.395334285
2.1955,-0.090139878
2.196,0.21505453
2.1965,-0.090139878
2.197,-1.310917508
2.1975,-1.616111916
2.198,-1.616111916
2.1985,-1.005723101
2.199,-0.090139878
2.1995,0.21505453
2.2,0.21505453
2.2005,-0.090139878
2.201,-0.090139878
2.2015,0.21505453
2.202,-0.090139878
2.2025,-0.700528693
2.203,-0.395334285
2.2035,0.520248938
2.204,1.130637753
2.2045,0.520248938
2.205,-0.090139878
2.2055,0.21505453
2.206,2.046220976
2.2065,3.572193015
2.207,3.572193015
2.2075,2.656609792
2.208,1.435832161
2.2085,0.825443346
2.209,1.435832161
2.2095,2.656609792
2.21,2.351415384
2.2105,0.825443346
2.211,-0.090139878
2.2115,0.21505453
2.212,0.520248938
2.2125,0.21505453
2.213,0.21505453
2.2135,1.435832161
2.214,2.961804199
2.2145,3.572193015
2.215,3.266998607
2.2155,3.266998607
2.216,2.351415384
2.2165,1.130637753
2.217,0.520248938
2.2175,0.825443346
2.218,1.130637753
2.2185,0.21505453
2.219,-0.395334285
2.2195,-0.090139878
2.22,-0.090139878
2.2205,-0.395334285
2.221,-0.700528693
2.2215,-0.090139878
2.222,0.520248938
2.2225,-0.700528693
2.223,-2.531695139
2.2235,-2.531695139
2.224,-1.310917508
2.2245,-2.226500731
2.225,-4.668055993
2.2255,-4.362861585
2.226,-1.616111916
2.2265,0.21505453
2.227,-0.090139878
2.2275,-1.005723101
2.228,-0.395334285
2.2285,-0.090139878
2.229,-1.005723101
2.2295,-2.531695139
2.23,-1.616111916
2.2305,1.435832161
2.231,4.18258183
2.2315,4.18258183
2.232,3.266998607
2.2325,3.572193015
2.233,5.403359461
2.2335,7.539720315
2.234,8.760497946
2.2345,7.844914723
2.235,6.318942684
2.2355,6.013748276
2.236,7.234525907
2.2365,7.844914723
2.237,5.708553869
2.2375,2.656609792
2.238,-0.090139878
2.2385,-2.836889547
2.239,-4.668055993
2.2395,-5.278444808
2.24,-5.278444808
2.2405,-7.109611255
2.241,-10.46674974
2.2415,-12.908305
2.242,-12.908305
2.2425,-11.99272178
2.243,-12.908305
2.2435,-13.82388822
2.244,-12.60311059
2.2445,-9.245972109
2.245,-7.109611255
2.2455,-6.804416847
2.246,-4.973250401
2.2465,-0.090139878
2.247,4.792970646
2.2475,6.9293315
2.248,6.624137092
2.2485,5.708553869
2.249,5.098165053
2.2495,3.266998607
2.25,-0.090139878
2.2505,-2.531695139
2.251,-3.142083955
2.2515,-1.616111916
2.252,-0.395334285
2.2525,-0.700528693
2.253,-1.616111916
2.2535,-1.616111916
2.254,-1.005723101
2.2545,-1.005723101
2.255,-1.616111916
2.2555,-1.310917508
2.256,-0.090139878
2.2565,1.435832161
2.257,2.656609792
2.2575,2.656609792
2.258,2.656609792
2.2585,1.741026569
2.259,0.520248938
2.2595,-0.395334285
2.26,-1.310917508
2.2605,-2.226500731
2.261,-3.142083955
2.2615,-3.447278362
2.262,-3.142083955
2.2625,-2.836889547
2.263,-3.447278362
2.2635,-4.362861585
2.264,-4.668055993
2.2645,-3.447278362
2.265,-1.310917508
2.2655,1.130637753
2.266,2.656609792
2.2665,2.351415384
2.267,1.130637753
2.2675,0.21505453
2.268,0.21505453
2.2685,-0.090139878
2.269,-0.700528693
2.2695,-0.700528693
2.27,-0.090139878
2.2705,0.520248938
2.271,0.825443346
2.2715,1.130637753
2.272,2.046220976
2.2725,1.741026569
2.273,0.21505453
2.2735,-0.700528693
2.274,-0.090139878
2.2745,2.046220976
2.275,3.266998607
2.2755,2.961804199
2.276,2.351415384
2.2765,1.741026569
2.277,1.435832161
2.2775,1.130637753
2.278,1.130637753
2.2785,1.741026569
2.279,2.656609792
2.2795,3.266998607
2.28,3.266998607
2.2805,2.351415384
2.281,1.741026569
2.2815,1.435832161
2.282,1.741026569
2.2825,2.351415384
2.283,2.961804199
2.2835,3.877387423
2.284,4.487776238
2.2845,4.18258183
2.285,3.266998607
2.2855,2.656609792
2.286,2.351415384
2.2865,2.351415384
2.287,2.351415384
2.2875,3.572193015
2.288,5.098165053
2.2885,5.708553869
2.289,4.18258183
2.2895,2.046220976
2.29,0.825443346
2.2905,0.21505453
2.291,-0.395334285
2.2915,-1.005723101
2.292,-0.090139878
2.2925,0.520248938
2.293,0.520248938
2.2935,-0.700528693
2.294,-2.531695139
2.2945,-3.447278362
2.295,-4.057667178
2.2955,-4.057667178
2.296,-3.75247277
2.2965,-3.447278362
2.297,-3.75247277
2.2975,-3.447278362
2.298,-2.836889547
2.2985,-2.226500731
2.299,-2.836889547
2.2995,-3.75247277
2.3,-3.75247277
2.3005,-2.531695139
2.301,-1.616111916
2.3015,-2.226500731
2.302,-3.142083955
2.3025,-3.75247277
2.303,-3.142083955
2.3035,-2.226500731
2.304,-1.005723101
2.3045,-0.395334285
2.305,-0.700528693
2.3055,-0.395334285
2.306,1.130637753
2.3065,3.877387423
2.307,4.487776238
2.3075,2.046220976
2.308,-0.090139878
2.3085,0.520248938
2.309,2.351415384
2.3095,2.961804199
2.31,2.046220976
2.3105,1.741026569
2.311,2.656609792
2.3115,3.266998607
2.312,1.741026569
2.3125,-0.090139878
2.313,-0.395334285
2.3135,-0.090139878
2.314,-0.395334285
2.3145,-1.310917508
2.315,-1.921306324
2.3155,-1.616111916
2.316,-1.005723101
2.3165,-1.310917508
2.317,-1.310917508
2.3175,0.520248938
2.318,4.18258183
2.3185,7.539720315
2.319,8.760497946
2.3195,8.760497946
2.32,9.981275577
2.3205,11.20205321
2.321,10.59166439
2.3215,7.234525907
2.322,3.572193015
2.3225,1.130637753
2.323,-0.090139878
2.3235,-1.005723101
2.324,-2.226500731
2.3245,-1.921306324
2.325,-1.921306324
2.3255,-4.362861585
2.326,-7.414805662
2.3265,-8.635583293
2.327,-6.804416847
2.3275,-4.668055993
2.328,-4.057667178
2.3285,-3.447278362
2.329,-2.531695139
2.3295,-2.836889547
2.33,-3.447278362
2.3305,-3.75247277
2.331,-3.142083955
2.3315,-4.057667178
2.332,-5.278444808
2.3325,-3.75247277
2.333,-0.090139878
2.3335,2.046220976
2.334,-0.700528693
2.3345,-5.888833624
2.335,-8.330388885
2.3355,-7.72000007
2.336,-6.804416847
2.3365,-5.888833624
2.337,-4.362861585
2.3375,-2.531695139
2.338,-2.531695139
2.3385,-3.447278362
2.339,-4.362861585
2.3395,-4.057667178
2.34,-3.75247277
2.3405,-3.75247277
2.341,-2.531695139
2.3415,-1.005723101
2.342,-0.090139878
2.3425,1.130637753
2.343,3.266998607
2.3435,5.708553869
2.344,6.624137092
2.3445,6.318942684
2.345,6.013748276
2.3455,6.318942684
2.346,7.539720315
2.3465,8.455303538
2.347,8.455303538
2.3475,6.318942684
2.348,2.961804199
2.3485,0.520248938
2.349,1.130637753
2.3495,2.351415384
2.35,1.741026569
2.3505,-0.700528693
2.351,-2.836889547
2.3515,-2.226500731
2.352,-1.005723101
2.3525,-1.005723101
2.353,-2.836889547
2.3535,-4.668055993
2.354,-4.362861585
2.3545,-2.226500731
2.355,-0.090139878
2.3555,-0.395334285
2.356,-1.310917508
2.3565,-1.005723101
2.357,0.520248938
2.3575,1.741026569
2.358,1.741026569
2.3585,1.741026569
2.359,3.877387423
2.3595,6.013748276
2.36,5.708553869
2.3605,3.877387423
2.361,2.046220976
2.3615,1.741026569
2.362,0.825443346
2.3625,-0.700528693
2.363,-1.921306324
2.3635,-1.921306324
2.364,-2.226500731
2.3645,-3.447278362
2.365,-3.447278362
2.3655,-2.226500731
2.366,-1.005723101
2.3665,-1.921306324
2.367,-3.447278362
2.3675,-2.836889547
2.368,-0.700528693
2.3685,-0.090139878
2.369,-1.005723101
2.3695,-1.921306324
2.37,-1.310917508
2.3705,-0.090139878
2.371,-0.090139878
2.3715,-0.395334285
2.372,-0.395334285
2.3725,-1.005723101
2.373,-1.005723101
2.3735,-0.090139878
2.374,1.130637753
2.3745,1.130637753
2.375,-0.700528693
2.3755,-1.616111916
2.376,-0.395334285
2.3765,0.825443346
2.377,0.825443346
2.3775,0.21505453
2.378,1.130637753
2.3785,2.351415384
2.379,1.130637753
2.3795,-1.005723101
2.38,-1.616111916
2.3805,-0.090139878
2.381,1.130637753
2.3815,0.21505453
2.382,-1.005723101
2.3825,-1.616111916
2.383,-1.921306324
2.3835,-1.921306324
2.384,-1.005723101
2.3845,-0.090139878
2.385,0.520248938
2.3855,-0.700528693
2.386,-2.226500731
2.3865,-2.226500731
2.387,-0.700528693
2.3875,0.21505453
2.388,0.21505453
2.3885,0.21505453
2.389,0.520248938
2.3895,0.825443346
2.39,1.130637753
2.3905,1.130637753
2.391,0.520248938
2.3915,-0.090139878
2.392,0.21505453
2.3925,1.435832161
2.393,2.046220976
2.3935,1.130637753
2.394,-0.090139878
2.3945,-0.090139878
2.395,0.21505453
2.3955,0.520248938
2.396,0.520248938
2.3965,1.130637753
2.397,1.435832161
2.3975,0.825443346
2.398,1.130637753
2.3985,3.266998607
2.399,5.403359461
2.3995,5.098165053
2.4,3.572193015
2.4005,2.351415384
2.401,2.046220976
2.4015,1.435832161
2.402,1.741026569
2.4025,5.708553869
2.403,10.8968588
2.4035,12.11763643
2.404,8.455303538
2.4045,3.572193015
2.405,1.130637753
2.4055,1.130637753
2.406,1.741026569
2.4065,2.656609792
2.407,2.961804199
2.4075,1.130637753
2.408,-1.921306324
2.4085,-3.75247277
2.409,-2.836889547
2.4095,-2.226500731
2.41,-3.447278362
2.4105,-5.583639216
2.411,-6.804416847
2.4115,-7.414805662
2.412,-8.635583293
2.4125,-8.940777701
2.413,-8.330388885
2.4135,-8.025194478
2.414,-8.330388885
2.4145,-8.635583293
2.415,-8.330388885
2.4155,-6.499222439
2.416,-4.362861585
2.4165,-2.836889547
2.417,-2.531695139
2.4175,-3.142083955
2.418,-2.531695139
2.4185,-1.005723101
2.419,-0.090139878
2.4195,-0.395334285
2.42,-1.005723101
2.4205,-0.395334285
2.421,0.825443346
2.4215,2.046220976
2.422,2.351415384
2.4225,2.656609792
2.423,2.656609792
2.4235,1.435832161
2.424,0.21505453
2.4245,-0.090139878
2.425,0.21505453
2.4255,-0.090139878
2.426,-0.395334285
2.4265,-0.395334285
2.427,-0.395334285
2.4275,-0.090139878
2.428,-0.090139878
2.4285,0.21505453
2.429,-0.090139878
2.4295,-0.090139878
2.43,0.21505453
2.4305,0.520248938
2.431,-0.090139878
2.4315,-0.395334285
2.432,0.520248938
2.4325,2.656609792
2.433,2.351415384
2.4335,-0.090139878
2.434,-0.700528693
2.4345,2.351415384
2.435,6.624137092
2.4355,8.760497946
2.436,8.15010913
2.4365,6.318942684
2.437,3.877387423
2.4375,1.741026569
2.438,0.825443346
2.4385,0.21505453
2.439,-0.395334285
2.4395,-1.921306324
2.44,-3.447278362
2.4405,-4.668055993
2.441,-6.499222439
2.4415,-8.025194478
2.442,-8.025194478
2.4425,-7.109611255
2.443,-6.804416847
2.4435,-6.804416847
2.444,-3.75247277
2.4445,1.435832161
2.445,5.403359461
2.4455,5.708553869
2.446,4.18258183
2.4465,3.877387423
2.447,3.572193015
2.4475,2.656609792
2.448,1.435832161
2.4485,0.825443346
2.449,0.520248938
2.4495,0.21505453
2.45,-0.090139878
2.4505,0.21505453
2.451,0.520248938
2.4515,0.520248938
2.452,0.520248938
2.4525,0.825443346
2.453,0.21505453
2.4535,-0.090139878
2.454,-0.090139878
2.4545,0.520248938
2.455,0.21505453
2.4555,-1.310917508
2.456,-2.531695139
2.4565,-2.531695139
2.457,-3.142083955
2.4575,-4.362861585
2.458,-4.668055993
2.4585,-2.836889547
2.459,-1.005723101
2.4595,-1.005723101
2.46,-1.921306324
2.4605,-2.531695139
2.461,-1.921306324
2.4615,-1.616111916
2.462,-0.700528693
2.4625,0.21505453
2.463,1.435832161
2.4635,1.741026569
2.464,1.130637753
2.4645,0.520248938
2.465,-0.090139878
2.4655,-0.395334285
2.466,-0.090139878
2.4665,0.520248938
2.467,0.825443346
2.4675,0.21505453
2.468,-0.090139878
2.4685,-0.090139878
2.469,0.21505453
2.4695,0.21505453
2.47,0.21505453
2.4705,0.21505453
2.471,-0.090139878
2.4715,-0.090139878
2.472,-0.090139878
2.4725,-0.090139878
2.473,-0.090139878
2.4735,-0.395334285
2.474,0.825443346
2.4745,2.656609792
2.475,3.266998607
2.4755,3.877387423
2.476,6.318942684
2.4765,9.981275577
2.477,11.20205321
2.4775,8.455303538
2.478,5.708553869
2.4785,5.403359461
2.479,5.403359461
2.4795,3.877387423
2.48,2.351415384
2.4805,2.656609792
2.481,2.961804199
2.4815,1.130637753
2.482,-2.226500731
2.4825,-4.668055993
2.483,-5.583639216
2.4835,-6.499222439
2.484,-8.330388885
2.4845,-9.245972109
2.485,-8.330388885
2.4855,-7.414805662
2.486,-7.414805662
2.4865,-7.72000007
2.487,-8.025194478
2.4875,-7.414805662
2.488,-6.499222439
2.4885,-5.583639216
2.489,-4.973250401
2.4895,-4.668055993
2.49,-4.362861585
2.4905,-4.057667178
2.491,-3.75247277
2.4915,-2.226500731
2.492,1.130637753
2.4925,6.9293315
2.493,12.42283084
2.4935,16.39035814
2.494,19.44230222
2.4945,20.05269103
2.495,16.39035814
2.4955,10.28646998
2.496,7.234525907
2.4965,9.065692354
2.497,11.50724762
2.4975,8.455303538
2.498,1.435832161
2.4985,-3.75247277
2.499,-5.888833624
2.4995,-7.72000007
2.5,-10.16155533
2.5005,-11.68752737
2.501,-10.77194415
2.5015,-8.940777701
2.502,-8.025194478
2.5025,-7.72000007
2.503,-7.109611255
2.5035,-5.888833624
2.504,-4.057667178
2.5045,-1.921306324
2.505,-0.395334285
2.5055,0.21505453
2.506,0.520248938
2.5065,1.435832161
2.507,2.351415384
2.5075,2.351415384
2.508,0.520248938
2.5085,-1.921306324
2.509,-4.668055993
2.5095,-5.583639216
2.51,-5.888833624
2.5105,-6.194028032
2.511,-7.109611255
2.5115,-8.025194478
2.512,-8.330388885
2.5125,-7.72000007
2.513,-6.804416847
2.5135,-5.278444808
2.514,-2.531695139
2.5145,-0.090139878
2.515,0.520248938
2.5155,0.21505453
2.516,0.520248938
2.5165,1.741026569
2.517,2.656609792
2.5175,2.961804199
2.518,2.961804199
2.5185,3.266998607
2.519,3.266998607
2.5195,2.656609792
2.52,2.351415384
2.5205,2.351415384
2.521,2.656609792
2.5215,2.046220976
2.522,1.130637753
2.5225,0.520248938
2.523,-0.090139878
2.5235,-0.090139878
2.524,0.520248938
2.5245,1.741026569
2.525,1.435832161
2.5255,0.520248938
2.526,0.825443346
2.5265,2.656609792
2.527,3.572193015
2.5275,1.741026569
2.528,-0.395334285
2.5285,-0.395334285
2.529,1.130637753
2.5295,2.046220976
2.53,1.130637753
2.5305,-0.090139878
2.531,-0.395334285
2.5315,-0.090139878
2.532,0.825443346
2.5325,1.741026569
2.533,2.351415384
2.5335,1.741026569
2.534,0.825443346
2.5345,0.825443346
2.535,1.741026569
2.5355,1.741026569
2.536,0.21505453
2.5365,-0.395334285
2.537,-0.090139878
2.5375,0.21505453
2.538,0.21505453
2.5385,-0.090139878
2.539,0.520248938
2.5395,1.435832161
2.54,2.046220976
2.5405,1.741026569
2.541,1.130637753
2.5415,0.825443346
2.542,0.21505453
2.5425,-0.090139878
2.543,-0.700528693
2.5435,-0.090139878
2.544,0.825443346
2.5445,1.741026569
2.545,1.130637753
2.5455,-0.090139878
2.546,-0.090139878
2.5465,0.825443346
2.547,1.130637753
2.5475,-0.395334285
2.548,-0.700528693
2.5485,1.435832161
2.549,3.877387423
2.5495,2.351415384
2.55,0.21505453
2.5505,3.877387423
2.551,13.03321965
2.5515,19.13710781
2.552,17.00074695
2.5525,10.59166439
2.553,6.9293315
2.5535,6.318942684
2.554,4.18258183
2.5545,0.21505453
2.555,-2.531695139
2.5555,-3.75247277
2.556,-5.583639216
2.5565,-8.635583293
2.557,-11.07713855
2.5575,-11.38233296
2.558,-10.46674974
2.5585,-9.856360924
2.559,-8.940777701
2.5595,-6.499222439
2.56,-3.447278362
2.5605,-1.310917508
2.561,-1.310917508
2.5615,-2.531695139
2.562,-3.142083955
2.5625,-2.226500731
2.563,-1.310917508
2.5635,-1.616111916
2.564,-2.836889547
2.5645,-3.75247277
2.565,-3.447278362
2.5655,-3.75247277
2.566,-5.278444808
2.5665,-7.109611255
2.567,-7.414805662
2.5675,-7.414805662
2.568,-7.414805662
2.5685,-6.499222439
2.569,-4.057667178
2.5695,-1.005723101
2.57,1.130637753
2.5705,3.572193015
2.571,7.234525907
2.5715,9.981275577
2.572,9.981275577
2.5725,7.844914723
2.573,6.9293315
2.5735,8.455303538
2.574,9.370886761
2.5745,7.539720315
2.575,3.266998607
2.5755,-0.700528693
2.576,-2.531695139
2.5765,-1.616111916
2.577,-0.090139878
2.5775,-0.090139878
2.578,-1.616111916
2.5785,-3.142083955
2.579,-1.921306324
2.5795,-0.395334285
2.58,-2.226500731
2.5805,-5.278444808
2.581,-6.499222439
2.5815,-4.973250401
2.582,-3.75247277
2.5825,-4.668055993
2.583,-4.973250401
2.5835,-2.531695139
2.584,0.21505453
2.5845,0.520248938
2.585,-0.395334285
2.5855,-1.005723101
2.586,-0.700528693
2.5865,-1.616111916
2.587,-3.447278362
2.5875,-4.362861585
2.588,-3.447278362
2.5885,-2.531695139
2.589,-1.616111916
2.5895,-0.090139878
2.59,1.741026569
2.5905,2.046220976
2.591,0.825443346
2.5915,0.21505453
2.592,1.435832161
2.5925,2.046220976
2.593,1.130637753
2.5935,0.21505453
2.594,1.130637753
2.5945,2.351415384
2.595,1.741026569
2.5955,0.21505453
2.596,-0.090139878
2.5965,0.825443346
2.597,1.130637753
2.5975,0.520248938
2.598,0.21505453
2.5985,-0.090139878
2.599,-0.395334285
2.5995,-0.700528693
2.6,0.520248938
2.6005,2.351415384
2.601,2.351415384
2.6015,-0.090139878
2.602,-1.005723101
2.6025,-0.395334285
2.603,0.520248938
2.6035,0.21505453
2.604,-0.090139878
2.6045,0.520248938
2.605,1.741026569
2.6055,1.435832161
2.606,0.520248938
2.6065,-0.090139878
2.607,0.21505453
2.6075,0.21505453
2.608,-0.090139878
2.6085,-0.090139878
2.609,0.520248938
2.6095,0.825443346
2.61,-0.090139878
2.6105,-0.395334285
2.611,-0.090139878
2.6115,0.21505453
2.612,0.520248938
2.6125,0.825443346
2.613,1.435832161
2.6135,1.130637753
2.614,0.21505453
2.6145,-0.090139878
2.615,-0.090139878
2.6155,0.520248938
2.616,0.825443346
2.6165,0.825443346
2.617,0.825443346
2.6175,0.825443346
2.618,0.520248938
2.6185,0.520248938
2.619,0.825443346
2.6195,0.825443346
2.62,0.520248938
2.6205,0.520248938
2.621,0.825443346
2.6215,1.130637753
2.622,0.520248938
2.6225,-0.090139878
2.623,-0.090139878
2.6235,0.825443346
2.624,2.046220976
2.6245,2.046220976
2.625,1.435832161
2.6255,1.130637753
2.626,1.435832161
2.6265,1.741026569
2.627,1.435832161
2.6275,0.520248938
2.628,0.21505453
2.6285,0.520248938
2.629,0.520248938
2.6295,-0.090139878
2.63,-0.090139878
2.6305,-0.090139878
2.631,-0.090139878
2.6315,-0.395334285
2.632,-0.395334285
2.6325,0.21505453
2.633,0.825443346
2.6335,-0.090139878
2.634,-1.310917508
2.6345,-0.700528693
2.635,0.825443346
2.6355,2.351415384
2.636,2.351415384
2.6365,2.351415384
2.637,2.961804199
2.6375,3.572193015
2.638,2.351415384
2.6385,0.21505453
2.639,-0.395334285
2.6395,-0.090139878
2.64,0.21505453
2.6405,-0.090139878
2.641,-0.700528693
2.6415,-0.090139878
2.642,1.435832161
2.6425,1.435832161
2.643,0.21505453
2.6435,-0.090139878
2.644,1.435832161
2.6445,4.18258183
2.645,5.403359461
2.6455,4.487776238
2.646,2.656609792
2.6465,0.520248938
2.647,-0.090139878
2.6475,0.21505453
2.648,1.130637753
2.6485,0.825443346
2.649,-0.700528693
2.6495,-2.531695139
2.65,-4.668055993
2.6505,-6.804416847
2.651,-9.245972109
2.6515,-10.46674974
2.652,-10.46674974
2.6525,-9.551166516
2.653,-7.72000007
2.6535,-5.278444808
2.654,-4.362861585
2.6545,-5.278444808
2.655,-3.75247277
2.6555,2.656609792
2.656,10.59166439
2.6565,12.11763643
2.657,7.234525907
2.6575,2.656609792
2.658,2.961804199
2.6585,3.877387423
2.659,1.741026569
2.6595,-0.700528693
2.66,-1.005723101
2.6605,-1.005723101
2.661,-2.836889547
2.6615,-4.668055993
2.662,-4.668055993
2.6625,-6.194028032
2.663,-10.16155533
2.6635,-12.29791619
2.664,-7.72000007
2.6645,-0.090139878
2.665,3.572193015
2.6655,1.435832161
2.666,-1.616111916
2.6665,-3.75247277
2.667,-4.362861585
2.6675,-4.362861585
2.668,-3.142083955
2.6685,-1.921306324
2.669,-2.226500731
2.6695,-2.531695139
2.67,-1.310917508
2.6705,-0.090139878
2.671,-1.616111916
2.6715,-4.668055993
2.672,-4.973250401
2.6725,-2.226500731
2.673,0.21505453
2.6735,1.130637753
2.674,0.825443346
2.6745,0.825443346
2.675,0.825443346
2.6755,0.520248938
2.676,-0.090139878
2.6765,-0.700528693
2.677,-2.226500731
2.6775,-3.142083955
2.678,-2.531695139
2.6785,-1.921306324
2.679,-2.531695139
2.6795,-2.836889547
2.68,-1.310917508
2.6805,0.21505453
2.681,0.825443346
2.6815,0.21505453
2.682,0.825443346
2.6825,2.656609792
2.683,3.266998607
2.6835,2.046220976
2.684,0.825443346
2.6845,1.435832161
2.685,2.656609792
2.6855,2.351415384
2.686,1.435832161
2.6865,1.130637753
2.687,1.741026569
2.6875,2.046220976
2.688,1.130637753
2.6885,-0.090139878
2.689,-0.090139878
2.6895,-0.090139878
2.69,0.520248938
2.6905,1.741026569
2.691,2.351415384
2.6915,1.741026569
2.692,0.21505453
2.6925,-0.700528693
2.693,-0.090139878
2.6935,1.130637753
2.694,2.046220976
2.6945,1.435832161
2.695,0.825443346
2.6955,1.435832161
2.696,1.741026569
2.6965,0.520248938
2.697,-0.700528693
2.6975,-0.090139878
2.698,0.825443346
2.6985,1.435832161
2.699,0.825443346
2.6995,0.825443346
2.7,1.435832161
2.7005,1.130637753
2.701,-0.090139878
2.7015,-1.005723101
2.702,-0.395334285
2.7025,-0.090139878
2.703,-0.395334285
2.7035,-1.310917508
2.704,-0.395334285
2.7045,1.130637753
2.705,2.046220976
2.7055,1.130637753
2.706,-0.395334285
2.7065,-1.005723101
2.707,-0.395334285
2.7075,0.21505453
2.708,0.825443346
2.7085,0.825443346
2.709,0.825443346
2.7095,0.825443346
2.71,0.21505453
2.7105,-0.395334285
2.711,-0.700528693
2.7115,-0.090139878
2.712,0.21505453
2.7125,-0.090139878
2.713,-0.090139878
2.7135,0.520248938
2.714,2.046220976
2.7145,3.572193015
2.715,3.877387423
2.7155,2.961804199
2.716,1.435832161
2.7165,0.520248938
2.717,1.130637753
2.7175,2.046220976
2.718,2.656609792
2.7185,2.656609792
2.719,2.351415384
2.7195,2.656609792
2.72,2.656609792
2.7205,1.130637753
2.721,-0.090139878
2.7215,0.21505453
2.722,2.046220976
2.7225,4.18258183
2.723,5.098165053
2.7235,5.708553869
2.724,6.318942684
2.7245,6.318942684
2.725,4.487776238
2.7255,1.130637753
2.726,-1.310917508
2.7265,-2.226500731
2.727,-2.531695139
2.7275,-3.142083955
2.728,-5.278444808
2.7285,-8.025194478
2.729,-10.16155533
2.7295,-10.77194415
2.73,-9.551166516
2.7305,-8.025194478
2.731,-6.804416847
2.7315,-6.194028032
2.732,-5.278444808
2.7325,-4.362861585
2.733,-3.447278362
2.7335,-1.310917508
2.734,2.046220976
2.7345,4.792970646
2.735,3.572193015
2.7355,0.825443346
2.736,0.21505453
2.7365,3.572193015
2.737,5.708553869
2.7375,3.266998607
2.738,0.21505453
2.7385,0.21505453
2.739,2.656609792
2.7395,3.572193015
2.74,2.046220976
2.7405,1.435832161
2.741,1.435832161
2.7415,-0.090139878
2.742,-2.531695139
2.7425,-4.973250401
2.743,-5.278444808
2.7435,-5.583639216
2.744,-6.804416847
2.7445,-8.025194478
2.745,-8.025194478
2.7455,-7.414805662
2.746,-6.804416847
2.7465,-5.278444808
2.747,-3.447278362
2.7475,-2.226500731
2.748,-2.226500731
2.7485,-3.142083955
2.749,-4.057667178
2.7495,-4.362861585
2.75,-4.973250401
2.7505,-4.973250401
2.751,-4.668055993
2.7515,-3.447278362
2.752,-1.921306324
2.7525,-0.700528693
2.753,-0.700528693
2.7535,-1.616111916
2.754,-2.531695139
2.7545,-2.226500731
2.755,-0.090139878
2.7555,2.046220976
2.756,3.266998607
2.7565,2.961804199
2.757,2.351415384
2.7575,2.656609792
2.758,3.877387423
2.7585,4.487776238
2.759,3.572193015
2.7595,2.656609792
2.76,2.351415384
2.7605,2.656609792
2.761,2.961804199
2.7615,2.656609792
2.762,2.351415384
2.7625,1.435832161
2.763,1.130637753
2.7635,1.130637753
2.764,1.741026569
2.7645,1.741026569
2.765,0.520248938
2.7655,-0.090139878
2.766,0.520248938
2.7665,1.435832161
2.767,1.130637753
2.7675,-0.090139878
2.768,-0.090139878
2.7685,1.130637753
2.769,1.130637753
2.7695,-0.090139878
2.77,-0.090139878
2.7705,1.130637753
2.771,3.266998607
2.7715,3.877387423
2.772,3.266998607
2.7725,3.266998607
2.773,3.266998607
2.7735,2.656609792
2.774,2.656609792
2.7745,2.961804199
2.775,3.572193015
2.7755,2.656609792
2.776,1.435832161
2.7765,1.741026569
2.777,2.351415384
2.7775,1.130637753
2.778,-1.005723101
2.7785,-1.616111916
2.779,1.130637753
2.7795,4.18258183
2.78,4.487776238
2.7805,2.961804199
2.781,1.741026569
2.7815,1.435832161
2.782,0.520248938
2.7825,-0.395334285
2.783,-1.616111916
2.7835,-2.226500731
2.784,-2.531695139
2.7845,-2.226500731
2.785,-1.616111916
2.7855,-1.921306324
2.786,-3.75247277
2.7865,-5.583639216
2.787,-6.194028032
2.7875,-5.888833624
2.788,-4.973250401
2.7885,-3.75247277
2.789,-2.226500731
2.7895,-1.310917508
2.79,-2.226500731
2.7905,-3.447278362
2.791,-2.531695139
2.7915,-0.090139878
2.792,2.351415384
2.7925,2.961804199
2.793,3.266998607
2.7935,4.18258183
2.794,4.487776238
2.7945,4.487776238
2.795,4.792970646
2.7955,5.708553869
2.796,5.708553869
2.7965,4.18258183
2.797,1.741026569
2.7975,-0.090139878
2.798,-0.090139878
2.7985,-0.090139878
2.799,-0.090139878
2.7995,-0.090139878
2.8,-0.090139878
2.8005,-0.090139878
2.801,-1.005723101
2.8015,-2.226500731
2.802,-2.836889547
2.8025,-1.616111916
2.803,1.130637753
2.8035,4.18258183
2.804,4.487776238
2.8045,2.961804199
2.805,0.825443346
2.8055,-0.090139878
2.806,-0.090139878
2.8065,-0.090139878
2.807,-0.090139878
2.8075,-0.090139878
2.808,-0.090139878
2.8085,-1.005723101
2.809,-1.921306324
2.8095,-3.142083955
2.81,-4.973250401
2.8105,-6.804416847
2.811,-7.72000007
2.8115,-7.72000007
2.812,-7.109611255
2.8125,-5.278444808
2.813,-1.921306324
2.8135,0.825443346
2.814,1.130637753
2.8145,-1.310917508
2.815,-3.75247277
2.8155,-4.362861585
2.816,-3.447278362
2.8165,-2.226500731
2.817,-1.616111916
2.8175,-1.310917508
2.818,-2.531695139
2.8185,-5.278444808
2.819,-6.194028032
2.8195,-4.668055993
2.82,-1.921306324
2.8205,-0.700528693
2.821,-0.395334285
2.8215,0.21505453
2.822,1.130637753
2.8225,0.825443346
2.823,1.130637753
2.8235,3.572193015
2.824,6.624137092
2.8245,6.9293315
2.825,5.708553869
2.8255,4.792970646
2.826,5.708553869
2.8265,6.318942684
2.827,6.013748276
2.8275,6.013748276
2.828,5.098165053
2.8285,2.961804199
2.829,0.825443346
2.8295,1.741026569
2.83,4.18258183
2.8305,3.877387423
2.831,1.741026569
2.8315,2.351415384
2.832,5.708553869
2.8325,7.234525907
2.833,4.487776238
2.8335,0.21505453
2.834,-1.616111916
2.8345,-2.531695139
2.835,-4.362861585
2.8355,-5.278444808
2.836,-3.75247277
2.8365,-1.616111916
2.837,-1.921306324
2.8375,-3.75247277
2.838,-4.973250401
2.8385,-4.973250401
2.839,-5.888833624
2.8395,-6.804416847
2.84,-5.278444808
2.8405,-1.616111916
2.841,-0.090139878
2.8415,-1.005723101
2.842,-2.836889547
2.8425,-1.921306324
2.843,0.520248938
2.8435,2.656609792
2.844,2.961804199
2.8445,2.351415384
2.845,2.351415384
2.8455,2.961804199
2.846,2.961804199
2.8465,3.266998607
2.847,4.487776238
2.8475,6.624137092
2.848,8.15010913
2.8485,7.539720315
2.849,5.403359461
2.8495,4.18258183
2.85,4.18258183
2.8505,4.792970646
2.851,4.487776238
2.8515,2.656609792
2.852,0.825443346
2.8525,-0.395334285
2.853,-1.921306324
2.8535,-4.362861585
2.854,-6.499222439
2.8545,-7.414805662
2.855,-6.804416847
2.8555,-7.109611255
2.856,-7.414805662
2.8565,-6.499222439
2.857,-2.836889547
2.8575,0.825443346
2.858,1.741026569
2.8585,-0.090139878
2.859,-1.616111916
2.8595,-1.310917508
2.86,-1.005723101
2.8605,-1.310917508
2.861,-1.921306324
2.8615,-1.616111916
2.862,-1.616111916
2.8625,-2.531695139
2.863,-3.142083955
2.8635,-2.836889547
2.864,-2.531695139
2.8645,-3.447278362
2.865,-4.973250401
2.8655,-5.278444808
2.866,-4.668055993
2.8665,-2.836889547
2.867,-1.616111916
2.8675,-1.005723101
2.868,-0.700528693
2.8685,-0.090139878
2.869,-0.090139878
2.8695,-0.090139878
2.87,-0.090139878
2.8705,0.21505453
2.871,1.435832161
2.8715,1.741026569
2.872,0.520248938
2.8725,0.21505453
2.873,1.130637753
2.8735,1.741026569
2.874,1.435832161
2.8745,1.130637753
2.875,2.351415384
2.8755,3.877387423
2.876,3.572193015
2.8765,1.741026569
2.877,0.520248938
2.8775,0.825443346
2.878,1.130637753
2.8785,2.046220976
2.879,3.877387423
2.8795,4.792970646
2.88,3.877387423
2.8805,1.741026569
2.881,1.130637753
2.8815,1.741026569
2.882,2.046220976
2.8825,1.130637753
2.883,0.21505453
2.8835,-0.090139878
2.884,-0.700528693
2.8845,-1.616111916
2.885,-2.226500731
2.8855,-2.531695139
2.886,-3.447278362
2.8865,-4.362861585
2.887,-4.057667178
2.8875,-2.226500731
2.888,-0.700528693
2.8885,-0.395334285
2.889,-0.395334285
2.8895,0.520248938
2.89,1.741026569
2.8905,1.741026569
2.891,1.435832161
2.8915,2.046220976
2.892,3.266998607
2.8925,4.487776238
2.893,6.318942684
2.8935,8.760497946
2.894,10.8968588
2.8945,13.03321965
2.895,15.77996932
2.8955,18.52671899
2.896,18.8319134
2.8965,14.8643861
2.897,8.760497946
2.8975,3.877387423
2.898,0.520248938
2.8985,-3.142083955
2.899,-7.72000007
2.8995,-11.07713855
2.9,-13.21349941
2.9005,-15.34986026
2.901,-16.57063789
2.9015,-15.04466585
2.902,-11.99272178
2.9025,-11.99272178
2.903,-14.73947145
2.9035,-16.26544349
2.904,-14.12908263
2.9045,-11.68752737
2.905,-11.07713855
2.9055,-10.77194415
2.906,-7.72000007
2.9065,-4.362861585
2.907,-3.142083955
2.9075,-3.447278362
2.908,-3.142083955
2.9085,-2.226500731
2.909,-1.921306324
2.9095,-1.921306324
2.91,-1.005723101
2.9105,0.21505453
2.911,0.21505453
2.9115,-0.700528693
2.912,-1.310917508
2.9125,-1.005723101
2.913,-0.090139878
2.9135,1.741026569
2.914,4.487776238
2.9145,6.013748276
2.915,5.098165053
2.9155,2.961804199
2.916,2.351415384
2.9165,2.656609792
2.917,2.656609792
2.9175,2.351415384
2.918,3.266998607
2.9185,4.792970646
2.919,5.098165053
2.9195,3.877387423
2.92,3.877387423
2.9205,5.708553869
2.921,7.539720315
2.9215,8.455303538
2.922,7.844914723
2.9225,6.318942684
2.923,3.877387423
2.9235,1.435832161
2.924,0.21505453
2.9245,-0.090139878
2.925,-0.395334285
2.9255,-0.700528693
2.926,-1.310917508
2.9265,-1.921306324
2.927,-2.836889547
2.9275,-3.447278362
2.928,-3.447278362
2.9285,-3.75247277
2.929,-4.362861585
2.9295,-4.668055993
2.93,-3.75247277
2.9305,-2.226500731
2.931,-2.836889547
2.9315,-4.362861585
2.932,-4.362861585
2.9325,-2.226500731
2.933,-0.090139878
2.9335,-0.090139878
2.934,-0.090139878
2.9345,0.21505453
2.935,0.825443346
2.9355,0.520248938
2.936,-0.700528693
2.9365,-1.310917508
2.937,-1.310917508
2.9375,-0.700528693
2.938,-0.090139878
2.9385,0.825443346
2.939,1.435832161
2.9395,2.046220976
2.94,2.656609792
2.9405,2.961804199
2.941,2.351415384
2.9415,0.520248938
2.942,-0.090139878
2.9425,0.21505453
2.943,1.130637753
2.9435,1.435832161
2.944,1.435832161
2.9445,1.741026569
2.945,2.351415384
2.9455,2.351415384
2.946,1.435832161
2.9465,1.130637753
2.947,0.825443346
2.9475,0.825443346
2.948,0.825443346
2.9485,2.046220976
2.949,2.656609792
2.9495,1.741026569
2.95,0.520248938
2.9505,0.21505453
2.951,1.130637753
2.9515,1.435832161
2.952,0.520248938
2.9525,-0.090139878
2.953,0.21505453
2.9535,0.21505453
2.954,-0.090139878
2.9545,0.21505453
2.955,0.520248938
2.9555,0.520248938
2.956,-0.090139878
2.9565,-0.395334285
2.957,-0.090139878
2.9575,-0.090139878
2.958,0.21505453
2.9585,1.435832161
2.959,2.351415384
2.9595,2.656609792
2.96,2.656609792
2.9605,3.877387423
2.961,4.792970646
2.9615,3.877387423
2.962,1.435832161
2.9625,1.435832161
2.963,3.877387423
2.9635,5.403359461
2.964,3.877387423
2.9645,1.435832161
2.965,0.520248938
2.9655,1.130637753
2.966,2.046220976
2.9665,2.656609792
2.967,2.961804199
2.9675,1.741026569
2.968,-0.090139878
2.9685,-1.616111916
2.969,-2.226500731
2.9695,-1.616111916
2.97,-0.700528693
2.9705,0.520248938
2.971,1.741026569
2.9715,1.741026569
2.972,-0.090139878
2.9725,-1.616111916
2.973,-2.836889547
2.9735,-3.447278362
2.974,-3.142083955
2.9745,-2.531695139
2.975,-1.921306324
2.9755,-2.226500731
2.976,-1.310917508
2.9765,1.435832161
2.977,4.18258183
2.9775,4.18258183
2.978,2.046220976
2.9785,0.520248938
2.979,-0.090139878
2.9795,-1.310917508
2.98,-4.362861585
2.9805,-7.414805662
2.981,-8.330388885
2.9815,-8.025194478
2.982,-7.109611255
2.9825,-6.804416847
2.983,-7.109611255
2.9835,-7.72000007
2.984,-8.025194478
2.9845,-7.109611255
2.985,-6.194028032
2.9855,-5.583639216
2.986,-5.583639216
2.9865,-5.888833624
2.987,-6.499222439
2.9875,-5.888833624
2.988,-2.836889547
2.9885,1.435832161
2.989,3.572193015
2.9895,1.741026569
2.99,-0.395334285
2.9905,-1.005723101
2.991,0.21505453
2.9915,1.741026569
2.992,2.351415384
2.9925,2.351415384
2.993,1.741026569
2.9935,0.825443346
2.994,0.520248938
2.9945,0.520248938
2.995,-0.090139878
2.9955,-0.395334285
2.996,-0.090139878
2.9965,1.130637753
2.997,2.961804199
2.9975,5.708553869
2.998,9.676081169
2.9985,12.42283084
2.999,10.59166439
2.9995,6.013748276
3,3.877387423
3.0005,6.318942684
3.001,8.455303538
3.0015,5.098165053
3.002,-0.090139878
3.0025,-2.226500731
3.003,-1.921306324
3.0035,-3.142083955
3.004,-6.194028032
3.0045,-8.635583293
3.005,-8.940777701
3.0055,-9.551166516
3.006,-11.07713855
3.0065,-11.07713855
3.007,-8.330388885
3.0075,-5.278444808
3.008,-3.75247277
3.0085,-3.447278362
3.009,-2.531695139
3.0095,-1.005723101
3.01,0.520248938
3.0105,2.351415384
3.011,3.572193015
3.0115,4.18258183
3.012,3.877387423
3.0125,3.266998607
3.013,2.351415384
3.0135,2.351415384
3.014,2.961804199
3.0145,3.266998607
3.015,2.656609792
3.0155,1.130637753
3.016,0.520248938
3.0165,1.435832161
3.017,2.961804199
3.0175,2.656609792
3.018,1.435832161
3.0185,0.21505453
3.019,0.21505453
3.0195,0.520248938
3.02,1.435832161
3.0205,2.961804199
3.021,4.18258183
