time,value
0,-0.862505935
0.0005,-0.862505935
0.001,-0.862505935
0.0015,-0.862505935
0.002,-1.167700343
0.0025,-1.778089158
0.003,-2.083283566
0.0035,-1.167700343
0.004,-0.557311527
0.0045,-0.557311527
0.005,-1.167700343
0.0055,-1.778089158
0.006,-2.083283566
0.0065,-1.778089158
0.007,-0.862505935
0.0075,-0.252117119
0.008,-0.252117119
0.0085,-1.778089158
0.009,-2.388477973
0.0095,-1.167700343
0.01,-0.252117119
0.0105,-1.167700343
0.011,-2.693672381
0.0115,-2.693672381
0.012,-2.083283566
0.0125,-2.083283566
0.013,-2.083283566
0.0135,-2.083283566
0.014,-1.778089158
0.0145,-1.778089158
0.015,-1.778089158
0.0155,-1.47289475
0.016,-1.778089158
0.0165,-2.693672381
0.017,-2.998866789
0.0175,-2.388477973
0.018,-1.47289475
0.0185,-2.083283566
0.019,-2.388477973
0.0195,-1.47289475
0.02,-0.252117119
0.0205,0.358271696
0.021,-0.252117119
0.0215,-1.167700343
0.022,-1.778089158
0.0225,-2.083283566
0.023,-1.778089158
0.0235,-0.557311527
0.024,0.358271696
0.0245,-0.252117119
0.025,-1.778089158
0.0255,-2.388477973
0.026,-1.167700343
0.0265,-0.252117119
0.027,-1.167700343
0.0275,-3.609255604
0.028,-4.524838827
0.0285,-3.304061196
0.029,-1.778089158
0.0295,-1.778089158
0.03,-2.083283566
0.0305,-1.167700343
0.031,0.053077288
0.0315,0.663466104
0.032,-0.252117119
0.0325,-0.862505935
0.033,-0.862505935
0.0335,-0.252117119
0.034,0.053077288
0.0345,0.053077288
0.035,0.053077288
0.0355,0.053077288
0.036,-0.252117119
0.0365,-0.557311527
0.037,-0.557311527
0.0375,-0.862505935
0.038,-1.47289475
0.0385,-1.778089158
0.039,-1.167700343
0.0395,-0.252117119
0.04,0.358271696
0.0405,-0.252117119
0.041,-0.557311527
0.0415,-1.167700343
0.042,-0.862505935
0.0425,-1.167700343
0.043,-1.778089158
0.0435,-2.083283566
0.044,-1.778089158
0.0445,-1.47289475
0.045,-0.862505935
0.0455,-1.167700343
0.046,-1.167700343
0.0465,-0.862505935
0.047,-0.252117119
0.0475,0.053077288
0.048,-0.862505935
0.0485,-2.388477973
0.049,-2.693672381
0.0495,-1.47289475
0.05,-0.252117119
0.0505,-0.557311527
0.051,-1.778089158
0.0515,-2.388477973
0.052,-2.388477973
0.0525,-2.388477973
0.053,-2.388477973
0.0535,-2.083283566
0.054,-1.778089158
0.0545,-1.778089158
0.055,-1.47289475
0.0555,-1.167700343
0.056,-0.862505935
0.0565,-1.167700343
0.057,-0.557311527
0.0575,1.273854919
0.058,3.105021365
0.0585,2.799826958
0.059,0.663466104
0.0595,-0.252117119
0.06,0.053077288
0.0605,0.968660511
0.061,0.968660511
0.0615,1.273854919
0.062,1.579049327
0.0625,1.273854919
0.063,0.358271696
0.0635,0.358271696
0.064,1.884243735
0.0645,3.410215773
0.065,2.799826958
0.0655,0.968660511
0.066,0.358271696
0.0665,1.579049327
0.067,3.105021365
0.0675,3.105021365
0.068,2.189438142
0.0685,1.884243735
0.069,1.884243735
0.0695,1.273854919
0.07,0.053077288
0.0705,-0.252117119
0.071,-0.557311527
0.0715,-0.862505935
0.072,-1.47289475
0.0725,-1.167700343
0.073,-0.252117119
0.0735,-0.252117119
0.074,-1.778089158
0.0745,-2.998866789
0.075,-2.083283566
0.0755,-0.862505935
0.076,-0.557311527
0.0765,-0.252117119
0.077,0.663466104
0.0775,1.579049327
0.078,0.968660511
0.0785,-0.557311527
0.079,-1.47289475
0.0795,-1.167700343
0.08,-0.862505935
0.0805,-0.862505935
0.081,-0.252117119
0.0815,-0.252117119
0.082,-0.557311527
0.0825,-1.47289475
0.083,-1.167700343
0.0835,-0.557311527
0.084,-0.862505935
0.0845,-2.388477973
0.085,-2.693672381
0.0855,-1.47289475
0.086,-0.862505935
0.0865,-1.778089158
0.087,-2.083283566
0.0875,-1.47289475
0.088,-0.557311527
0.0885,-1.167700343
0.089,-2.083283566
0.0895,-1.778089158
0.09,-1.167700343
0.0905,-0.862505935
0.091,-0.557311527
0.0915,-0.252117119
0.092,0.053077288
0.0925,0.053077288
0.093,-0.252117119
0.0935,-0.557311527
0.094,-1.778089158
0.0945,-2.693672381
0.095,-2.693672381
0.0955,-1.47289475
0.096,-0.252117119
0.0965,-0.252117119
0.097,-0.252117119
0.0975,-0.557311527
0.098,-1.167700343
0.0985,-1.47289475
0.099,-0.557311527
0.0995,0.053077288
0.1,0.053077288
0.1005,-1.167700343
0.101,-1.778089158
0.1015,-0.862505935
0.102,-0.252117119
0.1025,0.053077288
0.103,0.053077288
0.1035,0.358271696
0.104,0.358271696
0.1045,-0.252117119
0.105,-0.557311527
0.1055,-0.862505935
0.106,-0.252117119
0.1065,0.053077288
0.107,0.053077288
0.1075,-0.252117119
0.108,-0.252117119
0.1085,-0.252117119
0.109,-0.252117119
0.1095,-0.252117119
0.11,-0.252117119
0.1105,-0.252117119
0.111,0.663466104
0.1115,2.189438142
0.112,2.49463255
0.1125,0.663466104
0.113,-0.252117119
0.1135,0.358271696
0.114,1.579049327
0.1145,1.273854919
0.115,0.663466104
0.1155,1.579049327
0.116,2.49463255
0.1165,1.884243735
0.117,-0.252117119
0.1175,-0.862505935
0.118,-0.252117119
0.1185,0.968660511
0.119,0.663466104
0.1195,-0.252117119
0.12,0.053077288
0.1205,1.273854919
0.121,2.189438142
0.1215,1.579049327
0.122,-0.252117119
0.1225,-0.862505935
0.123,-0.557311527
0.1235,0.053077288
0.124,-0.252117119
0.1245,-0.557311527
0.125,-0.557311527
0.1255,-0.557311527
0.126,-0.862505935
0.1265,-1.47289475
0.127,-1.167700343
0.1275,-0.252117119
0.128,-0.252117119
0.1285,-0.252117119
0.129,-0.252117119
0.1295,0.663466104
0.13,0.968660511
0.1305,0.358271696
0.131,-0.252117119
0.1315,-0.862505935
0.132,-0.862505935
0.1325,-1.167700343
0.133,-1.47289475
0.1335,-0.557311527
0.134,0.358271696
0.1345,0.663466104
0.135,0.053077288
0.1355,-0.557311527
0.136,-0.862505935
0.1365,-0.557311527
0.137,0.053077288
0.1375,0.053077288
0.138,-0.252117119
0.1385,-1.167700343
0.139,-1.167700343
0.1395,-0.557311527
0.14,-0.252117119
0.1405,-0.252117119
0.141,0.053077288
0.1415,0.968660511
0.142,0.358271696
0.1425,-1.167700343
0.143,-1.47289475
0.1435,-0.252117119
0.144,1.273854919
0.1445,1.884243735
0.145,1.273854919
0.1455,0.663466104
0.146,0.663466104
0.1465,1.273854919
0.147,2.189438142
0.1475,2.49463255
0.148,2.189438142
0.1485,1.579049327
0.149,1.579049327
0.1495,2.189438142
0.15,1.884243735
0.1505,1.273854919
0.151,0.968660511
0.1515,1.579049327
0.152,2.49463255
0.1525,3.105021365
0.153,3.410215773
0.1535,3.410215773
0.154,3.105021365
0.1545,2.189438142
0.155,2.189438142
0.1555,2.799826958
0.156,3.105021365
0.1565,3.105021365
0.157,3.105021365
0.1575,3.105021365
0.158,2.189438142
0.1585,1.579049327
0.159,1.579049327
0.1595,2.189438142
0.16,2.49463255
0.1605,2.49463255
0.161,2.49463255
0.1615,2.799826958
0.162,2.49463255
0.1625,1.273854919
0.163,0.358271696
0.1635,0.663466104
0.164,0.663466104
0.1645,-0.252117119
0.165,-0.557311527
0.1655,-0.557311527
0.166,-0.557311527
0.1665,-0.862505935
0.167,-1.167700343
0.1675,-0.557311527
0.168,-0.252117119
0.1685,-0.252117119
0.169,-1.167700343
0.1695,-1.167700343
0.17,-0.862505935
0.1705,-0.557311527
0.171,-1.47289475
0.1715,-2.388477973
0.172,-1.778089158
0.1725,-0.557311527
0.173,0.053077288
0.1735,-0.252117119
0.174,-0.557311527
0.1745,-0.252117119
0.175,-0.252117119
0.1755,-0.252117119
0.176,-0.862505935
0.1765,-0.862505935
0.177,-0.252117119
0.1775,0.663466104
0.178,0.663466104
0.1785,0.358271696
0.179,0.358271696
0.1795,0.358271696
0.18,-0.252117119
0.1805,-1.778089158
0.181,-2.083283566
0.1815,-0.862505935
0.182,0.358271696
0.1825,0.663466104
0.183,0.663466104
0.1835,1.273854919
0.184,1.579049327
0.1845,0.663466104
0.185,-1.167700343
0.1855,-2.693672381
0.186,-2.693672381
0.1865,-2.083283566
0.187,-1.47289475
0.1875,-1.778089158
0.188,-2.388477973
0.1885,-2.693672381
0.189,-1.778089158
0.1895,-0.557311527
0.19,-0.252117119
0.1905,-0.862505935
0.191,-1.47289475
0.1915,-0.862505935
0.192,-0.252117119
0.1925,-1.167700343
0.193,-2.693672381
0.1935,-2.998866789
0.194,-1.778089158
0.1945,-1.167700343
0.195,-1.778089158
0.1955,-2.388477973
0.196,-1.47289475
0.1965,-0.252117119
0.197,-0.252117119
0.1975,-0.252117119
0.198,-0.252117119
0.1985,0.053077288
0.199,0.663466104
0.1995,0.968660511
0.2,1.579049327
0.2005,2.49463255
0.201,2.49463255
0.2015,1.884243735
0.202,2.189438142
0.2025,2.799826958
0.203,2.49463255
0.2035,1.273854919
0.204,1.273854919
0.2045,2.799826958
0.205,4.020604588
0.2055,3.715410181
0.206,2.189438142
0.2065,1.273854919
0.207,1.273854919
0.2075,1.579049327
0.208,1.884243735
0.2085,2.799826958
0.209,2.799826958
0.2095,1.579049327
0.21,0.663466104
0.2105,0.663466104
0.211,1.273854919
0.2115,0.968660511
0.212,0.053077288
0.2125,-0.252117119
0.213,0.053077288
0.2135,0.358271696
0.214,0.663466104
0.2145,0.358271696
0.215,0.053077288
0.2155,-0.252117119
0.216,-0.557311527
0.2165,-0.557311527
0.217,-0.252117119
0.2175,-0.862505935
0.218,-1.778089158
0.2185,-1.47289475
0.219,-0.557311527
0.2195,-0.252117119
0.22,-0.252117119
0.2205,-0.252117119
0.221,-0.252117119
0.2215,-0.557311527
0.222,-1.167700343
0.2225,-0.557311527
0.223,-0.252117119
0.2235,-1.167700343
0.224,-2.388477973
0.2245,-2.693672381
0.225,-1.778089158
0.2255,-1.167700343
0.226,-1.47289475
0.2265,-1.47289475
0.227,-0.252117119
0.2275,1.579049327
0.228,1.884243735
0.2285,0.968660511
0.229,-0.252117119
0.2295,-1.167700343
0.23,-2.083283566
0.2305,-1.778089158
0.231,-0.557311527
0.2315,0.053077288
0.232,-0.252117119
0.2325,-0.557311527
0.233,-0.862505935
0.2335,-0.557311527
0.234,-0.252117119
0.2345,-0.252117119
0.235,-0.252117119
0.2355,-0.557311527
0.236,-0.557311527
0.2365,-0.557311527
0.237,-0.252117119
0.2375,-0.252117119
0.238,-0.252117119
0.2385,-0.252117119
0.239,-0.252117119
0.2395,-0.252117119
0.24,-0.252117119
0.2405,-0.252117119
0.241,0.358271696
0.2415,0.663466104
0.242,0.663466104
0.2425,0.358271696
0.243,-0.252117119
0.2435,-0.557311527
0.244,-0.557311527
0.2445,0.053077288
0.245,1.273854919
0.2455,1.579049327
0.246,0.968660511
0.2465,-0.252117119
0.247,-0.862505935
0.2475,-1.167700343
0.248,-0.862505935
0.2485,0.053077288
0.249,0.358271696
0.2495,0.358271696
0.25,0.053077288
0.2505,0.358271696
0.251,0.358271696
0.2515,0.053077288
0.252,-0.252117119
0.2525,0.358271696
0.253,0.663466104
0.2535,0.053077288
0.254,-0.252117119
0.2545,-0.252117119
0.255,0.358271696
0.2555,-0.252117119
0.256,-1.47289475
0.2565,-1.778089158
0.257,-0.862505935
0.2575,-0.252117119
0.258,-0.252117119
0.2585,-0.557311527
0.259,-0.252117119
0.2595,0.968660511
0.26,1.579049327
0.2605,1.273854919
0.261,0.663466104
0.2615,0.053077288
0.262,-0.252117119
0.2625,-0.557311527
0.263,-0.252117119
0.2635,0.358271696
0.264,0.663466104
0.2645,0.663466104
0.265,0.968660511
0.2655,0.358271696
0.266,-0.252117119
0.2665,-0.252117119
0.267,1.273854919
0.2675,2.49463255
0.268,1.579049327
0.2685,0.053077288
0.269,-0.252117119
0.2695,0.358271696
0.27,0.968660511
0.2705,0.663466104
0.271,0.358271696
0.2715,0.053077288
0.272,-0.557311527
0.2725,-1.167700343
0.273,-0.252117119
0.2735,1.579049327
0.274,1.273854919
0.2745,-0.557311527
0.275,-1.167700343
0.2755,0.358271696
0.276,2.189438142
0.2765,1.273854919
0.277,-0.252117119
0.2775,0.053077288
0.278,0.968660511
0.2785,0.358271696
0.279,-1.167700343
0.2795,-0.862505935
0.28,0.358271696
0.2805,0.663466104
0.281,-0.252117119
0.2815,-0.862505935
0.282,-0.252117119
0.2825,0.358271696
0.283,-0.252117119
0.2835,-0.557311527
0.284,-0.252117119
0.2845,0.053077288
0.285,-0.862505935
0.2855,-1.778089158
0.286,-1.167700343
0.2865,0.053077288
0.287,0.663466104
0.2875,0.968660511
0.288,1.273854919
0.2885,1.579049327
0.289,0.053077288
0.2895,-2.388477973
0.29,-3.609255604
0.2905,-2.083283566
0.291,-0.557311527
0.2915,-0.862505935
0.292,-2.083283566
0.2925,-1.778089158
0.293,-0.252117119
0.2935,0.663466104
0.294,-0.557311527
0.2945,-2.998866789
0.295,-3.304061196
0.2955,-1.778089158
0.296,-0.862505935
0.2965,-1.47289475
0.297,-2.083283566
0.2975,-1.47289475
0.298,-0.252117119
0.2985,0.053077288
0.299,0.053077288
0.2995,0.663466104
0.3,1.579049327
0.3005,0.663466104
0.301,-0.862505935
0.3015,-1.47289475
0.302,-0.252117119
0.3025,1.273854919
0.303,0.663466104
0.3035,-1.167700343
0.304,-2.083283566
0.3045,-1.47289475
0.305,-0.252117119
0.3055,0.968660511
0.306,1.273854919
0.3065,1.273854919
0.307,0.968660511
0.3075,1.273854919
0.308,2.189438142
0.3085,2.49463255
0.309,1.579049327
0.3095,0.358271696
0.31,0.358271696
0.3105,0.968660511
0.311,1.579049327
0.3115,1.884243735
0.312,0.968660511
0.3125,-0.557311527
0.313,-2.693672381
0.3135,-3.304061196
0.314,-2.083283566
0.3145,-1.167700343
0.315,-1.778089158
0.3155,-2.998866789
0.316,-2.998866789
0.3165,-1.778089158
0.317,-1.167700343
0.3175,-0.862505935
0.318,-0.557311527
0.3185,-0.252117119
0.319,-1.167700343
0.3195,-2.388477973
0.32,-1.778089158
0.3205,-0.252117119
0.321,0.663466104
0.3215,-0.252117119
0.322,-1.167700343
0.3225,-0.557311527
0.323,0.968660511
0.3235,0.968660511
0.324,-0.252117119
0.3245,-0.252117119
0.325,0.053077288
0.3255,0.053077288
0.326,-0.862505935
0.3265,-1.47289475
0.327,-0.252117119
0.3275,1.273854919
0.328,1.579049327
0.3285,0.663466104
0.329,0.663466104
0.3295,1.884243735
0.33,2.799826958
0.3305,1.884243735
0.331,0.358271696
0.3315,0.053077288
0.332,0.663466104
0.3325,0.968660511
0.333,0.968660511
0.3335,0.663466104
0.334,0.663466104
0.3345,0.358271696
0.335,0.053077288
0.3355,0.053077288
0.336,0.053077288
0.3365,0.663466104
0.337,0.968660511
0.3375,1.273854919
0.338,0.663466104
0.3385,-0.252117119
0.339,-0.252117119
0.3395,0.358271696
0.34,0.358271696
0.3405,-0.252117119
0.341,-0.862505935
0.3415,-0.557311527
0.342,-0.252117119
0.3425,-0.557311527
0.343,-0.557311527
0.3435,0.358271696
0.344,1.273854919
0.3445,0.358271696
0.345,-0.252117119
0.3455,0.358271696
0.346,1.273854919
0.3465,0.053077288
0.347,-2.083283566
0.3475,-3.304061196
0.348,-2.388477973
0.3485,-0.557311527
0.349,0.358271696
0.3495,0.968660511
0.35,0.663466104
0.3505,0.053077288
0.351,-0.252117119
0.3515,0.663466104
0.352,1.273854919
0.3525,0.968660511
0.353,0.053077288
0.3535,-0.252117119
0.354,0.358271696
0.3545,0.968660511
0.355,0.968660511
0.3555,0.968660511
0.356,0.358271696
0.3565,-0.252117119
0.357,-1.167700343
0.3575,-1.167700343
0.358,-0.252117119
0.3585,0.358271696
0.359,0.053077288
0.3595,-1.47289475
0.36,-2.693672381
0.3605,-2.083283566
0.361,-0.252117119
0.3615,0.358271696
0.362,-0.252117119
0.3625,-1.47289475
0.363,-0.862505935
0.3635,0.053077288
0.364,0.053077288
0.3645,-1.167700343
0.365,-2.388477973
0.3655,-1.47289475
0.366,-0.252117119
0.3665,0.053077288
0.367,-0.252117119
0.3675,-0.252117119
0.368,0.053077288
0.3685,0.358271696
0.369,0.968660511
0.3695,1.273854919
0.37,0.968660511
0.3705,0.663466104
0.371,0.968660511
0.3715,1.579049327
0.372,0.663466104
0.3725,-0.557311527
0.373,-1.47289475
0.3735,-1.167700343
0.374,-1.167700343
0.3745,-2.083283566
0.375,-2.388477973
0.3755,-1.167700343
0.376,0.053077288
0.3765,-0.252117119
0.377,-0.557311527
0.3775,-0.252117119
0.378,0.358271696
0.3785,-0.252117119
0.379,-1.47289475
0.3795,-0.862505935
0.38,0.053077288
0.3805,-0.557311527
0.381,-2.693672381
0.3815,-2.998866789
0.382,-1.167700343
0.3825,-0.252117119
0.383,-1.167700343
0.3835,-2.083283566
0.384,-1.167700343
0.3845,-0.252117119
0.385,-0.252117119
0.3855,-1.167700343
0.386,-1.778089158
0.3865,-1.778089158
0.387,-2.693672381
0.3875,-2.998866789
0.388,-2.693672381
0.3885,-1.778089158
0.389,-1.778089158
0.3895,-1.778089158
0.39,-1.167700343
0.3905,-1.167700343
0.391,-2.083283566
0.3915,-3.304061196
0.392,-3.304061196
0.3925,-2.083283566
0.393,-1.47289475
0.3935,-2.693672381
0.394,-3.914450012
0.3945,-3.914450012
0.395,-3.304061196
0.3955,-2.693672381
0.396,-2.388477973
0.3965,-2.388477973
0.397,-1.778089158
0.3975,-1.167700343
0.398,-1.47289475
0.3985,-2.388477973
0.399,-3.304061196
0.3995,-2.998866789
0.4,-2.083283566
0.4005,-1.778089158
0.401,-2.388477973
0.4015,-2.083283566
0.402,-0.557311527
0.4025,0.358271696
0.403,-0.252117119
0.4035,-1.47289475
0.404,-2.083283566
0.4045,-1.778089158
0.405,-2.388477973
0.4055,-2.693672381
0.406,-2.388477973
0.4065,-1.47289475
0.407,-1.778089158
0.4075,-2.998866789
0.408,-2.693672381
0.4085,-1.47289475
0.409,-1.167700343
0.4095,-1.778089158
0.41,-2.388477973
0.4105,-1.47289475
0.411,-0.862505935
0.4115,-1.47289475
0.412,-2.388477973
0.4125,-2.693672381
0.413,-2.998866789
0.4135,-3.304061196
0.414,-2.998866789
0.4145,-1.778089158
0.415,-1.167700343
0.4155,-1.47289475
0.416,-1.47289475
0.4165,-0.557311527
0.417,0.053077288
0.4175,-0.252117119
0.418,-1.47289475
0.4185,-1.47289475
0.419,-0.862505935
0.4195,-0.862505935
0.42,-1.778089158
0.4205,-2.388477973
0.421,-2.388477973
0.4215,-1.778089158
0.422,-1.47289475
0.4225,-1.47289475
0.423,-1.778089158
0.4235,-2.388477973
0.424,-2.083283566
0.4245,-0.862505935
0.425,0.053077288
0.4255,-0.252117119
0.426,-1.167700343
0.4265,-1.47289475
0.427,-0.862505935
0.4275,-0.557311527
0.428,-0.862505935
0.4285,-1.47289475
0.429,-2.083283566
0.4295,-2.083283566
0.43,-1.778089158
0.4305,-1.167700343
0.431,-0.252117119
0.4315,-0.252117119
0.432,-0.252117119
0.4325,0.053077288
0.433,0.358271696
0.4335,0.053077288
0.434,-0.252117119
0.4345,-0.862505935
0.435,-1.167700343
0.4355,-1.778089158
0.436,-1.778089158
0.4365,-1.47289475
0.437,-1.167700343
0.4375,-1.778089158
0.438,-2.083283566
0.4385,-1.167700343
0.439,0.358271696
0.4395,1.273854919
0.44,0.358271696
0.4405,-0.557311527
0.441,-0.862505935
0.4415,-0.252117119
0.442,0.053077288
0.4425,0.053077288
0.443,0.358271696
0.4435,1.273854919
0.444,1.579049327
0.4445,0.663466104
0.445,0.053077288
0.4455,0.663466104
0.446,1.579049327
0.4465,2.189438142
0.447,2.189438142
0.4475,1.884243735
0.448,1.884243735
0.4485,1.273854919
0.449,0.968660511
0.4495,1.273854919
0.45,2.49463255
0.4505,2.799826958
0.451,2.799826958
0.4515,2.49463255
0.452,2.49463255
0.4525,2.189438142
0.453,1.273854919
0.4535,1.273854919
0.454,1.273854919
0.4545,0.663466104
0.455,-0.252117119
0.4555,-0.557311527
0.456,0.053077288
0.4565,0.663466104
0.457,0.053077288
0.4575,-0.252117119
0.458,-0.252117119
0.4585,-0.252117119
0.459,-0.252117119
0.4595,0.053077288
0.46,0.968660511
0.4605,1.579049327
0.461,1.273854919
0.4615,0.358271696
0.462,-0.252117119
0.4625,0.053077288
0.463,0.358271696
0.4635,0.358271696
0.464,0.358271696
0.4645,0.358271696
0.465,0.358271696
0.4655,0.358271696
0.466,0.663466104
0.4665,0.968660511
0.467,1.273854919
0.4675,1.579049327
0.468,1.273854919
0.4685,0.053077288
0.469,-1.167700343
0.4695,-1.47289475
0.47,-0.557311527
0.4705,0.663466104
0.471,0.663466104
0.4715,-0.252117119
0.472,-0.862505935
0.4725,-1.167700343
0.473,-0.557311527
0.4735,-0.252117119
0.474,0.663466104
0.4745,1.273854919
0.475,1.273854919
0.4755,0.663466104
0.476,-0.252117119
0.4765,-0.252117119
0.477,0.053077288
0.4775,0.663466104
0.478,0.663466104
0.4785,0.053077288
0.479,-0.252117119
0.4795,-0.252117119
0.48,-0.862505935
0.4805,-1.778089158
0.481,-1.778089158
0.4815,-1.167700343
0.482,-0.557311527
0.4825,-0.252117119
0.483,-0.557311527
0.4835,-0.557311527
0.484,-0.252117119
0.4845,1.273854919
0.485,1.884243735
0.4855,0.968660511
0.486,-0.862505935
0.4865,-2.083283566
0.487,-0.862505935
0.4875,0.358271696
0.488,0.968660511
0.4885,0.358271696
0.489,-0.252117119
0.4895,-0.862505935
0.49,-0.862505935
0.4905,-0.557311527
0.491,0.358271696
0.4915,0.968660511
0.492,0.358271696
0.4925,-0.252117119
0.493,-0.557311527
0.4935,0.053077288
0.494,0.663466104
0.4945,0.663466104
0.495,0.358271696
0.4955,0.358271696
0.496,0.663466104
0.4965,0.358271696
0.497,-0.252117119
0.4975,-0.862505935
0.498,-0.252117119
0.4985,0.968660511
0.499,1.579049327
0.4995,1.273854919
0.5,0.663466104
0.5005,-0.252117119
0.501,-0.252117119
0.5015,-0.252117119
0.502,0.663466104
0.5025,0.358271696
0.503,-0.862505935
0.5035,-1.778089158
0.504,-0.862505935
0.5045,0.663466104
0.505,1.273854919
0.5055,0.053077288
0.506,-1.167700343
0.5065,-1.47289475
0.507,-0.557311527
0.5075,0.053077288
0.508,0.358271696
0.5085,0.053077288
0.509,-0.252117119
0.5095,0.053077288
0.51,0.663466104
0.5105,0.053077288
0.511,-0.862505935
0.5115,-1.47289475
0.512,-0.557311527
0.5125,-0.252117119
0.513,-0.862505935
0.5135,-2.083283566
0.514,-2.083283566
0.5145,-1.167700343
0.515,-1.167700343
0.5155,-1.167700343
0.516,-0.252117119
0.5165,0.358271696
0.517,-0.252117119
0.5175,-0.557311527
0.518,0.053077288
0.5185,0.968660511
0.519,0.053077288
0.5195,-1.47289475
0.52,-1.167700343
0.5205,0.663466104
0.521,1.273854919
0.5215,-0.252117119
0.522,-0.557311527
0.5225,0.663466104
0.523,1.884243735
0.5235,1.579049327
0.524,0.053077288
0.5245,-0.252117119
0.525,-0.252117119
0.5255,-0.252117119
0.526,-0.252117119
0.5265,-0.252117119
0.527,-0.252117119
0.5275,-0.557311527
0.528,-0.252117119
0.5285,0.358271696
0.529,0.663466104
0.5295,-0.557311527
0.53,-1.167700343
0.5305,-0.252117119
0.531,2.189438142
0.5315,2.799826958
0.532,1.579049327
0.5325,-0.252117119
0.533,-0.252117119
0.5335,0.663466104
0.534,0.968660511
0.5345,0.968660511
0.535,1.273854919
0.5355,2.49463255
0.536,2.799826958
0.5365,2.189438142
0.537,0.968660511
0.5375,0.663466104
0.538,1.884243735
0.5385,2.49463255
0.539,2.189438142
0.5395,1.273854919
0.54,0.968660511
0.5405,0.968660511
0.541,0.358271696
0.5415,-0.252117119
0.542,-0.557311527
0.5425,-0.252117119
0.543,0.663466104
0.5435,0.358271696
0.544,-0.252117119
0.5445,-0.252117119
0.545,-0.252117119
0.5455,0.053077288
0.546,0.053077288
0.5465,-0.252117119
0.547,-0.252117119
0.5475,-0.252117119
0.548,-0.252117119
0.5485,-0.557311527
0.549,-0.862505935
0.5495,-0.252117119
0.55,0.968660511
0.5505,1.273854919
0.551,0.358271696
0.5515,-0.557311527
0.552,-0.862505935
0.5525,-0.252117119
0.553,-0.252117119
0.5535,-0.557311527
0.554,-0.252117119
0.5545,0.358271696
0.555,0.053077288
0.5555,-1.167700343
0.556,-1.47289475
0.5565,-0.252117119
0.557,0.663466104
0.5575,0.053077288
0.558,-0.252117119
0.5585,0.053077288
0.559,1.273854919
0.5595,0.358271696
0.56,-1.167700343
0.5605,-0.557311527
0.561,1.579049327
0.5615,2.799826958
0.562,1.273854919
0.5625,-0.252117119
0.563,0.358271696
0.5635,1.579049327
0.564,0.968660511
0.5645,0.053077288
0.565,0.663466104
0.5655,2.189438142
0.566,1.579049327
0.5665,-0.252117119
0.567,-2.083283566
0.5675,-1.47289475
0.568,-0.252117119
0.5685,-0.252117119
0.569,-0.862505935
0.5695,-0.862505935
0.57,-0.557311527
0.5705,-0.557311527
0.571,-0.557311527
0.5715,-0.862505935
0.572,-0.557311527
0.5725,-0.252117119
0.573,0.053077288
0.5735,-0.252117119
0.574,-1.47289475
0.5745,-2.998866789
0.575,-3.304061196
0.5755,-2.083283566
0.576,-0.557311527
0.5765,0.053077288
0.577,0.053077288
0.5775,-0.252117119
0.578,-0.862505935
0.5785,-1.167700343
0.579,-0.862505935
0.5795,-0.557311527
0.58,-0.557311527
0.5805,-1.167700343
0.581,-1.47289475
0.5815,-1.167700343
0.582,-1.167700343
0.5825,-1.778089158
0.583,-2.083283566
0.5835,-1.778089158
0.584,-0.862505935
0.5845,-0.557311527
0.585,-1.47289475
0.5855,-2.388477973
0.586,-2.388477973
0.5865,-0.862505935
0.587,0.053077288
0.5875,-0.252117119
0.588,-0.862505935
0.5885,-1.167700343
0.589,-0.252117119
0.5895,0.358271696
0.59,0.053077288
0.5905,-0.862505935
0.591,-0.862505935
0.5915,-0.252117119
0.592,-0.252117119
0.5925,-1.167700343
0.593,-2.693672381
0.5935,-3.304061196
0.594,-2.388477973
0.5945,-1.167700343
0.595,-1.47289475
0.5955,-2.083283566
0.596,-2.083283566
0.5965,-1.47289475
0.597,-1.47289475
0.5975,-1.47289475
0.598,-0.862505935
0.5985,-0.252117119
0.599,-0.252117119
0.5995,-0.252117119
0.6,-0.557311527
0.6005,-0.862505935
0.601,-1.47289475
0.6015,-2.083283566
0.602,-0.862505935
0.6025,0.358271696
0.603,0.663466104
0.6035,-0.557311527
0.604,-2.083283566
0.6045,-2.388477973
0.605,-1.778089158
0.6055,-1.167700343
0.606,-1.167700343
0.6065,-1.778089158
0.607,-2.388477973
0.6075,-1.47289475
0.608,0.053077288
0.6085,1.273854919
0.609,0.358271696
0.6095,-0.557311527
0.61,-0.252117119
0.6105,0.968660511
0.611,0.968660511
0.6115,-0.252117119
0.612,0.358271696
0.6125,1.884243735
0.613,2.49463255
0.6135,1.579049327
0.614,1.579049327
0.6145,1.884243735
0.615,1.273854919
0.6155,0.358271696
0.616,0.358271696
0.6165,1.273854919
0.617,1.579049327
0.6175,1.273854919
0.618,1.884243735
0.6185,3.105021365
0.619,2.49463255
0.6195,0.358271696
0.62,-0.252117119
0.6205,0.968660511
0.621,3.105021365
0.6215,2.799826958
0.622,0.968660511
0.6225,0.358271696
0.623,0.358271696
0.6235,0.053077288
0.624,-0.557311527
0.6245,-0.252117119
0.625,0.358271696
0.6255,0.968660511
0.626,0.663466104
0.6265,0.053077288
0.627,-0.557311527
0.6275,-1.47289475
0.628,-1.778089158
0.6285,-0.862505935
0.629,0.358271696
0.6295,0.968660511
0.63,0.968660511
0.6305,0.663466104
0.631,0.358271696
0.6315,0.053077288
0.632,-0.252117119
0.6325,0.053077288
0.633,0.663466104
0.6335,1.273854919
0.634,1.579049327
0.6345,1.884243735
0.635,1.884243735
0.6355,1.273854919
0.636,0.968660511
0.6365,0.968660511
0.637,1.273854919
0.6375,1.273854919
0.638,0.968660511
0.6385,0.358271696
0.639,0.053077288
0.6395,-0.252117119
0.64,-0.252117119
0.6405,-0.252117119
0.641,0.053077288
0.6415,0.968660511
0.642,0.663466104
0.6425,-0.252117119
0.643,-0.862505935
0.6435,-1.167700343
0.644,-1.47289475
0.6445,-2.083283566
0.645,-2.388477973
0.6455,-1.47289475
0.646,-0.862505935
0.6465,-1.167700343
0.647,-2.083283566
0.6475,-1.778089158
0.648,-0.252117119
0.6485,1.273854919
0.649,1.273854919
0.6495,-0.252117119
0.65,-0.557311527
0.6505,-0.252117119
0.651,0.358271696
0.6515,0.053077288
0.652,-0.557311527
0.6525,-1.47289475
0.653,-1.167700343
0.6535,-0.557311527
0.654,-0.252117119
0.6545,-0.252117119
0.655,-0.252117119
0.6555,-0.252117119
0.656,-0.252117119
0.6565,-0.252117119
0.657,-0.557311527
0.6575,-1.167700343
0.658,-1.47289475
0.6585,-0.862505935
0.659,0.358271696
0.6595,1.579049327
0.66,1.579049327
0.6605,1.273854919
0.661,0.968660511
0.6615,0.663466104
0.662,-0.252117119
0.6625,-1.167700343
0.663,-1.47289475
0.6635,-0.862505935
0.664,-0.557311527
0.6645,-0.862505935
0.665,-1.47289475
0.6655,-1.47289475
0.666,-1.47289475
0.6665,-1.167700343
0.667,-0.557311527
0.6675,-0.252117119
0.668,-0.557311527
0.6685,-1.167700343
0.669,-0.557311527
0.6695,0.053077288
0.67,0.053077288
0.6705,-0.252117119
0.671,-0.252117119
0.6715,-0.557311527
0.672,-1.167700343
0.6725,-2.083283566
0.673,-1.778089158
0.6735,-1.47289475
0.674,-1.778089158
0.6745,-2.083283566
0.675,-1.167700343
0.6755,0.663466104
0.676,1.273854919
0.6765,0.358271696
0.677,-0.252117119
0.6775,-0.252117119
0.678,0.358271696
0.6785,0.358271696
0.679,0.053077288
0.6795,0.663466104
0.68,1.273854919
0.6805,1.273854919
0.681,1.273854919
0.6815,0.663466104
0.682,0.053077288
0.6825,-0.252117119
0.683,-0.252117119
0.6835,0.663466104
0.684,0.663466104
0.6845,-0.557311527
0.685,-1.167700343
0.6855,-0.252117119
0.686,0.053077288
0.6865,-0.252117119
0.687,-0.862505935
0.6875,-0.557311527
0.688,-0.252117119
0.6885,-1.47289475
0.689,-2.693672381
0.6895,-2.083283566
0.69,0.053077288
0.6905,0.968660511
0.691,-0.252117119
0.6915,-1.47289475
0.692,-1.778089158
0.6925,-0.557311527
0.693,0.053077288
0.6935,0.053077288
0.694,-0.252117119
0.6945,0.053077288
0.695,0.968660511
0.6955,1.273854919
0.696,0.358271696
0.6965,-0.557311527
0.697,-0.252117119
0.6975,1.273854919
0.698,2.189438142
0.6985,0.358271696
0.699,-1.778089158
0.6995,-1.778089158
0.7,-0.252117119
0.7005,0.663466104
0.701,-0.557311527
0.7015,-1.47289475
0.702,-0.252117119
0.7025,0.968660511
0.703,0.968660511
0.7035,-0.252117119
0.704,-0.557311527
0.7045,-0.252117119
0.705,-0.557311527
0.7055,-1.47289475
0.706,-2.083283566
0.7065,-2.388477973
0.707,-2.693672381
0.7075,-3.304061196
0.708,-2.998866789
0.7085,-1.778089158
0.709,-0.252117119
0.7095,-0.252117119
0.71,-0.862505935
0.7105,-0.862505935
0.711,-0.557311527
0.7115,-0.252117119
0.712,-0.557311527
0.7125,-1.47289475
0.713,-1.778089158
0.7135,-1.47289475
0.714,-0.557311527
0.7145,0.053077288
0.715,0.663466104
0.7155,0.968660511
0.716,0.358271696
0.7165,-0.252117119
0.717,-0.862505935
0.7175,-1.47289475
0.718,-2.083283566
0.7185,-2.388477973
0.719,-2.083283566
0.7195,-0.557311527
0.72,0.663466104
0.7205,0.968660511
0.721,0.053077288
0.7215,-0.252117119
0.722,-0.252117119
0.7225,1.273854919
0.723,1.884243735
0.7235,0.968660511
0.724,-0.252117119
0.7245,-0.252117119
0.725,0.358271696
0.7255,0.968660511
0.726,-0.252117119
0.7265,-0.862505935
0.727,-0.862505935
0.7275,-0.557311527
0.728,-0.252117119
0.7285,0.663466104
0.729,1.884243735
0.7295,2.799826958
0.73,2.49463255
0.7305,1.579049327
0.731,1.273854919
0.7315,1.884243735
0.732,1.884243735
0.7325,0.968660511
0.733,-0.252117119
0.7335,-0.252117119
0.734,0.358271696
0.7345,1.273854919
0.735,0.663466104
0.7355,0.053077288
0.736,-0.252117119
0.7365,0.053077288
0.737,-0.252117119
0.7375,-1.47289475
0.738,-2.083283566
0.7385,-0.862505935
0.739,0.663466104
0.7395,0.968660511
0.74,-0.252117119
0.7405,-0.862505935
0.741,0.053077288
0.7415,1.273854919
0.742,0.968660511
0.7425,0.358271696
0.743,0.663466104
0.7435,1.884243735
0.744,2.189438142
0.7445,1.273854919
0.745,0.358271696
0.7455,0.358271696
0.746,0.358271696
0.7465,-0.252117119
0.747,-0.557311527
0.7475,-0.252117119
0.748,0.663466104
0.7485,0.968660511
0.749,0.663466104
0.7495,0.968660511
0.75,1.579049327
0.7505,1.579049327
0.751,1.579049327
0.7515,2.189438142
0.752,2.799826958
0.7525,2.49463255
0.753,1.884243735
0.7535,1.579049327
0.754,1.579049327
0.7545,1.579049327
0.755,0.663466104
0.7555,0.358271696
0.756,1.273854919
0.7565,1.579049327
0.757,0.358271696
0.7575,-1.47289475
0.758,-2.388477973
0.7585,-0.862505935
0.759,0.358271696
0.7595,0.663466104
0.76,-0.252117119
0.7605,-0.557311527
0.761,-0.252117119
0.7615,-0.252117119
0.762,-1.167700343
0.7625,-2.083283566
0.763,-1.778089158
0.7635,-2.083283566
0.764,-4.21964442
0.7645,-6.050810866
0.765,-5.135227643
0.7655,-2.083283566
0.766,-0.557311527
0.7665,-2.083283566
0.767,-4.21964442
0.7675,-4.21964442
0.768,-2.693672381
0.7685,-2.083283566
0.769,-2.083283566
0.7695,-1.47289475
0.77,-0.557311527
0.7705,-0.557311527
0.771,-1.167700343
0.7715,-1.47289475
0.772,-0.862505935
0.7725,-0.862505935
0.773,-0.557311527
0.7735,0.663466104
0.774,3.105021365
0.7745,4.936187812
0.775,5.851771035
0.7755,5.546576627
0.776,5.546576627
0.7765,5.241382219
0.777,5.546576627
0.7775,6.46215985
0.778,7.377743073
0.7785,7.072548665
0.779,6.156965442
0.7795,4.936187812
0.78,4.020604588
0.7805,3.105021365
0.781,3.410215773
0.7815,4.020604588
0.782,4.325798996
0.7825,4.020604588
0.783,3.715410181
0.7835,4.630993404
0.784,6.156965442
0.7845,6.46215985
0.785,6.156965442
0.7855,6.156965442
0.786,5.851771035
0.7865,5.241382219
0.787,4.630993404
0.7875,4.630993404
0.788,3.105021365
0.7885,0.053077288
0.789,-2.693672381
0.7895,-3.914450012
0.79,-4.830033235
0.7905,-8.492366127
0.791,-13.68067106
0.7915,-17.03780954
0.792,-17.34300395
0.7925,-17.03780954
0.793,-18.25858717
0.7935,-19.1741704
0.794,-17.03780954
0.7945,-13.68067106
0.795,-10.93392139
0.7955,-9.713143758
0.796,-8.797560535
0.7965,-7.271588497
0.797,-6.050810866
0.7975,-5.135227643
0.798,-4.524838827
0.7985,-3.914450012
0.799,-3.609255604
0.7995,-3.914450012
0.8,-4.830033235
0.8005,-6.050810866
0.801,-7.271588497
0.8015,-7.576782904
0.802,-6.966394089
0.8025,-6.050810866
0.803,-5.44042205
0.8035,-5.745616458
0.804,-6.966394089
0.8045,-7.271588497
0.805,-6.050810866
0.8055,-4.830033235
0.806,-4.524838827
0.8065,-5.135227643
0.807,-5.44042205
0.8075,-4.524838827
0.808,-3.609255604
0.8085,-2.693672381
0.809,-2.083283566
0.8095,-2.083283566
0.81,-3.304061196
0.8105,-4.21964442
0.811,-3.304061196
0.8115,-1.47289475
0.812,-1.47289475
0.8125,-2.998866789
0.813,-3.914450012
0.8135,-2.693672381
0.814,-1.778089158
0.8145,-2.388477973
0.815,-3.304061196
0.8155,-2.693672381
0.816,-1.47289475
0.8165,-1.47289475
0.817,-2.388477973
0.8175,-2.388477973
0.818,-1.778089158
0.8185,-2.083283566
0.819,-2.388477973
0.8195,-1.778089158
0.82,-0.252117119
0.8205,0.663466104
0.821,1.273854919
0.8215,1.579049327
0.822,1.579049327
0.8225,0.968660511
0.823,1.273854919
0.8235,2.49463255
0.824,2.799826958
0.8245,1.579049327
0.825,0.358271696
0.8255,0.968660511
0.826,2.799826958
0.8265,4.020604588
0.827,4.020604588
0.8275,4.325798996
0.828,4.936187812
0.8285,5.546576627
0.829,6.156965442
0.8295,6.46215985
0.83,7.377743073
0.8305,7.682937481
0.831,7.377743073
0.8315,7.072548665
0.832,7.682937481
0.8325,8.598520704
0.833,9.819298335
0.8335,11.04007597
0.834,12.566048
0.8345,13.78682563
0.835,15.31279767
0.8355,17.14396412
0.836,18.36474175
0.8365,18.66993616
0.837,17.44915853
0.8375,16.2283809
0.838,15.61799208
0.8385,15.00760327
0.839,13.48163123
0.8395,10.73488156
0.84,8.293326296
0.8405,6.46215985
0.841,5.241382219
0.8415,3.715410181
0.842,2.189438142
0.8425,0.358271696
0.843,-0.557311527
0.8435,-0.252117119
0.844,0.358271696
0.8445,0.663466104
0.845,0.053077288
0.8455,-0.252117119
0.846,0.358271696
0.8465,0.358271696
0.847,-0.252117119
0.8475,-0.557311527
0.848,0.358271696
0.8485,1.884243735
0.849,1.884243735
0.8495,0.053077288
0.85,-0.557311527
0.8505,-0.862505935
0.851,-2.693672381
0.8515,-6.661199681
0.852,-9.713143758
0.8525,-10.62872698
0.853,-10.32353257
0.8535,-9.713143758
0.854,-8.797560535
0.8545,-7.271588497
0.855,-6.050810866
0.8555,-5.44042205
0.856,-4.830033235
0.8565,-3.304061196
0.857,-2.693672381
0.8575,-3.914450012
0.858,-4.830033235
0.8585,-3.914450012
0.859,-2.083283566
0.8595,-1.778089158
0.86,-2.388477973
0.8605,-2.083283566
0.861,-1.47289475
0.8615,-1.47289475
0.862,-0.862505935
0.8625,0.358271696
0.863,1.884243735
0.8635,2.49463255
0.864,1.884243735
0.8645,1.579049327
0.865,1.273854919
0.8655,0.053077288
0.866,-0.862505935
0.8665,-1.167700343
0.867,-0.252117119
0.8675,-0.557311527
0.868,-2.388477973
0.8685,-3.609255604
0.869,-2.693672381
0.8695,-1.167700343
0.87,0.053077288
0.8705,0.663466104
0.871,0.663466104
0.8715,-1.47289475
0.872,-4.830033235
0.8725,-7.576782904
0.873,-8.18717172
0.8735,-8.797560535
0.874,-10.93392139
0.8745,-13.68067106
0.875,-14.59625428
0.8755,-13.98586547
0.876,-13.07028224
0.8765,-12.15469902
0.877,-10.01833817
0.8775,-8.492366127
0.878,-9.102754943
0.8785,-10.93392139
0.879,-12.45989343
0.8795,-12.76508784
0.88,-13.07028224
0.8805,-13.68067106
0.881,-13.68067106
0.8815,-12.45989343
0.882,-12.15469902
0.8825,-12.45989343
0.883,-12.76508784
0.8835,-11.5443102
0.884,-9.713143758
0.8845,-8.492366127
0.885,-7.881977312
0.8855,-7.271588497
0.886,-6.356005273
0.8865,-5.44042205
0.887,-4.524838827
0.8875,-4.21964442
0.888,-4.830033235
0.8885,-6.050810866
0.889,-4.830033235
0.8895,-1.47289475
0.89,2.189438142
0.8905,3.715410181
0.891,3.715410181
0.8915,4.020604588
0.892,5.241382219
0.8925,5.851771035
0.893,5.546576627
0.8935,6.46215985
0.894,8.598520704
0.8945,9.819298335
0.895,9.208909519
0.8955,7.988131889
0.896,8.293326296
0.8965,8.903715112
0.897,8.903715112
0.8975,9.208909519
0.898,11.34527037
0.8985,14.70240886
0.899,16.83876971
0.8995,17.44915853
0.9,17.75435293
0.9005,18.36474175
0.901,18.05954734
0.9015,16.2283809
0.902,14.70240886
0.9025,14.09202004
0.903,14.09202004
0.9035,14.09202004
0.904,14.70240886
0.9045,15.61799208
0.905,15.92318649
0.9055,15.92318649
0.906,15.31279767
0.9065,15.00760327
0.907,14.70240886
0.9075,14.39721445
0.908,15.31279767
0.9085,16.83876971
0.909,16.83876971
0.9095,15.61799208
0.91,14.39721445
0.9105,14.09202004
0.911,13.78682563
0.9115,12.566048
0.912,11.04007597
0.9125,10.42968715
0.913,10.42968715
0.9135,10.42968715
0.914,10.73488156
0.9145,12.566048
0.915,14.09202004
0.9155,14.39721445
0.916,12.87124241
0.9165,10.42968715
0.917,6.46215985
0.9175,0.968660511
0.918,-3.914450012
0.9185,-7.271588497
0.919,-9.102754943
0.9195,-11.5443102
0.92,-14.59625428
0.9205,-17.03780954
0.921,-17.34300395
0.9215,-16.42742073
0.922,-16.42742073
0.9225,-17.95339277
0.923,-18.86897599
0.9235,-17.64819836
0.924,-14.59625428
0.9245,-11.5443102
0.925,-10.93392139
0.9255,-12.76508784
0.926,-13.68067106
0.9265,-12.45989343
0.927,-9.102754943
0.9275,-6.050810866
0.928,-3.914450012
0.9285,-1.47289475
0.929,1.884243735
0.9295,4.020604588
0.93,2.799826958
0.9305,0.053077288
0.931,-1.167700343
0.9315,-1.167700343
0.932,-0.557311527
0.9325,-0.557311527
0.933,0.358271696
0.9335,2.799826958
0.934,4.630993404
0.9345,4.020604588
0.935,2.49463255
0.9355,2.189438142
0.936,2.189438142
0.9365,0.053077288
0.937,-4.524838827
0.9375,-10.93392139
0.938,-17.03780954
0.9385,-22.22611447
0.939,-27.109225
0.9395,-31.0767523
0.94,-33.21311315
0.9405,-33.51830756
0.941,-32.60272434
0.9415,-31.68714111
0.942,-31.68714111
0.9425,-32.60272434
0.943,-33.21311315
0.9435,-31.3819467
0.944,-28.02480822
0.9445,-24.05728092
0.945,-21.00533684
0.9455,-18.56378158
0.946,-16.73261514
0.9465,-14.29105987
0.947,-11.84950461
0.9475,-10.62872698
0.948,-10.01833817
0.9485,-9.40794935
0.949,-7.881977312
0.9495,-6.050810866
0.95,-4.830033235
0.9505,-3.914450012
0.951,-2.083283566
0.9515,-0.252117119
0.952,0.968660511
0.9525,0.968660511
0.953,1.579049327
0.9535,2.799826958
0.954,4.020604588
0.9545,3.715410181
0.955,2.189438142
0.9555,0.358271696
0.956,-0.252117119
0.9565,1.579049327
0.957,4.630993404
0.9575,6.156965442
0.958,5.241382219
0.9585,3.410215773
0.959,3.105021365
0.9595,4.936187812
0.96,7.682937481
0.9605,8.903715112
0.961,8.903715112
0.9615,8.293326296
0.962,7.988131889
0.9625,8.293326296
0.963,9.208909519
0.9635,10.42968715
0.964,10.12449274
0.9645,8.903715112
0.965,7.682937481
0.9655,7.072548665
0.966,6.767354258
0.9665,5.851771035
0.967,5.241382219
0.9675,5.851771035
0.968,7.072548665
0.9685,7.682937481
0.969,7.377743073
0.9695,6.767354258
0.97,7.377743073
0.9705,7.988131889
0.971,7.072548665
0.9715,5.546576627
0.972,4.630993404
0.9725,5.546576627
0.973,6.46215985
0.9735,6.156965442
0.974,4.936187812
0.9745,5.241382219
0.975,6.156965442
0.9755,6.156965442
0.976,4.325798996
0.9765,3.410215773
0.977,4.630993404
0.9775,5.546576627
0.978,4.936187812
0.9785,3.410215773
0.979,2.799826958
0.9795,4.325798996
0.98,5.546576627
0.9805,5.546576627
0.981,4.325798996
0.9815,3.410215773
0.982,2.189438142
0.9825,1.884243735
0.983,2.799826958
0.9835,5.241382219
0.984,6.46215985
0.9845,5.241382219
0.985,3.105021365
0.9855,2.49463255
0.986,3.410215773
0.9865,3.410215773
0.987,3.105021365
0.9875,3.410215773
0.988,4.630993404
0.9885,5.546576627
0.989,6.156965442
0.9895,6.767354258
0.99,7.377743073
0.9905,7.072548665
0.991,7.072548665
0.9915,8.293326296
0.992,9.819298335
0.9925,9.208909519
0.993,7.988131889
0.9935,7.988131889
0.994,8.903715112
0.9945,8.293326296
0.995,7.072548665
0.9955,7.377743073
0.996,9.819298335
0.9965,11.04007597
0.997,10.42968715
0.9975,9.514103927
0.998,10.42968715
0.9985,12.2608536
0.999,14.09202004
0.9995,16.83876971
1,20.5011026
1.0005,23.55304668
1.001,23.85824109
1.0015,22.94265787
1.002,22.63746346
1.0025,23.55304668
1.003,23.55304668
1.0035,22.94265787
1.004,22.02707464
1.0045,20.5011026
1.005,18.36474175
1.0055,16.5335753
1.006,15.92318649
1.0065,16.2283809
1.007,16.5335753
1.0075,16.83876971
1.008,17.75435293
1.0085,17.44915853
1.009,15.31279767
1.0095,11.95565919
1.01,10.12449274
1.0105,10.12449274
1.011,9.208909519
1.0115,5.851771035
1.012,0.968660511
1.0125,-3.609255604
1.013,-7.576782904
1.0135,-11.84950461
1.014,-16.42742073
1.0145,-20.39494803
1.015,-23.75208651
1.0155,-26.19364177
1.016,-27.109225
1.0165,-25.27805855
1.017,-20.70014244
1.0175,-16.12222632
1.018,-13.07028224
1.0185,-11.2391158
1.019,-9.713143758
1.0195,-7.881977312
1.02,-6.356005273
1.0205,-5.135227643
1.021,-5.135227643
1.0215,-6.356005273
1.022,-8.797560535
1.0225,-11.5443102
1.023,-13.98586547
1.0235,-16.73261514
1.024,-20.08975362
1.0245,-23.1416977
1.025,-24.97286414
1.0255,-25.88844737
1.026,-25.88844737
1.0265,-25.27805855
1.027,-24.66766974
1.0275,-23.75208651
1.028,-22.53130888
1.0285,-19.1741704
1.029,-14.90144869
1.0295,-11.84950461
1.03,-10.01833817
1.0305,-8.797560535
1.031,-6.966394089
1.0315,-5.135227643
1.032,-4.524838827
1.0325,-6.050810866
1.033,-8.797560535
1.0335,-11.84950461
1.034,-13.98586547
1.0345,-14.90144869
1.035,-16.12222632
1.0355,-18.56378158
1.036,-21.31053125
1.0365,-22.22611447
1.037,-21.00533684
1.0375,-20.08975362
1.038,-20.08975362
1.0385,-19.1741704
1.039,-16.73261514
1.0395,-15.5118375
1.04,-16.12222632
1.0405,-16.73261514
1.041,-13.98586547
1.0415,-10.32353257
1.042,-8.492366127
1.0425,-9.713143758
1.043,-10.01833817
1.0435,-8.492366127
1.044,-6.966394089
1.0445,-7.271588497
1.045,-8.492366127
1.0455,-8.492366127
1.046,-6.050810866
1.0465,-2.693672381
1.047,-0.252117119
1.0475,0.968660511
1.048,1.579049327
1.0485,2.189438142
1.049,2.799826958
1.0495,3.410215773
1.05,3.105021365
1.0505,3.105021365
1.051,3.715410181
1.0515,4.630993404
1.052,5.546576627
1.0525,6.156965442
1.053,6.767354258
1.0535,7.072548665
1.054,7.377743073
1.0545,7.377743073
1.055,7.682937481
1.0555,8.293326296
1.056,8.598520704
1.0565,8.598520704
1.057,7.988131889
1.0575,7.072548665
1.058,6.46215985
1.0585,6.767354258
1.059,7.682937481
1.0595,7.377743073
1.06,5.851771035
1.0605,4.020604588
1.061,3.410215773
1.0615,3.715410181
1.062,4.325798996
1.0625,4.630993404
1.063,4.325798996
1.0635,3.715410181
1.064,3.105021365
1.0645,2.49463255
1.065,1.273854919
1.0655,0.358271696
1.066,0.663466104
1.0665,3.105021365
1.067,5.546576627
1.0675,6.156965442
1.068,4.325798996
1.0685,2.799826958
1.069,3.105021365
1.0695,3.410215773
1.07,2.189438142
1.0705,0.968660511
1.071,1.273854919
1.0715,1.884243735
1.072,1.579049327
1.0725,0.663466104
1.073,1.273854919
1.0735,2.799826958
1.074,3.105021365
1.0745,1.884243735
1.075,1.579049327
1.0755,3.105021365
1.076,4.325798996
1.0765,3.715410181
1.077,1.884243735
1.0775,0.968660511
1.078,0.968660511
1.0785,1.273854919
1.079,1.579049327
1.0795,1.884243735
1.08,1.884243735
1.0805,2.189438142
1.081,2.189438142
1.0815,2.49463255
1.082,2.49463255
1.0825,2.49463255
1.083,1.884243735
1.0835,0.968660511
1.084,-0.252117119
1.0845,-0.252117119
1.085,-0.557311527
1.0855,-0.557311527
1.086,-0.862505935
1.0865,-0.557311527
1.087,0.663466104
1.0875,1.884243735
1.088,1.579049327
1.0885,0.358271696
1.089,-0.252117119
1.0895,0.663466104
1.09,0.968660511
1.0905,0.968660511
1.091,0.968660511
1.0915,2.49463255
1.092,4.325798996
1.0925,5.241382219
1.093,5.241382219
1.0935,4.325798996
1.094,3.105021365
1.0945,2.189438142
1.095,1.579049327
1.0955,1.579049327
1.096,1.579049327
1.0965,1.579049327
1.097,0.663466104
1.0975,-0.252117119
1.098,-0.557311527
1.0985,-0.862505935
1.099,-1.167700343
1.0995,-2.083283566
1.1,-2.998866789
1.1005,-3.609255604
1.101,-3.304061196
1.1015,-2.998866789
1.102,-2.998866789
1.1025,-3.304061196
1.103,-3.304061196
1.1035,-2.388477973
1.104,-2.083283566
1.1045,-2.693672381
1.105,-3.304061196
1.1055,-2.693672381
1.106,-1.47289475
1.1065,-0.862505935
1.107,-1.778089158
1.1075,-2.083283566
1.108,-1.47289475
1.1085,-0.862505935
1.109,-0.862505935
1.1095,-0.862505935
1.11,-0.252117119
1.1105,-0.252117119
1.111,-0.252117119
1.1115,0.053077288
1.112,1.273854919
1.1125,1.884243735
1.113,1.273854919
1.1135,-0.252117119
1.114,-0.557311527
1.1145,-0.252117119
1.115,0.663466104
1.1155,0.663466104
1.116,0.053077288
1.1165,-0.557311527
1.117,-0.862505935
1.1175,-0.862505935
1.118,-0.557311527
1.1185,-0.252117119
1.119,0.053077288
1.1195,0.968660511
1.12,1.273854919
1.1205,1.273854919
1.121,1.273854919
1.1215,1.579049327
1.122,2.49463255
1.1225,2.799826958
1.123,2.49463255
1.1235,1.884243735
1.124,1.579049327
1.1245,1.579049327
1.125,1.884243735
1.1255,2.189438142
1.126,2.189438142
1.1265,2.49463255
1.127,3.105021365
1.1275,3.410215773
1.128,2.49463255
1.1285,1.579049327
1.129,1.579049327
1.1295,1.884243735
1.13,0.663466104
1.1305,-1.167700343
1.131,-2.693672381
1.1315,-2.998866789
1.132,-2.693672381
1.1325,-2.693672381
1.133,-2.693672381
1.1335,-2.998866789
1.134,-3.609255604
1.1345,-4.21964442
1.135,-3.914450012
1.1355,-2.693672381
1.136,-2.083283566
1.1365,-2.388477973
1.137,-2.693672381
1.1375,-2.693672381
1.138,-2.388477973
1.1385,-3.304061196
1.139,-3.914450012
1.1395,-3.304061196
1.14,-2.388477973
1.1405,-2.693672381
1.141,-3.304061196
1.1415,-3.304061196
1.142,-2.083283566
1.1425,-0.862505935
1.143,-0.252117119
1.1435,-0.862505935
1.144,-1.167700343
1.1445,-1.47289475
1.145,-2.388477973
1.1455,-2.998866789
1.146,-2.693672381
1.1465,-1.47289475
1.147,-0.252117119
1.1475,0.663466104
1.148,1.579049327
1.1485,1.579049327
1.149,0.663466104
1.1495,-0.862505935
1.15,-2.083283566
1.1505,-1.47289475
1.151,-0.862505935
1.1515,-1.167700343
1.152,-2.083283566
1.1525,-2.083283566
1.153,-1.47289475
1.1535,-1.167700343
1.154,-1.47289475
1.1545,-1.778089158
1.155,-1.778089158
1.1555,-2.083283566
1.156,-2.388477973
1.1565,-2.998866789
1.157,-4.21964442
1.1575,-5.44042205
1.158,-6.050810866
1.1585,-6.050810866
1.159,-6.661199681
1.1595,-8.492366127
1.16,-9.713143758
1.1605,-8.492366127
1.161,-5.44042205
1.1615,-2.998866789
1.162,-1.778089158
1.1625,-1.167700343
1.163,-0.252117119
1.1635,0.053077288
1.164,1.579049327
1.1645,4.020604588
1.165,7.072548665
1.1655,8.903715112
1.166,9.208909519
1.1665,8.903715112
1.167,8.293326296
1.1675,8.903715112
1.168,11.34527037
1.1685,14.39721445
1.169,15.92318649
1.1695,14.39721445
1.17,11.34527037
1.1705,9.208909519
1.171,8.598520704
1.1715,7.988131889
1.172,7.682937481
1.1725,8.598520704
1.173,8.903715112
1.1735,7.377743073
1.174,4.630993404
1.1745,2.799826958
1.175,3.410215773
1.1755,4.020604588
1.176,2.799826958
1.1765,1.273854919
1.177,1.884243735
1.1775,5.851771035
1.178,10.73488156
1.1785,14.09202004
1.179,14.09202004
1.1795,11.65046478
1.18,9.208909519
1.1805,7.682937481
1.181,5.546576627
1.1815,1.884243735
1.182,-2.083283566
1.1825,-5.135227643
1.183,-6.050810866
1.1835,-6.050810866
1.184,-6.966394089
1.1845,-8.18717172
1.185,-8.797560535
1.1855,-7.881977312
1.186,-6.050810866
1.1865,-5.44042205
1.187,-6.966394089
1.1875,-10.01833817
1.188,-12.15469902
1.1885,-12.76508784
1.189,-13.07028224
1.1895,-13.98586547
1.19,-13.98586547
1.1905,-12.45989343
1.191,-11.5443102
1.1915,-12.76508784
1.192,-14.59625428
1.1925,-14.59625428
1.193,-13.68067106
1.1935,-14.59625428
1.194,-17.03780954
1.1945,-18.25858717
1.195,-15.81703191
1.1955,-12.45989343
1.196,-10.62872698
1.1965,-10.62872698
1.197,-9.713143758
1.1975,-8.18717172
1.198,-6.966394089
1.1985,-7.271588497
1.199,-7.576782904
1.1995,-6.966394089
1.2,-6.050810866
1.2005,-5.44042205
1.201,-6.050810866
1.2015,-6.966394089
1.202,-7.576782904
1.2025,-6.966394089
1.203,-5.745616458
1.2035,-5.745616458
1.204,-6.661199681
1.2045,-6.966394089
1.205,-5.745616458
1.2055,-4.21964442
1.206,-4.524838827
1.2065,-5.135227643
1.207,-3.609255604
1.2075,-0.252117119
1.208,1.884243735
1.2085,1.273854919
1.209,-0.557311527
1.2095,-1.167700343
1.21,-0.557311527
1.2105,-0.252117119
1.211,0.053077288
1.2115,1.273854919
1.212,2.799826958
1.2125,3.410215773
1.213,2.49463255
1.2135,1.579049327
1.214,1.884243735
1.2145,3.410215773
1.215,5.241382219
1.2155,5.546576627
1.216,4.630993404
1.2165,3.410215773
1.217,3.105021365
1.2175,3.410215773
1.218,3.105021365
1.2185,2.799826958
1.219,3.410215773
1.2195,4.936187812
1.22,5.546576627
1.2205,5.241382219
1.221,4.630993404
1.2215,4.325798996
1.222,5.546576627
1.2225,7.072548665
1.223,7.988131889
1.2235,7.377743073
1.224,6.156965442
1.2245,5.241382219
1.225,4.630993404
1.2255,4.020604588
1.226,3.105021365
1.2265,3.105021365
1.227,4.020604588
1.2275,4.936187812
1.228,4.630993404
1.2285,3.715410181
1.229,4.325798996
1.2295,6.46215985
1.23,7.988131889
1.2305,8.293326296
1.231,8.903715112
1.2315,10.42968715
1.232,12.566048
1.2325,13.78682563
1.233,14.70240886
1.2335,15.00760327
1.234,14.70240886
1.2345,13.17643682
1.235,12.2608536
1.2355,12.87124241
1.236,14.70240886
1.2365,17.14396412
1.237,20.5011026
1.2375,24.1634355
1.238,27.82576839
1.2385,29.04654602
1.239,29.04654602
1.2395,28.74135161
1.24,28.4361572
1.2405,26.91018517
1.241,24.4686299
1.2415,21.72188024
1.242,18.66993616
1.2425,14.39721445
1.243,8.598520704
1.2435,3.410215773
1.244,0.358271696
1.2445,-1.778089158
1.245,-5.135227643
1.2455,-10.01833817
1.246,-13.98586547
1.2465,-16.42742073
1.247,-17.34300395
1.2475,-18.25858717
1.248,-19.1741704
1.2485,-19.78455921
1.249,-20.08975362
1.2495,-19.4793648
1.25,-19.4793648
1.2505,-21.00533684
1.251,-23.75208651
1.2515,-25.58325296
1.252,-25.58325296
1.2525,-24.05728092
1.253,-22.83650329
1.2535,-21.61572566
1.254,-20.08975362
1.2545,-18.86897599
1.255,-18.25858717
1.2555,-18.25858717
1.256,-17.64819836
1.2565,-16.73261514
1.257,-16.42742073
1.2575,-17.34300395
1.258,-17.03780954
1.2585,-14.59625428
1.259,-11.5443102
1.2595,-10.01833817
1.26,-10.32353257
1.2605,-10.32353257
1.261,-9.40794935
1.2615,-8.492366127
1.262,-8.797560535
1.2625,-8.18717172
1.263,-6.356005273
1.2635,-4.830033235
1.264,-5.44042205
1.2645,-5.745616458
1.265,-4.21964442
1.2655,-1.47289475
1.266,-0.862505935
1.2665,-2.388477973
1.267,-2.693672381
1.2675,-0.252117119
1.268,2.49463255
1.2685,3.715410181
1.269,3.715410181
1.2695,4.020604588
1.27,4.325798996
1.2705,4.630993404
1.271,4.325798996
1.2715,3.410215773
1.272,2.49463255
1.2725,1.884243735
1.273,1.884243735
1.2735,2.189438142
1.274,2.189438142
1.2745,1.579049327
1.275,1.884243735
1.2755,2.799826958
1.276,2.799826958
1.2765,2.49463255
1.277,2.49463255
1.2775,3.410215773
1.278,3.410215773
1.2785,2.189438142
1.279,1.273854919
1.2795,2.189438142
1.28,3.105021365
1.2805,3.105021365
1.281,2.799826958
1.2815,4.325798996
1.282,7.072548665
1.2825,8.903715112
1.283,8.598520704
1.2835,7.377743073
1.284,7.682937481
1.2845,8.598520704
1.285,8.903715112
1.2855,8.598520704
1.286,7.988131889
1.2865,8.598520704
1.287,9.819298335
1.2875,11.04007597
1.288,11.65046478
1.2885,12.2608536
1.289,13.48163123
1.2895,15.92318649
1.29,17.75435293
1.2905,18.05954734
1.291,16.83876971
1.2915,16.5335753
1.292,17.75435293
1.2925,18.97513057
1.293,19.28032497
1.2935,19.28032497
1.294,19.58551938
1.2945,19.28032497
1.295,18.36474175
1.2955,16.83876971
1.296,16.83876971
1.2965,17.75435293
1.297,18.36474175
1.2975,18.05954734
1.298,17.14396412
1.2985,15.92318649
1.299,14.09202004
1.2995,11.95565919
1.3,8.598520704
1.3005,4.630993404
1.301,0.968660511
1.3015,-0.862505935
1.302,-2.083283566
1.3025,-4.21964442
1.303,-8.797560535
1.3035,-14.59625428
1.304,-19.78455921
1.3045,-21.61572566
1.305,-20.08975362
1.3055,-16.73261514
1.306,-13.37547665
1.3065,-11.5443102
1.307,-11.2391158
1.3075,-11.2391158
1.308,-10.62872698
1.3085,-9.40794935
1.309,-7.271588497
1.3095,-3.304061196
1.31,2.189438142
1.3105,7.988131889
1.311,12.2608536
1.3115,15.00760327
1.312,16.83876971
1.3125,17.14396412
1.313,15.00760327
1.3135,11.04007597
1.314,8.598520704
1.3145,7.988131889
1.315,6.46215985
1.3155,3.410215773
1.316,-0.252117119
1.3165,-2.388477973
1.317,-2.083283566
1.3175,-1.778089158
1.318,-2.388477973
1.3185,-5.44042205
1.319,-10.01833817
1.3195,-15.5118375
1.32,-21.00533684
1.3205,-24.66766974
1.321,-26.49883618
1.3215,-28.63519704
1.322,-31.68714111
1.3225,-34.43389078
1.323,-35.0442796
1.3235,-33.82350197
1.324,-32.90791874
1.3245,-32.90791874
1.325,-33.21311315
1.3255,-32.29752993
1.326,-29.55078026
1.3265,-26.49883618
1.327,-23.75208651
1.3275,-22.83650329
1.328,-21.92092007
1.3285,-20.70014244
1.329,-18.86897599
1.3295,-18.25858717
1.33,-19.4793648
1.3305,-20.08975362
1.331,-19.1741704
1.3315,-17.03780954
1.332,-14.59625428
1.3325,-12.45989343
1.333,-9.713143758
1.3335,-6.966394089
1.334,-5.135227643
1.3345,-4.524838827
1.335,-4.21964442
1.3355,-3.609255604
1.336,-2.693672381
1.3365,-2.083283566
1.337,-1.778089158
1.3375,-0.862505935
1.338,0.663466104
1.3385,3.105021365
1.339,4.936187812
1.3395,5.546576627
1.34,5.851771035
1.3405,5.851771035
1.341,6.46215985
1.3415,7.072548665
1.342,7.072548665
1.3425,6.46215985
1.343,6.156965442
1.3435,6.46215985
1.344,7.682937481
1.3445,8.903715112
1.345,9.514103927
1.3455,8.903715112
1.346,8.293326296
1.3465,7.377743073
1.347,6.767354258
1.3475,6.767354258
1.348,7.682937481
1.3485,8.598520704
1.349,8.598520704
1.3495,7.988131889
1.35,8.293326296
1.3505,8.903715112
1.351,8.598520704
1.3515,7.377743073
1.352,7.377743073
1.3525,9.208909519
1.353,9.819298335
1.3535,8.903715112
1.354,7.682937481
1.3545,8.598520704
1.355,10.12449274
1.3555,9.819298335
1.356,9.208909519
1.3565,10.12449274
1.357,11.95565919
1.3575,11.95565919
1.358,10.12449274
1.3585,10.12449274
1.359,11.65046478
1.3595,12.566048
1.36,11.34527037
1.3605,10.12449274
1.361,10.73488156
1.3615,11.65046478
1.362,11.65046478
1.3625,10.73488156
1.363,9.819298335
1.3635,9.208909519
1.364,8.293326296
1.3645,7.377743073
1.365,6.767354258
1.3655,6.46215985
1.366,6.156965442
1.3665,6.156965442
1.367,6.767354258
1.3675,7.377743073
1.368,7.072548665
1.3685,6.767354258
1.369,6.156965442
1.3695,5.546576627
1.37,6.156965442
1.3705,7.682937481
1.371,9.819298335
1.3715,11.04007597
1.372,11.95565919
1.3725,13.48163123
1.373,15.92318649
1.3735,19.28032497
1.374,21.72188024
1.3745,23.55304668
1.375,23.85824109
1.3755,22.33226905
1.376,19.58551938
1.3765,17.44915853
1.377,16.83876971
1.3775,17.75435293
1.378,19.28032497
1.3785,19.89071379
1.379,18.97513057
1.3795,17.44915853
1.38,16.83876971
1.3805,17.75435293
1.381,18.66993616
1.3815,18.66993616
1.382,17.14396412
1.3825,14.39721445
1.383,11.34527037
1.3835,8.903715112
1.384,7.682937481
1.3845,6.156965442
1.385,1.884243735
1.3855,-4.830033235
1.386,-11.84950461
1.3865,-17.34300395
1.387,-22.53130888
1.3875,-28.33000263
1.388,-33.21311315
1.3885,-34.73908519
1.389,-35.0442796
1.3895,-37.18064045
1.39,-39.0118069
1.3905,-37.79102927
1.391,-33.21311315
1.3915,-28.94039144
1.392,-26.80403059
1.3925,-26.19364177
1.393,-26.19364177
1.3935,-26.49883618
1.394,-27.109225
1.3945,-25.58325296
1.395,-22.83650329
1.3955,-21.61572566
1.396,-22.53130888
1.3965,-22.53130888
1.397,-18.56378158
1.3975,-13.07028224
1.398,-9.40794935
1.3985,-9.102754943
1.399,-9.713143758
1.3995,-9.40794935
1.4,-7.881977312
1.4005,-6.661199681
1.401,-6.356005273
1.4015,-6.661199681
1.402,-6.050810866
1.4025,-5.44042205
1.403,-5.135227643
1.4035,-5.135227643
1.404,-5.135227643
1.4045,-4.21964442
1.405,-3.914450012
1.4055,-5.135227643
1.406,-6.050810866
1.4065,-5.135227643
1.407,-3.304061196
1.4075,-2.083283566
1.408,-2.083283566
1.4085,-1.778089158
1.409,-0.862505935
1.4095,0.053077288
1.41,2.189438142
1.4105,4.325798996
1.411,4.630993404
1.4115,3.105021365
1.412,1.579049327
1.4125,2.189438142
1.413,2.799826958
1.4135,1.884243735
1.414,0.968660511
1.4145,2.189438142
1.415,4.020604588
1.4155,4.325798996
1.416,4.020604588
1.4165,4.325798996
1.417,4.325798996
1.4175,2.49463255
1.418,0.968660511
1.4185,1.884243735
1.419,3.715410181
1.4195,3.715410181
1.42,1.579049327
1.4205,1.579049327
1.421,3.410215773
1.4215,3.715410181
1.422,2.49463255
1.4225,0.968660511
1.423,1.273854919
1.4235,1.273854919
1.424,0.053077288
1.4245,-0.862505935
1.425,-0.862505935
1.4255,0.053077288
1.426,1.273854919
1.4265,2.49463255
1.427,3.715410181
1.4275,4.325798996
1.428,4.020604588
1.4285,4.325798996
1.429,5.546576627
1.4295,6.46215985
1.43,7.072548665
1.4305,7.377743073
1.431,7.988131889
1.4315,9.208909519
1.432,10.73488156
1.4325,13.17643682
1.433,14.39721445
1.4335,13.78682563
1.434,12.2608536
1.4345,12.2608536
1.435,14.09202004
1.4355,15.61799208
1.436,15.92318649
1.4365,15.31279767
1.437,14.70240886
1.4375,14.39721445
1.438,13.78682563
1.4385,12.2608536
1.439,11.34527037
1.4395,11.65046478
1.44,12.566048
1.4405,13.17643682
1.441,12.87124241
1.4415,11.65046478
1.442,9.819298335
1.4425,6.767354258
1.443,3.410215773
1.4435,1.579049327
1.444,1.884243735
1.4445,1.884243735
1.445,-0.862505935
1.4455,-5.135227643
1.446,-7.881977312
1.4465,-8.797560535
1.447,-10.32353257
1.4475,-13.37547665
1.448,-15.5118375
1.4485,-16.12222632
1.449,-15.5118375
1.4495,-14.90144869
1.45,-13.68067106
1.4505,-11.84950461
1.451,-11.2391158
1.4515,-11.5443102
1.452,-11.84950461
1.4525,-11.2391158
1.453,-11.2391158
1.4535,-12.15469902
1.454,-12.45989343
1.4545,-10.32353257
1.455,-6.966394089
1.4555,-4.21964442
1.456,-2.998866789
1.4565,-2.693672381
1.457,-2.693672381
1.4575,-3.609255604
1.458,-3.914450012
1.4585,-2.388477973
1.459,-0.252117119
1.4595,1.273854919
1.46,2.189438142
1.4605,2.49463255
1.461,3.715410181
1.4615,4.936187812
1.462,5.241382219
1.4625,3.410215773
1.463,-0.862505935
1.4635,-5.44042205
1.464,-8.18717172
1.4645,-9.102754943
1.465,-9.713143758
1.4655,-11.2391158
1.466,-12.76508784
1.4665,-13.07028224
1.467,-13.07028224
1.4675,-13.07028224
1.468,-13.37547665
1.4685,-13.98586547
1.469,-15.2066431
1.4695,-17.95339277
1.47,-21.00533684
1.4705,-23.4468921
1.471,-24.05728092
1.4715,-22.83650329
1.472,-20.39494803
1.4725,-17.95339277
1.473,-15.81703191
1.4735,-13.37547665
1.474,-10.62872698
1.4745,-8.492366127
1.475,-8.797560535
1.4755,-11.5443102
1.476,-13.68067106
1.4765,-13.37547665
1.477,-11.84950461
1.4775,-10.32353257
1.478,-8.797560535
1.4785,-7.271588497
1.479,-5.44042205
1.4795,-3.304061196
1.48,-1.778089158
1.4805,-0.557311527
1.481,0.053077288
1.4815,0.663466104
1.482,1.579049327
1.4825,2.49463255
1.483,2.799826958
1.4835,3.105021365
1.484,4.020604588
1.4845,4.630993404
1.485,4.936187812
1.4855,5.241382219
1.486,5.851771035
1.4865,6.46215985
1.487,6.156965442
1.4875,5.546576627
1.488,5.546576627
1.4885,5.546576627
1.489,4.630993404
1.4895,3.715410181
1.49,4.020604588
1.4905,5.546576627
1.491,6.156965442
1.4915,5.241382219
1.492,4.325798996
1.4925,5.241382219
1.493,7.377743073
1.4935,8.598520704
1.494,8.598520704
1.4945,7.377743073
1.495,6.767354258
1.4955,7.072548665
1.496,7.682937481
1.4965,7.377743073
1.497,6.46215985
1.4975,6.156965442
1.498,7.377743073
1.4985,9.208909519
1.499,9.819298335
1.4995,9.208909519
1.5,8.903715112
1.5005,9.514103927
1.501,9.819298335
1.5015,9.208909519
1.502,8.598520704
1.5025,9.208909519
1.503,10.42968715
1.5035,10.42968715
1.504,9.208909519
1.5045,7.377743073
1.505,5.241382219
1.5055,4.020604588
1.506,3.715410181
1.5065,3.410215773
1.507,2.49463255
1.5075,1.579049327
1.508,1.579049327
1.5085,2.189438142
1.509,2.189438142
1.5095,2.189438142
1.51,2.799826958
1.5105,4.020604588
1.511,3.715410181
1.5115,2.189438142
1.512,0.663466104
1.5125,0.663466104
1.513,1.579049327
1.5135,1.884243735
1.514,0.968660511
1.5145,0.053077288
1.515,0.358271696
1.5155,1.884243735
1.516,4.020604588
1.5165,4.020604588
1.517,1.579049327
1.5175,-0.252117119
1.518,0.663466104
1.5185,3.715410181
1.519,5.851771035
1.5195,5.241382219
1.52,3.715410181
1.5205,3.105021365
1.521,3.410215773
1.5215,4.020604588
1.522,4.936187812
1.5225,4.936187812
1.523,4.630993404
1.5235,3.715410181
1.524,3.410215773
1.5245,3.105021365
1.525,1.884243735
1.5255,0.663466104
1.526,0.663466104
1.5265,1.273854919
1.527,0.663466104
1.5275,-0.862505935
1.528,-2.388477973
1.5285,-2.693672381
1.529,-2.998866789
1.5295,-2.693672381
1.53,-1.47289475
1.5305,0.053077288
1.531,-0.252117119
1.5315,-2.998866789
1.532,-6.966394089
1.5325,-9.40794935
1.533,-10.62872698
1.5335,-11.84950461
1.534,-12.45989343
1.5345,-12.15469902
1.535,-11.84950461
1.5355,-11.84950461
1.536,-11.5443102
1.5365,-10.01833817
1.537,-8.492366127
1.5375,-8.492366127
1.538,-9.102754943
1.5385,-9.40794935
1.539,-8.797560535
1.5395,-8.492366127
1.54,-8.797560535
1.5405,-9.102754943
1.541,-9.102754943
1.5415,-9.40794935
1.542,-9.40794935
1.5425,-7.881977312
1.543,-4.830033235
1.5435,-2.693672381
1.544,-2.388477973
1.5445,-2.998866789
1.545,-2.998866789
1.5455,-1.47289475
1.546,-0.252117119
1.5465,-0.252117119
1.547,-0.862505935
1.5475,-0.557311527
1.548,0.663466104
1.5485,2.49463255
1.549,3.410215773
1.5495,3.105021365
1.55,2.799826958
1.5505,2.49463255
1.551,1.579049327
1.5515,-0.252117119
1.552,-1.47289475
1.5525,-0.862505935
1.553,0.663466104
1.5535,1.884243735
1.554,2.189438142
1.5545,1.884243735
1.555,2.189438142
1.5555,3.105021365
1.556,3.410215773
1.5565,2.189438142
1.557,-0.252117119
1.5575,-2.388477973
1.558,-3.304061196
1.5585,-2.693672381
1.559,-1.778089158
1.5595,-2.388477973
1.56,-4.21964442
1.5605,-5.135227643
1.561,-4.830033235
1.5615,-3.914450012
1.562,-2.998866789
1.5625,-1.47289475
1.563,-0.252117119
1.5635,0.358271696
1.564,0.358271696
1.5645,0.663466104
1.565,1.273854919
1.5655,0.358271696
1.566,-1.167700343
1.5665,-2.083283566
1.567,-2.083283566
1.5675,-2.693672381
1.568,-3.914450012
1.5685,-2.693672381
1.569,0.053077288
1.5695,2.189438142
1.57,1.579049327
1.5705,0.358271696
1.571,0.968660511
1.5715,2.189438142
1.572,1.884243735
1.5725,1.579049327
1.573,2.189438142
1.5735,3.715410181
1.574,4.020604588
1.5745,3.105021365
1.575,3.410215773
1.5755,4.325798996
1.576,4.936187812
1.5765,4.325798996
1.577,4.020604588
1.5775,4.936187812
1.578,5.546576627
1.5785,5.241382219
1.579,4.020604588
1.5795,4.020604588
1.58,5.546576627
1.5805,7.682937481
1.581,9.819298335
1.5815,11.95565919
1.582,13.78682563
1.5825,15.31279767
1.583,16.2283809
1.5835,16.5335753
1.584,15.61799208
1.5845,13.48163123
1.585,10.73488156
1.5855,7.988131889
1.586,6.156965442
1.5865,4.325798996
1.587,3.410215773
1.5875,3.105021365
1.588,2.799826958
1.5885,2.799826958
1.589,2.799826958
1.5895,4.325798996
1.59,7.072548665
1.5905,9.819298335
1.591,10.73488156
1.5915,9.819298335
1.592,8.293326296
1.5925,6.156965442
1.593,3.105021365
1.5935,-0.557311527
1.594,-3.914450012
1.5945,-6.050810866
1.595,-7.881977312
1.5955,-10.01833817
1.596,-13.37547665
1.5965,-16.42742073
1.597,-18.25858717
1.5975,-19.1741704
1.598,-18.86897599
1.5985,-17.64819836
1.599,-16.73261514
1.5995,-16.12222632
1.6,-15.5118375
1.6005,-14.59625428
1.601,-13.37547665
1.6015,-12.76508784
1.602,-13.37547665
1.6025,-13.98586547
1.603,-13.07028224
1.6035,-10.93392139
1.604,-8.492366127
1.6045,-6.356005273
1.605,-3.609255604
1.6055,-0.557311527
1.606,1.579049327
1.6065,2.189438142
1.607,1.884243735
1.6075,2.189438142
1.608,4.325798996
1.6085,6.46215985
1.609,6.767354258
1.6095,5.851771035
1.61,5.546576627
1.6105,6.46215985
1.611,6.767354258
1.6115,4.325798996
1.612,0.053077288
1.6125,-2.388477973
1.613,-2.693672381
1.6135,-2.693672381
1.614,-4.21964442
1.6145,-5.44042205
1.615,-4.524838827
1.6155,-2.693672381
1.616,-2.998866789
1.6165,-4.21964442
1.617,-4.830033235
1.6175,-4.21964442
1.618,-3.914450012
1.6185,-5.135227643
1.619,-5.135227643
1.6195,-3.304061196
1.62,-1.47289475
1.6205,-2.083283566
1.621,-4.524838827
1.6215,-5.44042205
1.622,-4.524838827
1.6225,-2.998866789
1.623,-1.778089158
1.6235,-1.47289475
1.624,-0.557311527
1.6245,0.663466104
1.625,1.884243735
1.6255,1.273854919
1.626,-0.252117119
1.6265,-1.47289475
1.627,-0.252117119
1.6275,1.579049327
1.628,1.884243735
1.6285,1.273854919
1.629,1.273854919
1.6295,2.49463255
1.63,2.49463255
1.6305,1.579049327
1.631,0.968660511
1.6315,1.579049327
1.632,1.273854919
1.6325,-1.167700343
1.633,-4.21964442
1.6335,-5.135227643
1.634,-3.609255604
1.6345,-1.47289475
1.635,0.053077288
1.6355,1.579049327
1.636,2.49463255
1.6365,2.49463255
1.637,1.884243735
1.6375,1.579049327
1.638,2.49463255
1.6385,3.410215773
1.639,3.715410181
1.6395,3.715410181
1.64,3.105021365
1.6405,2.189438142
1.641,0.968660511
1.6415,0.663466104
1.642,1.884243735
1.6425,3.715410181
1.643,4.630993404
1.6435,3.715410181
1.644,3.105021365
1.6445,3.715410181
1.645,4.936187812
1.6455,4.630993404
1.646,4.020604588
1.6465,3.715410181
1.647,4.325798996
1.6475,4.020604588
1.648,3.105021365
1.6485,3.410215773
1.649,4.936187812
1.6495,5.851771035
1.65,5.546576627
1.6505,4.936187812
1.651,5.546576627
1.6515,7.072548665
1.652,7.682937481
1.6525,7.988131889
1.653,8.293326296
1.6535,8.903715112
1.654,8.903715112
1.6545,8.903715112
1.655,9.819298335
1.6555,10.73488156
1.656,10.12449274
1.6565,8.293326296
1.657,7.377743073
1.6575,8.293326296
1.658,10.42968715
1.6585,11.65046478
1.659,12.2608536
1.6595,13.17643682
1.66,13.78682563
1.6605,14.09202004
1.661,14.09202004
1.6615,15.00760327
1.662,15.92318649
1.6625,16.5335753
1.663,16.2283809
1.6635,16.5335753
1.664,16.83876971
1.6645,15.61799208
1.665,12.2608536
1.6655,8.293326296
1.666,4.936187812
1.6665,2.49463255
1.667,1.273854919
1.6675,0.663466104
1.668,1.273854919
1.6685,1.579049327
1.669,0.663466104
1.6695,-1.47289475
1.67,-4.830033235
1.6705,-9.40794935
1.671,-15.5118375
1.6715,-21.00533684
1.672,-23.1416977
1.6725,-22.22611447
1.673,-20.70014244
1.6735,-20.08975362
1.674,-17.95339277
1.6745,-13.07028224
1.675,-7.881977312
1.6755,-5.135227643
1.676,-5.135227643
1.6765,-3.914450012
1.677,-0.557311527
1.6775,1.273854919
1.678,-0.557311527
1.6785,-5.135227643
1.679,-8.797560535
1.6795,-10.62872698
1.68,-13.07028224
1.6805,-17.03780954
1.681,-21.00533684
1.6815,-21.92092007
1.682,-20.39494803
1.6825,-17.03780954
1.683,-12.76508784
1.6835,-8.18717172
1.684,-6.050810866
1.6845,-7.271588497
1.685,-9.102754943
1.6855,-8.492366127
1.686,-5.44042205
1.6865,-3.914450012
1.687,-5.135227643
1.6875,-7.881977312
1.688,-10.62872698
1.6885,-13.07028224
1.689,-15.5118375
1.6895,-15.81703191
1.69,-13.98586547
1.6905,-12.15469902
1.691,-13.98586547
1.6915,-18.56378158
1.692,-21.92092007
1.6925,-20.70014244
1.693,-16.73261514
1.6935,-12.45989343
1.694,-9.713143758
1.6945,-9.102754943
1.695,-9.713143758
1.6955,-10.01833817
1.696,-8.797560535
1.6965,-6.661199681
1.697,-5.44042205
1.6975,-5.44042205
1.698,-5.44042205
1.6985,-4.524838827
1.699,-2.693672381
1.6995,-0.862505935
1.7,0.053077288
1.7005,0.358271696
1.701,0.358271696
1.7015,-0.252117119
1.702,-0.252117119
1.7025,0.358271696
1.703,0.968660511
1.7035,1.579049327
1.704,2.799826958
1.7045,5.241382219
1.705,7.377743073
1.7055,8.293326296
1.706,7.682937481
1.7065,7.377743073
1.707,7.682937481
1.7075,8.293326296
1.708,7.072548665
1.7085,4.325798996
1.709,2.189438142
1.7095,3.105021365
1.71,4.936187812
1.7105,4.630993404
1.711,2.49463255
1.7115,1.579049327
1.712,2.49463255
1.7125,4.325798996
1.713,4.630993404
1.7135,4.325798996
1.714,4.936187812
1.7145,6.156965442
1.715,6.46215985
1.7155,5.546576627
1.716,4.020604588
1.7165,3.715410181
1.717,4.325798996
1.7175,4.936187812
1.718,4.325798996
1.7185,3.410215773
1.719,2.49463255
1.7195,3.105021365
1.72,3.715410181
1.7205,4.020604588
1.721,3.715410181
1.7215,3.715410181
1.722,4.936187812
1.7225,5.851771035
1.723,6.156965442
1.7235,6.156965442
1.724,6.156965442
1.7245,6.767354258
1.725,7.377743073
1.7255,7.682937481
1.726,7.682937481
1.7265,7.377743073
1.727,7.072548665
1.7275,7.682937481
1.728,8.903715112
1.7285,10.12449274
1.729,11.04007597
1.7295,11.65046478
1.73,12.87124241
1.7305,13.78682563
1.731,13.48163123
1.7315,12.2608536
1.732,10.73488156
1.7325,8.903715112
1.733,7.072548665
1.7335,5.851771035
1.734,6.46215985
1.7345,7.988131889
1.735,8.598520704
1.7355,7.072548665
1.736,3.715410181
1.7365,1.273854919
1.737,0.968660511
1.7375,2.189438142
1.738,3.410215773
1.7385,4.020604588
1.739,3.105021365
1.7395,1.273854919
1.74,-0.557311527
1.7405,-2.998866789
1.741,-5.745616458
1.7415,-8.797560535
1.742,-11.5443102
1.7425,-13.07028224
1.743,-13.07028224
1.7435,-12.15469902
1.744,-10.93392139
1.7445,-10.01833817
1.745,-8.797560535
1.7455,-7.881977312
1.746,-6.966394089
1.7465,-6.050810866
1.747,-5.745616458
1.7475,-6.356005273
1.748,-6.356005273
1.7485,-5.44042205
1.749,-3.609255604
1.7495,-1.778089158
1.75,0.358271696
1.7505,3.105021365
1.751,4.325798996
1.7515,2.799826958
1.752,1.273854919
1.7525,1.579049327
1.753,3.105021365
1.7535,2.799826958
1.754,0.968660511
1.7545,0.663466104
1.755,2.189438142
1.7555,3.105021365
1.756,2.49463255
1.7565,1.273854919
1.757,1.884243735
1.7575,2.799826958
1.758,3.105021365
1.7585,1.884243735
1.759,0.968660511
1.7595,-0.252117119
1.76,-1.167700343
1.7605,-0.862505935
1.761,1.884243735
1.7615,5.241382219
1.762,6.767354258
1.7625,7.377743073
1.763,8.293326296
1.7635,8.903715112
1.764,7.377743073
1.7645,4.936187812
1.765,2.49463255
1.7655,0.968660511
1.766,-0.252117119
1.7665,-1.778089158
1.767,-2.693672381
1.7675,-3.304061196
1.768,-5.135227643
1.7685,-6.966394089
1.769,-6.966394089
1.7695,-5.44042205
1.77,-5.745616458
1.7705,-7.881977312
1.771,-10.32353257
1.7715,-11.2391158
1.772,-11.5443102
1.7725,-12.15469902
1.773,-11.2391158
1.7735,-8.492366127
1.774,-5.44042205
1.7745,-4.524838827
1.775,-6.050810866
1.7755,-7.576782904
1.776,-7.881977312
1.7765,-6.966394089
1.777,-5.745616458
1.7775,-5.745616458
1.778,-6.356005273
1.7785,-6.966394089
1.779,-7.271588497
1.7795,-6.966394089
1.78,-6.661199681
1.7805,-5.745616458
1.781,-3.609255604
1.7815,-2.388477973
1.782,-2.388477973
1.7825,-3.304061196
1.783,-3.304061196
1.7835,-2.083283566
1.784,-0.862505935
1.7845,0.053077288
1.785,0.968660511
1.7855,0.968660511
1.786,-0.252117119
1.7865,-1.47289475
1.787,-1.47289475
1.7875,0.358271696
1.788,1.884243735
1.7885,1.579049327
1.789,1.273854919
1.7895,1.273854919
1.79,1.884243735
1.7905,2.189438142
1.791,2.799826958
1.7915,4.325798996
1.792,5.851771035
1.7925,4.630993404
1.793,2.189438142
1.7935,1.273854919
1.794,2.799826958
1.7945,3.715410181
1.795,1.884243735
1.7955,-0.252117119
1.796,-0.252117119
1.7965,0.358271696
1.797,-0.252117119
1.7975,-2.693672381
1.798,-4.21964442
1.7985,-2.388477973
1.799,-0.862505935
1.7995,-1.47289475
1.8,-2.388477973
1.8005,-1.167700343
1.801,0.663466104
1.8015,1.273854919
1.802,0.663466104
1.8025,1.579049327
1.803,3.105021365
1.8035,3.105021365
1.804,1.884243735
1.8045,1.884243735
1.805,3.105021365
1.8055,4.020604588
1.806,4.325798996
1.8065,5.241382219
1.807,5.851771035
1.8075,5.546576627
1.808,4.936187812
1.8085,6.156965442
1.809,8.293326296
1.8095,9.208909519
1.81,8.293326296
1.8105,7.988131889
1.811,9.514103927
1.8115,10.42968715
1.812,10.12449274
1.8125,9.514103927
1.813,9.819298335
1.8135,10.12449274
1.814,9.514103927
1.8145,8.903715112
1.815,8.903715112
1.8155,8.903715112
1.816,7.377743073
1.8165,5.851771035
1.817,4.936187812
1.8175,4.020604588
1.818,2.799826958
1.8185,0.358271696
1.819,-1.778089158
1.8195,-4.524838827
1.82,-6.050810866
1.8205,-5.745616458
1.821,-5.44042205
1.8215,-7.271588497
1.822,-10.62872698
1.8225,-12.45989343
1.823,-11.84950461
1.8235,-10.01833817
1.824,-9.713143758
1.8245,-10.93392139
1.825,-12.15469902
1.8255,-11.84950461
1.826,-10.32353257
1.8265,-8.18717172
1.827,-7.881977312
1.8275,-9.713143758
1.828,-12.45989343
1.8285,-13.37547665
1.829,-12.76508784
1.8295,-12.45989343
1.83,-12.45989343
1.8305,-10.93392139
1.831,-8.797560535
1.8315,-8.18717172
1.832,-8.18717172
1.8325,-6.661199681
1.833,-2.998866789
1.8335,0.053077288
1.834,0.358271696
1.8345,0.053077288
1.835,2.189438142
1.8355,6.156965442
1.836,8.598520704
1.8365,7.988131889
1.837,7.377743073
1.8375,8.903715112
1.838,11.34527037
1.8385,12.566048
1.839,12.2608536
1.8395,11.65046478
1.84,10.73488156
1.8405,8.598520704
1.841,4.936187812
1.8415,2.799826958
1.842,2.799826958
1.8425,4.020604588
1.843,4.630993404
1.8435,4.325798996
1.844,3.715410181
1.8445,2.799826958
1.845,0.053077288
1.8455,-2.693672381
1.846,-3.609255604
1.8465,-2.083283566
1.847,-1.167700343
1.8475,-1.778089158
1.848,-2.998866789
1.8485,-2.388477973
1.849,-0.557311527
1.8495,0.663466104
1.85,0.663466104
1.8505,0.663466104
1.851,0.358271696
1.8515,-0.252117119
1.852,-1.47289475
1.8525,-2.693672381
1.853,-3.304061196
1.8535,-3.609255604
1.854,-3.914450012
1.8545,-2.998866789
1.855,-1.167700343
1.8555,-0.252117119
1.856,-0.252117119
1.8565,-1.167700343
1.857,-2.388477973
1.8575,-4.21964442
1.858,-6.966394089
1.8585,-8.492366127
1.859,-6.966394089
1.8595,-3.914450012
1.86,-2.388477973
1.8605,-2.693672381
1.861,-3.914450012
1.8615,-4.21964442
1.862,-3.609255604
1.8625,-2.998866789
1.863,-3.304061196
1.8635,-3.304061196
1.864,-2.998866789
1.8645,-2.388477973
1.865,-1.47289475
1.8655,-0.862505935
1.866,0.358271696
1.8665,2.49463255
1.867,4.936187812
1.8675,6.156965442
1.868,5.546576627
1.8685,3.715410181
1.869,2.49463255
1.8695,1.884243735
1.87,1.579049327
1.8705,1.273854919
1.871,1.579049327
1.8715,2.799826958
1.872,4.325798996
1.8725,4.936187812
1.873,4.630993404
1.8735,3.715410181
1.874,3.410215773
1.8745,2.49463255
1.875,1.884243735
1.8755,1.579049327
1.876,1.884243735
1.8765,1.884243735
1.877,1.273854919
1.8775,0.358271696
1.878,-0.252117119
1.8785,-1.47289475
1.879,-3.304061196
1.8795,-4.21964442
1.88,-3.914450012
1.8805,-3.304061196
1.881,-3.914450012
1.8815,-4.830033235
1.882,-5.745616458
1.8825,-6.050810866
1.883,-6.661199681
1.8835,-7.576782904
1.884,-8.492366127
1.8845,-9.40794935
1.885,-10.01833817
1.8855,-10.01833817
1.886,-9.102754943
1.8865,-8.492366127
1.887,-7.881977312
1.8875,-6.661199681
1.888,-5.135227643
1.8885,-5.44042205
1.889,-7.881977312
1.8895,-9.713143758
1.89,-9.40794935
1.8905,-7.271588497
1.891,-5.135227643
1.8915,-3.609255604
1.892,-2.388477973
1.8925,-1.47289475
1.893,-1.778089158
1.8935,-3.304061196
1.894,-4.524838827
1.8945,-4.21964442
1.895,-3.304061196
1.8955,-3.304061196
1.896,-4.21964442
1.8965,-4.21964442
1.897,-2.693672381
1.8975,-0.862505935
1.898,0.358271696
1.8985,1.273854919
1.899,2.189438142
1.8995,3.715410181
1.9,5.546576627
1.9005,7.988131889
1.901,10.12449274
1.9015,10.73488156
1.902,10.12449274
1.9025,8.903715112
1.903,8.293326296
1.9035,7.682937481
1.904,6.156965442
1.9045,4.936187812
1.905,5.241382219
1.9055,6.46215985
1.906,6.46215985
1.9065,5.851771035
1.907,6.46215985
1.9075,7.988131889
1.908,7.682937481
1.9085,5.546576627
1.909,4.020604588
1.9095,4.630993404
1.91,5.241382219
1.9105,3.715410181
1.911,1.884243735
1.9115,2.189438142
1.912,4.325798996
1.9125,5.241382219
1.913,3.715410181
1.9135,-0.252117119
1.914,-8.797560535
1.9145,-18.86897599
1.915,-25.58325296
1.9155,-25.88844737
1.916,-22.22611447
1.9165,-20.08975362
1.917,-19.1741704
1.9175,-16.42742073
1.918,-12.45989343
1.9185,-10.32353257
1.919,-10.32353257
1.9195,-9.102754943
1.92,-6.356005273
1.9205,-4.524838827
1.921,-4.524838827
1.9215,-4.524838827
1.922,-2.693672381
1.9225,-0.862505935
1.923,-0.252117119
1.9235,0.053077288
1.924,1.579049327
1.9245,2.799826958
1.925,1.884243735
1.9255,0.053077288
1.926,0.053077288
1.9265,1.273854919
1.927,0.968660511
1.9275,-0.862505935
1.928,-2.998866789
1.9285,-2.693672381
1.929,-1.47289475
1.9295,-0.557311527
1.93,-0.252117119
1.9305,-0.252117119
1.931,0.053077288
1.9315,0.358271696
1.932,1.579049327
1.9325,3.410215773
1.933,3.715410181
1.9335,2.189438142
1.934,0.053077288
1.9345,-0.557311527
1.935,-0.252117119
1.9355,0.968660511
1.936,0.968660511
1.9365,0.663466104
1.937,1.579049327
1.9375,3.715410181
1.938,5.546576627
1.9385,6.46215985
1.939,6.767354258
1.9395,6.46215985
1.94,5.851771035
1.9405,4.325798996
1.941,2.799826958
1.9415,2.49463255
1.942,2.799826958
1.9425,2.49463255
1.943,1.884243735
1.9435,1.884243735
1.944,2.49463255
1.9445,2.49463255
1.945,0.358271696
1.9455,-1.47289475
1.946,-1.47289475
1.9465,-0.252117119
1.947,-0.557311527
1.9475,-2.693672381
1.948,-4.21964442
1.9485,-3.914450012
1.949,-3.304061196
1.9495,-3.609255604
1.95,-4.21964442
1.9505,-3.914450012
1.951,-3.914450012
1.9515,-4.830033235
1.952,-6.356005273
1.9525,-6.661199681
1.953,-6.356005273
1.9535,-6.966394089
1.954,-7.271588497
1.9545,-5.745616458
1.955,-2.693672381
1.9555,-1.47289475
1.956,-3.304061196
1.9565,-4.524838827
1.957,-2.693672381
1.9575,0.358271696
1.958,1.884243735
1.9585,1.273854919
1.959,1.273854919
1.9595,2.189438142
1.96,2.189438142
1.9605,0.663466104
1.961,0.358271696
1.9615,2.189438142
1.962,3.410215773
1.9625,2.49463255
1.963,1.884243735
1.9635,3.410215773
1.964,5.241382219
1.9645,4.325798996
1.965,2.49463255
1.9655,3.410215773
1.966,5.546576627
1.9665,6.46215985
1.967,6.156965442
1.9675,6.767354258
1.968,8.598520704
1.9685,8.598520704
1.969,7.377743073
1.9695,7.072548665
1.97,7.682937481
1.9705,7.377743073
1.971,5.546576627
1.9715,4.630993404
1.972,6.156965442
1.9725,7.682937481
1.973,7.988131889
1.9735,7.988131889
1.974,8.903715112
1.9745,9.514103927
1.975,8.903715112
1.9755,8.293326296
1.976,7.988131889
1.9765,6.767354258
1.977,5.851771035
1.9775,5.546576627
1.978,6.156965442
1.9785,4.936187812
1.979,2.189438142
1.9795,-0.252117119
1.98,-0.252117119
1.9805,0.358271696
1.981,0.968660511
1.9815,1.273854919
1.982,2.799826958
1.9825,5.241382219
1.983,6.156965442
1.9835,4.325798996
1.984,1.884243735
1.9845,0.358271696
1.985,0.663466104
1.9855,0.663466104
1.986,0.053077288
1.9865,-0.252117119
1.987,0.053077288
1.9875,0.663466104
1.988,-0.252117119
1.9885,-1.167700343
1.989,-2.083283566
1.9895,-1.47289475
1.99,-0.557311527
1.9905,-0.252117119
1.991,-0.252117119
1.9915,-0.252117119
1.992,-1.47289475
1.9925,-3.304061196
1.993,-4.524838827
1.9935,-4.21964442
1.994,-3.304061196
1.9945,-2.083283566
1.995,-0.862505935
1.9955,-0.252117119
1.996,0.358271696
1.9965,0.968660511
1.997,2.189438142
1.9975,3.105021365
1.998,2.799826958
1.9985,1.579049327
1.999,0.053077288
1.9995,-0.557311527
2,-0.557311527
2.0005,0.053077288
2.001,1.579049327
2.0015,2.799826958
2.002,3.105021365
2.0025,2.799826958
2.003,2.49463255
2.0035,1.884243735
2.004,1.884243735
2.0045,2.189438142
2.005,1.884243735
2.0055,0.663466104
2.006,-0.557311527
2.0065,-1.47289475
2.007,-1.778089158
2.0075,-1.167700343
2.008,-0.557311527
2.0085,0.358271696
2.009,1.884243735
2.0095,2.49463255
2.01,1.579049327
2.0105,1.273854919
2.011,0.968660511
2.0115,0.663466104
2.012,-0.252117119
2.0125,-1.778089158
2.013,-2.998866789
2.0135,-3.304061196
2.014,-2.388477973
2.0145,-0.252117119
2.015,3.105021365
2.0155,5.241382219
2.016,4.020604588
2.0165,1.884243735
2.017,0.663466104
2.0175,0.053077288
2.018,-0.862505935
2.0185,-2.693672381
2.019,-3.609255604
2.0195,-2.693672381
2.02,-1.778089158
2.0205,-2.388477973
2.021,-5.135227643
2.0215,-8.492366127
2.022,-10.62872698
2.0225,-11.84950461
2.023,-12.45989343
2.0235,-12.45989343
2.024,-11.84950461
2.0245,-10.32353257
2.025,-9.102754943
2.0255,-8.18717172
2.026,-7.271588497
2.0265,-6.966394089
2.027,-7.576782904
2.0275,-8.797560535
2.028,-8.797560535
2.0285,-7.271588497
2.029,-6.050810866
2.0295,-6.050810866
2.03,-5.745616458
2.0305,-4.524838827
2.031,-3.914450012
2.0315,-4.524838827
2.032,-5.135227643
2.0325,-4.830033235
2.033,-3.914450012
2.0335,-3.914450012
2.034,-4.21964442
2.0345,-3.304061196
2.035,-2.083283566
2.0355,-1.167700343
2.036,-0.862505935
2.0365,0.053077288
2.037,1.579049327
2.0375,1.579049327
2.038,0.968660511
2.0385,1.579049327
2.039,3.410215773
2.0395,4.325798996
2.04,4.020604588
2.0405,3.715410181
2.041,4.020604588
2.0415,4.630993404
2.042,4.630993404
2.0425,4.630993404
2.043,5.546576627
2.0435,6.46215985
2.044,5.851771035
2.0445,4.325798996
2.045,2.799826958
2.0455,1.273854919
2.046,0.358271696
2.0465,0.358271696
2.047,0.968660511
2.0475,0.358271696
2.048,-0.557311527
2.0485,-0.557311527
2.049,0.663466104
2.0495,1.579049327
2.05,0.968660511
2.0505,0.358271696
2.051,1.579049327
2.0515,3.715410181
2.052,4.936187812
2.0525,4.936187812
2.053,4.936187812
2.0535,5.241382219
2.054,5.241382219
2.0545,6.156965442
2.055,7.988131889
2.0555,9.208909519
2.056,8.598520704
2.0565,7.682937481
2.057,9.208909519
2.0575,11.95565919
2.058,12.566048
2.0585,11.04007597
2.059,8.903715112
2.0595,7.682937481
2.06,7.072548665
2.0605,6.767354258
2.061,6.767354258
2.0615,7.072548665
2.062,7.377743073
2.0625,7.072548665
2.063,6.767354258
2.0635,5.546576627
2.064,4.020604588
2.0645,4.020604588
2.065,5.546576627
2.0655,7.072548665
2.066,7.072548665
2.0665,5.546576627
2.067,3.410215773
2.0675,1.884243735
2.068,0.358271696
2.0685,-0.557311527
2.069,-0.557311527
2.0695,-0.252117119
2.07,-1.167700343
2.0705,-3.304061196
2.071,-5.135227643
2.0715,-6.661199681
2.072,-8.492366127
2.0725,-10.01833817
2.073,-9.40794935
2.0735,-6.050810866
2.074,-2.388477973
2.0745,-0.862505935
2.075,-0.862505935
2.0755,-1.167700343
2.076,-0.862505935
2.0765,-1.167700343
2.077,-1.167700343
2.0775,-0.252117119
2.078,1.273854919
2.0785,1.273854919
2.079,-0.252117119
2.0795,-2.083283566
2.08,-1.778089158
2.0805,-0.557311527
2.081,-0.252117119
2.0815,-1.47289475
2.082,-2.388477973
2.0825,-1.778089158
2.083,-1.47289475
2.0835,-2.388477973
2.084,-3.914450012
2.0845,-4.830033235
2.085,-5.135227643
2.0855,-5.135227643
2.086,-4.830033235
2.0865,-4.830033235
2.087,-5.135227643
2.0875,-6.050810866
2.088,-6.050810866
2.0885,-4.830033235
2.089,-3.609255604
2.0895,-3.609255604
2.09,-3.914450012
2.0905,-3.609255604
2.091,-3.304061196
2.0915,-4.21964442
2.092,-5.44042205
2.0925,-6.050810866
2.093,-6.356005273
2.0935,-6.966394089
2.094,-8.492366127
2.0945,-8.797560535
2.095,-8.18717172
2.0955,-7.881977312
2.096,-9.713143758
2.0965,-12.45989343
2.097,-14.29105987
2.0975,-13.07028224
2.098,-9.102754943
2.0985,-4.830033235
2.099,-1.778089158
2.0995,-0.862505935
2.1,-0.557311527
2.1005,0.358271696
2.101,1.884243735
2.1015,2.49463255
2.102,2.49463255
2.1025,2.799826958
2.103,4.020604588
2.1035,5.546576627
2.104,6.156965442
2.1045,6.156965442
2.105,6.46215985
2.1055,7.377743073
2.106,8.293326296
2.1065,8.598520704
2.107,8.293326296
2.1075,8.598520704
2.108,8.293326296
2.1085,7.377743073
2.109,5.851771035
2.1095,4.325798996
2.11,2.189438142
2.1105,-0.252117119
2.111,-1.778089158
2.1115,-1.778089158
2.112,-0.252117119
2.1125,0.358271696
2.113,0.968660511
2.1135,0.968660511
2.114,0.358271696
2.1145,-0.252117119
2.115,-0.252117119
2.1155,0.968660511
2.116,2.49463255
2.1165,2.189438142
2.117,-0.252117119
2.1175,-1.778089158
2.118,-1.167700343
2.1185,-0.252117119
2.119,-1.778089158
2.1195,-4.830033235
2.12,-6.356005273
2.1205,-5.44042205
2.121,-3.304061196
2.1215,-2.388477973
2.122,-2.388477973
2.1225,-2.083283566
2.123,-1.167700343
2.1235,-0.252117119
2.124,0.053077288
2.1245,0.663466104
2.125,0.968660511
2.1255,0.358271696
2.126,-0.862505935
2.1265,-2.388477973
2.127,-3.304061196
2.1275,-2.998866789
2.128,-2.083283566
2.1285,-1.47289475
2.129,-1.167700343
2.1295,-0.252117119
2.13,2.189438142
2.1305,5.241382219
2.131,7.072548665
2.1315,7.072548665
2.132,6.156965442
2.1325,4.936187812
2.133,3.105021365
2.1335,0.968660511
2.134,0.358271696
2.1345,1.579049327
2.135,3.105021365
2.1355,3.715410181
2.136,3.715410181
2.1365,4.936187812
2.137,7.377743073
2.1375,10.73488156
2.138,13.48163123
2.1385,15.00760327
2.139,13.78682563
2.1395,11.04007597
2.14,8.903715112
2.1405,8.598520704
2.141,8.903715112
2.1415,8.903715112
2.142,9.208909519
2.1425,10.12449274
2.143,10.73488156
2.1435,9.208909519
2.144,7.377743073
2.1445,7.072548665
2.145,7.072548665
2.1455,4.936187812
2.146,1.579049327
2.1465,-0.252117119
2.147,-0.557311527
2.1475,-1.47289475
2.148,-3.914450012
2.1485,-5.44042205
2.149,-4.524838827
2.1495,-3.304061196
2.15,-3.914450012
2.1505,-6.050810866
2.151,-8.492366127
2.1515,-10.01833817
2.152,-10.62872698
2.1525,-10.01833817
2.153,-8.797560535
2.1535,-8.18717172
2.154,-8.492366127
2.1545,-8.797560535
2.155,-8.797560535
2.1555,-9.102754943
2.156,-10.32353257
2.1565,-11.84950461
2.157,-11.2391158
2.1575,-10.01833817
2.158,-10.32353257
2.1585,-12.45989343
2.159,-13.98586547
2.1595,-13.07028224
2.16,-11.5443102
2.1605,-10.62872698
2.161,-10.32353257
2.1615,-10.01833817
2.162,-10.01833817
2.1625,-12.45989343
2.163,-16.42742073
2.1635,-18.56378158
2.164,-18.56378158
2.1645,-16.42742073
2.165,-13.98586547
2.1655,-11.5443102
2.166,-9.40794935
2.1665,-7.881977312
2.167,-7.576782904
2.1675,-7.881977312
2.168,-8.18717172
2.1685,-8.18717172
2.169,-7.881977312
2.1695,-7.576782904
2.17,-8.492366127
2.1705,-9.40794935
2.171,-8.797560535
2.1715,-6.050810866
2.172,-3.914450012
2.1725,-2.998866789
2.173,-3.304061196
2.1735,-3.304061196
2.174,-2.693672381
2.1745,-2.998866789
2.175,-2.693672381
2.1755,-1.167700343
2.176,0.968660511
2.1765,1.884243735
2.177,0.968660511
2.1775,0.358271696
2.178,0.663466104
2.1785,1.579049327
2.179,1.884243735
2.1795,1.884243735
2.18,0.968660511
2.1805,0.358271696
2.181,0.053077288
2.1815,1.273854919
2.182,2.49463255
2.1825,2.49463255
2.183,1.273854919
2.1835,0.663466104
2.184,0.968660511
2.1845,0.663466104
2.185,-0.252117119
2.1855,-0.557311527
2.186,0.358271696
2.1865,1.884243735
2.187,2.799826958
2.1875,2.799826958
2.188,3.105021365
2.1885,2.799826958
2.189,1.273854919
2.1895,-0.252117119
2.19,0.053077288
2.1905,1.884243735
2.191,3.715410181
2.1915,4.936187812
2.192,6.156965442
2.1925,6.767354258
2.193,6.156965442
2.1935,4.936187812
2.194,4.325798996
2.1945,4.630993404
2.195,5.546576627
2.1955,6.156965442
2.196,6.767354258
2.1965,6.46215985
2.197,4.630993404
2.1975,1.579049327
2.198,-0.557311527
2.1985,-1.47289475
2.199,-1.778089158
2.1995,-2.693672381
2.2,-2.998866789
2.2005,-2.693672381
2.201,-2.083283566
2.2015,-2.083283566
2.202,-2.083283566
2.2025,-0.862505935
2.203,0.663466104
2.2035,1.884243735
2.204,2.799826958
2.2045,2.799826958
2.205,2.49463255
2.2055,1.273854919
2.206,0.663466104
2.2065,0.968660511
2.207,2.189438142
2.2075,3.105021365
2.208,3.105021365
2.2085,3.410215773
2.209,3.715410181
2.2095,4.325798996
2.21,4.936187812
2.2105,5.241382219
2.211,4.936187812
2.2115,4.325798996
2.212,3.410215773
2.2125,2.49463255
2.213,2.799826958
2.2135,4.020604588
2.214,5.851771035
2.2145,7.072548665
2.215,7.072548665
2.2155,6.767354258
2.216,7.072548665
2.2165,7.682937481
2.217,7.988131889
2.2175,7.682937481
2.218,7.988131889
2.2185,8.598520704
2.219,8.598520704
2.2195,7.377743073
2.22,6.156965442
2.2205,6.156965442
2.221,7.377743073
2.2215,7.988131889
2.222,7.072548665
2.2225,5.546576627
2.223,4.936187812
2.2235,4.630993404
2.224,4.325798996
2.2245,3.105021365
2.225,2.189438142
2.2255,2.189438142
2.226,2.189438142
2.2265,0.358271696
2.227,-2.998866789
2.2275,-5.135227643
2.228,-4.830033235
2.2285,-3.304061196
2.229,-2.998866789
2.2295,-3.304061196
2.23,-2.388477973
2.2305,-0.862505935
2.231,-0.252117119
2.2315,-1.47289475
2.232,-2.388477973
2.2325,-1.778089158
2.233,-0.557311527
2.2335,-0.557311527
2.234,-1.778089158
2.2345,-2.083283566
2.235,-0.862505935
2.2355,1.273854919
2.236,4.630993404
2.2365,6.767354258
2.237,7.682937481
2.2375,7.072548665
2.238,6.156965442
2.2385,5.851771035
2.239,5.851771035
2.2395,5.851771035
2.24,6.767354258
2.2405,7.682937481
2.241,7.377743073
2.2415,5.546576627
2.242,3.715410181
2.2425,4.325798996
2.243,5.851771035
2.2435,6.46215985
2.244,5.546576627
2.2445,5.241382219
2.245,6.156965442
2.2455,6.46215985
2.246,4.630993404
2.2465,0.663466104
2.247,-3.609255604
2.2475,-8.18717172
2.248,-11.84950461
2.2485,-13.68067106
2.249,-13.98586547
2.2495,-14.90144869
2.25,-16.73261514
2.2505,-17.95339277
2.251,-16.42742073
2.2515,-14.29105987
2.252,-13.98586547
2.2525,-15.5118375
2.253,-17.03780954
2.2535,-17.34300395
2.254,-17.03780954
2.2545,-17.34300395
2.255,-17.34300395
2.2555,-16.42742073
2.256,-15.2066431
2.2565,-14.29105987
2.257,-13.37547665
2.2575,-10.93392139
2.258,-6.966394089
2.2585,-3.304061196
2.259,-1.778089158
2.2595,-2.388477973
2.26,-2.693672381
2.2605,-1.778089158
2.261,-0.862505935
2.2615,-2.388477973
2.262,-5.44042205
2.2625,-7.271588497
2.263,-6.661199681
2.2635,-5.135227643
2.264,-5.135227643
2.2645,-6.966394089
2.265,-9.40794935
2.2655,-11.2391158
2.266,-11.5443102
2.2665,-10.62872698
2.267,-9.40794935
2.2675,-8.797560535
2.268,-9.40794935
2.2685,-10.01833817
2.269,-10.32353257
2.2695,-10.93392139
2.27,-12.15469902
2.2705,-12.76508784
2.271,-11.84950461
2.2715,-10.01833817
2.272,-9.102754943
2.2725,-8.797560535
2.273,-6.966394089
2.2735,-3.609255604
2.274,-0.252117119
2.2745,1.579049327
2.275,2.799826958
2.2755,3.715410181
2.276,4.020604588
2.2765,3.410215773
2.277,3.105021365
2.2775,3.105021365
2.278,2.799826958
2.2785,2.189438142
2.279,2.49463255
2.2795,4.630993404
2.28,6.46215985
2.2805,5.546576627
2.281,3.715410181
2.2815,3.410215773
2.282,5.546576627
2.2825,7.377743073
2.283,7.377743073
2.2835,5.851771035
2.284,5.546576627
2.2845,5.851771035
2.285,6.156965442
2.2855,5.851771035
2.286,6.156965442
2.2865,6.156965442
2.287,5.851771035
2.2875,5.851771035
2.288,6.767354258
2.2885,7.988131889
2.289,7.377743073
2.2895,5.851771035
2.29,4.936187812
2.2905,5.546576627
2.291,6.767354258
2.2915,7.072548665
2.292,7.377743073
2.2925,7.682937481
2.293,7.988131889
2.2935,7.682937481
2.294,7.682937481
2.2945,8.903715112
2.295,10.73488156
2.2955,12.566048
2.296,13.48163123
2.2965,13.48163123
2.297,11.95565919
2.2975,10.73488156
2.298,10.42968715
2.2985,10.73488156
2.299,10.73488156
2.2995,10.42968715
2.3,11.04007597
2.3005,12.566048
2.301,12.87124241
2.3015,11.95565919
2.302,10.73488156
2.3025,10.12449274
2.303,8.903715112
2.3035,5.851771035
2.304,2.799826958
2.3045,0.968660511
2.305,-0.557311527
2.3055,-3.304061196
2.306,-6.050810866
2.3065,-6.966394089
2.307,-6.661199681
2.3075,-6.966394089
2.308,-7.576782904
2.3085,-7.271588497
2.309,-6.356005273
2.3095,-5.44042205
2.31,-4.524838827
2.3105,-2.998866789
2.311,-1.778089158
2.3115,-1.778089158
2.312,-2.388477973
2.3125,-2.388477973
2.313,-1.47289475
2.3135,-1.47289475
2.314,-1.47289475
2.3145,-0.862505935
2.315,-0.252117119
2.3155,0.358271696
2.316,0.968660511
2.3165,3.105021365
2.317,4.936187812
2.3175,4.630993404
2.318,2.799826958
2.3185,2.799826958
2.319,4.936187812
2.3195,6.46215985
2.32,5.851771035
2.3205,4.936187812
2.321,6.46215985
2.3215,8.598520704
2.322,9.514103927
2.3225,8.903715112
2.323,7.988131889
2.3235,7.682937481
2.324,7.377743073
2.3245,7.682937481
2.325,8.903715112
2.3255,10.42968715
2.326,10.42968715
2.3265,9.819298335
2.327,10.12449274
2.3275,12.2608536
2.328,14.70240886
2.3285,16.2283809
2.329,17.14396412
2.3295,17.14396412
2.33,16.5335753
2.3305,15.92318649
2.331,15.61799208
2.3315,14.39721445
2.332,12.2608536
2.3325,9.208909519
2.333,6.156965442
2.3335,0.663466104
2.334,-6.661199681
2.3345,-13.68067106
2.335,-17.95339277
2.3355,-21.31053125
2.336,-24.97286414
2.3365,-28.02480822
2.337,-27.109225
2.3375,-24.05728092
2.338,-21.92092007
2.3385,-22.53130888
2.339,-22.53130888
2.3395,-21.92092007
2.34,-22.22611447
2.3405,-23.75208651
2.341,-24.66766974
2.3415,-23.1416977
2.342,-20.08975362
2.3425,-16.42742073
2.343,-11.2391158
2.3435,-6.661199681
2.344,-5.135227643
2.3445,-7.576782904
2.345,-9.713143758
2.3455,-8.797560535
2.346,-6.050810866
2.3465,-4.830033235
2.347,-4.524838827
2.3475,-3.304061196
2.348,-1.778089158
2.3485,-2.388477973
2.349,-4.830033235
2.3495,-6.661199681
2.35,-6.050810866
2.3505,-4.21964442
2.351,-2.998866789
2.3515,-3.609255604
2.352,-4.830033235
2.3525,-4.830033235
2.353,-3.304061196
2.3535,-0.862505935
2.354,0.968660511
2.3545,1.579049327
2.355,0.358271696
2.3555,-1.778089158
2.356,-4.524838827
2.3565,-6.966394089
2.357,-8.797560535
2.3575,-9.102754943
2.358,-8.492366127
2.3585,-8.18717172
2.359,-9.102754943
2.3595,-9.713143758
2.36,-8.797560535
2.3605,-6.661199681
2.361,-5.135227643
2.3615,-4.830033235
2.362,-3.914450012
2.3625,-1.47289475
2.363,0.358271696
2.3635,0.358271696
2.364,-0.862505935
2.3645,-1.47289475
2.365,-1.167700343
2.3655,-1.167700343
2.366,-1.47289475
2.3665,-0.252117119
2.367,1.579049327
2.3675,3.105021365
2.368,3.105021365
2.3685,2.49463255
2.369,2.49463255
2.3695,2.49463255
2.37,2.189438142
2.3705,2.189438142
2.371,3.105021365
2.3715,3.410215773
2.372,3.105021365
2.3725,3.410215773
2.373,4.020604588
2.3735,4.630993404
2.374,4.630993404
2.3745,5.241382219
2.375,5.546576627
2.3755,4.936187812
2.376,3.715410181
2.3765,3.410215773
2.377,4.630993404
2.3775,6.156965442
2.378,6.46215985
2.3785,5.546576627
2.379,5.241382219
2.3795,5.241382219
2.38,5.241382219
2.3805,5.241382219
2.381,4.630993404
2.3815,4.020604588
2.382,4.020604588
2.3825,4.936187812
2.383,5.241382219
2.3835,4.325798996
2.384,3.410215773
2.3845,4.020604588
2.385,4.630993404
2.3855,3.715410181
2.386,1.273854919
2.3865,0.358271696
2.387,1.884243735
2.3875,3.105021365
2.388,2.49463255
2.3885,1.884243735
2.389,1.273854919
2.3895,-0.252117119
2.39,-2.388477973
2.3905,-3.304061196
2.391,-1.778089158
2.3915,-0.862505935
2.392,-1.778089158
2.3925,-2.388477973
2.393,-0.252117119
2.3935,1.579049327
2.394,1.273854919
2.3945,0.053077288
2.395,0.053077288
2.3955,0.968660511
2.396,0.358271696
2.3965,-0.252117119
2.397,1.273854919
2.3975,4.325798996
2.398,5.241382219
2.3985,3.105021365
2.399,1.273854919
2.3995,1.579049327
2.4,1.884243735
2.4005,1.273854919
2.401,0.968660511
2.4015,1.579049327
2.402,1.579049327
2.4025,0.968660511
2.403,1.273854919
2.4035,3.715410181
2.404,5.241382219
2.4045,5.241382219
2.405,5.851771035
2.4055,7.988131889
2.406,9.208909519
2.4065,8.293326296
2.407,6.767354258
2.4075,6.767354258
2.408,7.682937481
2.4085,7.377743073
2.409,6.46215985
2.4095,5.851771035
2.41,6.156965442
2.4105,5.546576627
2.411,4.325798996
2.4115,4.630993404
2.412,5.851771035
2.4125,7.377743073
2.413,9.208909519
2.4135,11.04007597
2.414,12.2608536
2.4145,11.95565919
2.415,10.42968715
2.4155,9.819298335
2.416,9.208909519
2.4165,6.767354258
2.417,3.105021365
2.4175,1.273854919
2.418,0.968660511
2.4185,0.053077288
2.419,-1.167700343
2.4195,-1.167700343
2.42,0.663466104
2.4205,2.49463255
2.421,2.189438142
2.4215,1.273854919
2.422,0.053077288
2.4225,-1.47289475
2.423,-5.44042205
2.4235,-9.40794935
2.424,-11.84950461
2.4245,-13.07028224
2.425,-14.59625428
2.4255,-17.34300395
2.426,-21.00533684
2.4265,-25.27805855
2.427,-28.02480822
2.4275,-27.4144194
2.428,-24.36247533
2.4285,-20.70014244
2.429,-17.34300395
2.4295,-14.59625428
2.43,-12.15469902
2.4305,-10.93392139
2.431,-10.62872698
2.4315,-9.40794935
2.432,-6.966394089
2.4325,-4.830033235
2.433,-3.914450012
2.4335,-2.388477973
2.434,0.663466104
2.4345,3.410215773
2.435,3.715410181
2.4355,1.884243735
2.436,0.358271696
2.4365,-0.252117119
2.437,-1.778089158
2.4375,-2.693672381
2.438,-2.083283566
2.4385,-1.167700343
2.439,-2.388477973
2.4395,-5.44042205
2.44,-7.576782904
2.4405,-6.966394089
2.441,-4.524838827
2.4415,-2.998866789
2.442,-2.388477973
2.4425,-2.083283566
2.443,-1.167700343
2.4435,-0.252117119
2.444,0.663466104
2.4445,2.189438142
2.445,3.105021365
2.4455,2.49463255
2.446,0.663466104
2.4465,-1.47289475
2.447,-3.914450012
2.4475,-6.356005273
2.448,-7.881977312
2.4485,-7.576782904
2.449,-5.44042205
2.4495,-3.609255604
2.45,-2.998866789
2.4505,-2.693672381
2.451,-0.862505935
2.4515,1.579049327
2.452,4.325798996
2.4525,5.546576627
2.453,7.072548665
2.4535,9.208909519
2.454,11.65046478
2.4545,12.566048
2.455,11.95565919
2.4555,10.12449274
2.456,7.988131889
2.4565,6.46215985
2.457,5.241382219
2.4575,3.715410181
2.458,1.884243735
2.4585,0.968660511
2.459,1.884243735
2.4595,2.49463255
2.46,1.884243735
2.4605,0.663466104
2.461,0.358271696
2.4615,1.273854919
2.462,1.884243735
2.4625,2.189438142
2.463,4.020604588
2.4635,6.46215985
2.464,7.072548665
2.4645,4.630993404
2.465,1.273854919
2.4655,-1.167700343
2.466,-2.388477973
2.4665,-3.304061196
2.467,-3.609255604
2.4675,-4.21964442
2.468,-5.745616458
2.4685,-7.271588497
2.469,-7.881977312
2.4695,-6.661199681
2.47,-5.44042205
2.4705,-6.661199681
2.471,-9.102754943
2.4715,-10.93392139
2.472,-11.2391158
2.4725,-11.2391158
2.473,-10.62872698
2.4735,-10.01833817
2.474,-9.102754943
2.4745,-7.881977312
2.475,-6.356005273
2.4755,-4.830033235
2.476,-3.609255604
2.4765,-2.998866789
2.477,-2.083283566
2.4775,-0.862505935
2.478,0.968660511
2.4785,2.799826958
2.479,3.715410181
2.4795,4.020604588
2.48,4.325798996
2.4805,4.936187812
2.481,6.46215985
2.4815,7.682937481
2.482,7.682937481
2.4825,7.072548665
2.483,6.46215985
2.4835,6.767354258
2.484,6.156965442
2.4845,4.630993404
2.485,3.105021365
2.4855,2.799826958
2.486,3.715410181
2.4865,4.325798996
2.487,4.020604588
2.4875,4.020604588
2.488,4.020604588
2.4885,3.715410181
2.489,4.020604588
2.4895,4.936187812
2.49,5.546576627
2.4905,4.325798996
2.491,2.49463255
2.4915,1.884243735
2.492,4.020604588
2.4925,6.767354258
2.493,7.988131889
2.4935,7.988131889
2.494,7.988131889
2.4945,8.598520704
2.495,9.208909519
2.4955,9.819298335
2.496,9.819298335
2.4965,8.903715112
2.497,6.767354258
2.4975,4.630993404
2.498,3.715410181
2.4985,3.410215773
2.499,2.799826958
2.4995,0.968660511
2.5,-0.252117119
2.5005,0.053077288
2.501,1.273854919
2.5015,1.884243735
2.502,1.579049327
2.5025,0.663466104
2.503,-0.252117119
2.5035,-1.167700343
2.504,-1.778089158
2.5045,-1.778089158
2.505,-0.862505935
2.5055,-0.252117119
2.506,0.968660511
2.5065,1.884243735
2.507,0.968660511
2.5075,-2.083283566
2.508,-6.661199681
2.5085,-10.62872698
2.509,-13.68067106
2.5095,-16.12222632
2.51,-17.95339277
2.5105,-17.95339277
2.511,-16.42742073
2.5115,-14.29105987
2.512,-11.84950461
2.5125,-9.40794935
2.513,-7.576782904
2.5135,-8.492366127
2.514,-11.5443102
2.5145,-13.98586547
2.515,-15.2066431
2.5155,-16.12222632
2.516,-17.64819836
2.5165,-18.25858717
2.517,-16.73261514
2.5175,-14.59625428
2.518,-13.07028224
2.5185,-12.15469902
2.519,-10.32353257
2.5195,-8.492366127
2.52,-7.576782904
2.5205,-7.271588497
2.521,-6.356005273
2.5215,-4.524838827
2.522,-3.304061196
2.5225,-2.693672381
2.523,-1.778089158
2.5235,-0.252117119
2.524,0.358271696
2.5245,-0.252117119
2.525,-0.862505935
2.5255,-0.862505935
2.526,-0.862505935
2.5265,-0.862505935
2.527,-1.167700343
2.5275,-0.862505935
2.528,-0.252117119
2.5285,0.968660511
2.529,2.189438142
2.5295,2.799826958
2.53,2.799826958
2.5305,2.799826958
2.531,3.105021365
2.5315,4.325798996
2.532,5.851771035
2.5325,7.072548665
2.533,7.377743073
2.5335,6.46215985
2.534,5.241382219
2.5345,4.325798996
2.535,4.630993404
2.5355,4.936187812
2.536,5.241382219
2.5365,5.241382219
2.537,5.241382219
2.5375,5.546576627
2.538,5.546576627
2.5385,5.851771035
2.539,6.46215985
2.5395,6.46215985
2.54,5.851771035
2.5405,5.241382219
2.541,5.241382219
2.5415,5.851771035
2.542,5.851771035
2.5425,6.156965442
2.543,7.072548665
2.5435,7.377743073
2.544,7.072548665
2.5445,6.46215985
2.545,6.46215985
2.5455,6.46215985
2.546,5.546576627
2.5465,3.715410181
2.547,2.49463255
2.5475,3.105021365
2.548,5.241382219
2.5485,7.377743073
2.549,8.293326296
2.5495,7.682937481
2.55,6.156965442
2.5505,6.46215985
2.551,8.293326296
2.5515,9.819298335
2.552,9.514103927
2.5525,9.514103927
2.553,11.34527037
2.5535,12.87124241
2.554,12.2608536
2.5545,11.04007597
2.555,11.65046478
2.5555,12.87124241
2.556,13.48163123
2.5565,13.48163123
2.557,14.09202004
2.5575,15.00760327
2.558,14.70240886
2.5585,15.00760327
2.559,16.5335753
2.5595,17.44915853
2.56,15.92318649
2.5605,13.78682563
2.561,14.09202004
2.5615,15.92318649
2.562,15.92318649
2.5625,13.78682563
2.563,11.34527037
2.5635,8.903715112
2.564,5.241382219
2.5645,1.884243735
2.565,0.358271696
2.5655,-0.252117119
2.566,-2.998866789
2.5665,-6.966394089
2.567,-9.102754943
2.5675,-10.01833817
2.568,-12.15469902
2.5685,-15.2066431
2.569,-16.73261514
2.5695,-16.73261514
2.57,-18.56378158
2.5705,-20.70014244
2.571,-20.08975362
2.5715,-16.42742073
2.572,-13.37547665
2.5725,-13.07028224
2.573,-13.68067106
2.5735,-13.37547665
2.574,-13.07028224
2.5745,-13.07028224
2.575,-11.84950461
2.5755,-8.492366127
2.576,-6.050810866
2.5765,-5.745616458
2.577,-6.661199681
2.5775,-6.050810866
2.578,-4.830033235
2.5785,-4.830033235
2.579,-6.050810866
2.5795,-6.661199681
2.58,-6.661199681
2.5805,-6.661199681
2.581,-6.661199681
2.5815,-5.44042205
2.582,-4.21964442
2.5825,-3.304061196
2.583,-2.998866789
2.5835,-2.693672381
2.584,-2.083283566
2.5845,-2.388477973
2.585,-2.998866789
2.5855,-3.609255604
2.586,-4.524838827
2.5865,-5.44042205
2.587,-6.356005273
2.5875,-6.661199681
2.588,-6.356005273
2.5885,-5.745616458
2.589,-4.524838827
2.5895,-2.998866789
2.59,-2.388477973
2.5905,-3.304061196
2.591,-5.44042205
2.5915,-7.881977312
2.592,-9.713143758
2.5925,-10.01833817
2.593,-9.102754943
2.5935,-7.271588497
2.594,-5.44042205
2.5945,-3.609255604
2.595,-2.083283566
2.5955,-1.167700343
2.596,-1.47289475
2.5965,-2.388477973
2.597,-2.083283566
2.5975,-0.862505935
2.598,0.053077288
2.5985,-0.252117119
2.599,-1.778089158
2.5995,-2.083283566
2.6,-1.778089158
2.6005,-1.167700343
2.601,-1.167700343
2.6015,-2.083283566
2.602,-2.388477973
2.6025,-1.47289475
2.603,-0.252117119
2.6035,0.053077288
2.604,0.358271696
2.6045,0.968660511
2.605,1.579049327
2.6055,1.884243735
2.606,2.49463255
2.6065,3.410215773
2.607,4.630993404
2.6075,4.936187812
2.608,3.715410181
2.6085,2.49463255
2.609,2.189438142
2.6095,2.189438142
2.61,1.884243735
2.6105,1.579049327
2.611,1.273854919
2.6115,1.579049327
2.612,1.884243735
2.6125,1.884243735
2.613,2.49463255
2.6135,3.105021365
2.614,4.325798996
2.6145,5.546576627
2.615,7.377743073
2.6155,7.988131889
2.616,7.377743073
2.6165,6.156965442
2.617,6.46215985
2.6175,7.682937481
2.618,8.598520704
2.6185,7.377743073
2.619,5.546576627
2.6195,4.630993404
2.62,4.936187812
2.6205,5.851771035
2.621,6.46215985
2.6215,6.156965442
2.622,5.241382219
2.6225,3.715410181
2.623,2.189438142
2.6235,1.273854919
2.624,0.968660511
2.6245,0.358271696
2.625,0.053077288
2.6255,0.663466104
2.626,2.189438142
2.6265,2.799826958
2.627,2.189438142
2.6275,1.273854919
2.628,0.968660511
2.6285,0.358271696
2.629,-0.557311527
2.6295,-0.862505935
2.63,0.968660511
2.6305,4.020604588
2.631,5.241382219
2.6315,3.410215773
2.632,0.968660511
2.6325,0.053077288
2.633,0.053077288
2.6335,0.358271696
2.634,0.053077288
2.6345,-0.557311527
2.635,-2.083283566
2.6355,-2.693672381
2.636,-1.47289475
2.6365,-0.252117119
2.637,-0.862505935
2.6375,-3.304061196
2.638,-3.609255604
2.6385,-1.167700343
2.639,0.053077288
2.6395,-0.252117119
2.64,-0.862505935
2.6405,0.663466104
2.641,3.410215773
2.6415,4.325798996
2.642,3.715410181
2.6425,4.020604588
2.643,5.851771035
2.6435,6.46215985
2.644,5.546576627
2.6445,4.630993404
2.645,4.325798996
2.6455,4.630993404
2.646,5.241382219
2.6465,5.546576627
2.647,5.241382219
2.6475,4.325798996
2.648,4.020604588
2.6485,4.630993404
2.649,4.325798996
2.6495,2.189438142
2.65,0.663466104
2.6505,0.968660511
2.651,1.884243735
2.6515,1.884243735
2.652,1.579049327
2.6525,1.273854919
2.653,1.273854919
2.6535,0.663466104
2.654,-0.252117119
2.6545,-0.557311527
2.655,-0.862505935
2.6555,-2.083283566
2.656,-3.304061196
2.6565,-2.998866789
2.657,-1.47289475
2.6575,-0.862505935
2.658,-1.167700343
2.6585,-1.167700343
2.659,-0.252117119
2.6595,0.358271696
2.66,0.663466104
2.6605,0.358271696
2.661,-0.557311527
2.6615,-2.388477973
2.662,-4.524838827
2.6625,-6.356005273
2.663,-8.18717172
2.6635,-9.40794935
2.664,-9.713143758
2.6645,-9.40794935
2.665,-8.492366127
2.6655,-7.881977312
2.666,-6.661199681
2.6665,-4.21964442
2.667,-0.862505935
2.6675,0.968660511
2.668,0.663466104
2.6685,-0.252117119
2.669,-0.252117119
2.6695,0.358271696
2.67,0.053077288
2.6705,-2.693672381
2.671,-6.661199681
2.6715,-8.797560535
2.672,-7.881977312
2.6725,-5.135227643
2.673,-3.609255604
2.6735,-4.21964442
2.674,-5.745616458
2.6745,-6.356005273
2.675,-6.050810866
2.6755,-4.830033235
2.676,-3.914450012
2.6765,-1.778089158
2.677,0.663466104
2.6775,3.105021365
2.678,4.020604588
2.6785,4.020604588
2.679,4.630993404
2.6795,5.851771035
2.68,4.936187812
2.6805,2.189438142
2.681,-0.862505935
2.6815,-3.304061196
2.682,-5.44042205
2.6825,-7.881977312
2.683,-10.93392139
2.6835,-13.37547665
2.684,-13.98586547
2.6845,-13.37547665
2.685,-11.84950461
2.6855,-10.32353257
2.686,-9.102754943
2.6865,-8.492366127
2.687,-8.18717172
2.6875,-7.881977312
2.688,-7.271588497
2.6885,-5.745616458
2.689,-4.524838827
2.6895,-3.304061196
2.69,-2.693672381
2.6905,-2.388477973
2.691,-3.914450012
2.6915,-7.576782904
2.692,-12.15469902
2.6925,-15.2066431
2.693,-16.12222632
2.6935,-16.73261514
2.694,-16.73261514
2.6945,-16.42742073
2.695,-15.81703191
2.6955,-15.5118375
2.696,-14.90144869
2.6965,-13.98586547
2.697,-13.37547665
2.6975,-13.37547665
2.698,-13.37547665
2.6985,-12.15469902
2.699,-9.713143758
2.6995,-6.966394089
2.7,-4.830033235
2.7005,-2.693672381
2.701,-0.557311527
2.7015,0.968660511
2.702,1.273854919
2.7025,0.968660511
2.703,0.968660511
2.7035,1.884243735
2.704,4.020604588
2.7045,6.46215985
2.705,8.598520704
2.7055,9.514103927
2.706,10.12449274
2.7065,10.42968715
2.707,10.73488156
2.7075,9.819298335
2.708,8.293326296
2.7085,6.46215985
2.709,5.241382219
2.7095,4.630993404
2.71,4.936187812
2.7105,5.546576627
2.711,5.851771035
2.7115,5.546576627
2.712,4.630993404
2.7125,3.715410181
2.713,2.799826958
2.7135,2.189438142
2.714,2.49463255
2.7145,3.410215773
2.715,3.715410181
2.7155,4.325798996
2.716,5.241382219
2.7165,5.851771035
2.717,5.851771035
2.7175,4.936187812
2.718,4.630993404
2.7185,6.156965442
2.719,8.293326296
2.7195,9.819298335
2.72,10.42968715
2.7205,9.819298335
2.721,8.293326296
2.7215,5.851771035
2.722,3.715410181
2.7225,3.105021365
2.723,3.105021365
2.7235,3.105021365
2.724,2.49463255
2.7245,1.884243735
2.725,2.799826958
2.7255,5.241382219
2.726,8.293326296
2.7265,10.12449274
2.727,10.42968715
2.7275,10.42968715
2.728,11.34527037
2.7285,11.65046478
2.729,10.12449274
2.7295,7.682937481
2.73,6.156965442
2.7305,6.156965442
2.731,6.46215985
2.7315,6.156965442
2.732,4.630993404
2.7325,3.105021365
2.733,2.49463255
2.7335,2.49463255
2.734,2.189438142
2.7345,2.189438142
2.735,2.49463255
2.7355,3.410215773
2.736,3.715410181
2.7365,3.715410181
2.737,3.715410181
2.7375,4.630993404
2.738,6.46215985
2.7385,7.988131889
2.739,8.598520704
2.7395,8.293326296
2.74,7.072548665
2.7405,5.241382219
2.741,2.799826958
2.7415,1.579049327
2.742,1.273854919
2.7425,0.053077288
2.743,-2.388477973
2.7435,-5.745616458
2.744,-7.271588497
2.7445,-7.271588497
2.745,-7.271588497
2.7455,-8.797560535
2.746,-10.93392139
2.7465,-12.15469902
2.747,-11.5443102
2.7475,-10.01833817
2.748,-9.102754943
2.7485,-9.102754943
2.749,-8.797560535
2.7495,-8.18717172
2.75,-7.881977312
2.7505,-8.797560535
2.751,-11.5443102
2.7515,-15.81703191
2.752,-19.4793648
2.7525,-20.08975362
2.753,-17.03780954
2.7535,-13.37547665
2.754,-12.76508784
2.7545,-13.68067106
2.755,-12.45989343
2.7555,-7.271588497
2.756,-3.304061196
2.7565,-4.21964442
2.757,-6.966394089
2.7575,-7.271588497
2.758,-5.745616458
2.7585,-5.135227643
2.759,-5.745616458
2.7595,-4.830033235
2.76,-3.609255604
2.7605,-4.830033235
2.761,-8.18717172
2.7615,-9.102754943
2.762,-7.576782904
2.7625,-6.966394089
2.763,-7.881977312
2.7635,-7.271588497
2.764,-4.524838827
2.7645,-3.304061196
2.765,-5.745616458
2.7655,-8.492366127
2.766,-8.797560535
2.7665,-7.576782904
2.767,-7.576782904
2.7675,-7.881977312
2.768,-6.661199681
2.7685,-4.21964442
2.769,-2.693672381
2.7695,-2.083283566
2.77,-0.252117119
2.7705,2.799826958
2.771,4.936187812
2.7715,5.241382219
2.772,5.241382219
2.7725,5.546576627
2.773,5.851771035
2.7735,6.156965442
2.774,6.156965442
2.7745,6.156965442
2.775,6.46215985
2.7755,7.072548665
2.776,7.988131889
2.7765,9.208909519
2.777,10.12449274
2.7775,10.73488156
2.778,10.73488156
2.7785,9.819298335
2.779,8.903715112
2.7795,7.682937481
2.78,7.072548665
2.7805,6.767354258
2.781,6.46215985
2.7815,5.546576627
2.782,4.936187812
2.7825,4.630993404
2.783,4.936187812
2.7835,5.546576627
2.784,6.46215985
2.7845,6.767354258
2.785,6.156965442
2.7855,5.241382219
2.786,4.020604588
2.7865,2.49463255
2.787,0.968660511
2.7875,0.358271696
2.788,1.273854919
2.7885,2.189438142
2.789,2.189438142
2.7895,1.884243735
2.79,1.579049327
2.7905,1.579049327
2.791,0.968660511
2.7915,0.358271696
2.792,0.358271696
2.7925,0.053077288
2.793,-1.167700343
2.7935,-3.304061196
2.794,-3.609255604
2.7945,-1.47289475
2.795,0.968660511
2.7955,2.189438142
2.796,1.884243735
2.7965,1.273854919
2.797,0.663466104
2.7975,0.968660511
2.798,2.189438142
2.7985,3.715410181
2.799,4.630993404
2.7995,4.630993404
2.8,4.630993404
2.8005,4.936187812
2.801,5.546576627
2.8015,5.851771035
2.802,6.156965442
2.8025,7.682937481
2.803,10.12449274
2.8035,11.65046478
2.804,11.95565919
2.8045,11.34527037
2.805,11.34527037
2.8055,11.34527037
2.806,10.73488156
2.8065,8.598520704
2.807,5.546576627
2.8075,1.884243735
2.808,-1.47289475
2.8085,-4.524838827
2.809,-6.661199681
2.8095,-7.881977312
2.81,-8.797560535
2.8105,-9.713143758
2.811,-9.102754943
2.8115,-6.966394089
2.812,-4.524838827
2.8125,-3.609255604
2.813,-4.830033235
2.8135,-6.050810866
2.814,-6.356005273
2.8145,-6.356005273
2.815,-8.492366127
2.8155,-12.15469902
2.816,-15.5118375
2.8165,-16.73261514
2.817,-15.2066431
2.8175,-13.07028224
2.818,-11.84950461
2.8185,-10.93392139
2.819,-10.01833817
2.8195,-8.18717172
2.82,-6.050810866
2.8205,-4.524838827
2.821,-3.914450012
2.8215,-3.609255604
2.822,-4.524838827
2.8225,-6.661199681
2.823,-8.797560535
2.8235,-8.492366127
2.824,-6.966394089
2.8245,-6.050810866
2.825,-7.271588497
2.8255,-8.18717172
2.826,-6.356005273
2.8265,-2.998866789
2.827,-1.47289475
2.8275,-1.778089158
2.828,-2.693672381
2.8285,-2.083283566
2.829,-0.862505935
2.8295,-0.252117119
2.83,-0.252117119
2.8305,0.358271696
2.831,2.189438142
2.8315,4.325798996
2.832,6.156965442
2.8325,6.46215985
2.833,4.936187812
2.8335,2.799826958
2.834,1.884243735
2.8345,2.189438142
2.835,2.189438142
2.8355,0.053077288
2.836,-2.998866789
2.8365,-4.21964442
2.837,-2.388477973
2.8375,0.358271696
2.838,1.579049327
2.8385,0.663466104
2.839,-0.252117119
2.8395,-1.47289475
2.84,-2.083283566
2.8405,-1.778089158
2.841,-0.252117119
2.8415,2.189438142
2.842,4.325798996
2.8425,5.546576627
2.843,7.377743073
2.8435,10.73488156
2.844,13.17643682
2.8445,12.566048
2.845,9.514103927
2.8455,6.46215985
2.846,5.241382219
2.8465,4.020604588
2.847,2.49463255
2.8475,0.053077288
2.848,-0.557311527
2.8485,-0.252117119
2.849,0.358271696
2.8495,-0.252117119
2.85,-1.167700343
2.8505,-0.557311527
2.851,2.189438142
2.8515,4.325798996
2.852,4.630993404
2.8525,3.105021365
2.853,2.799826958
2.8535,3.105021365
2.854,2.189438142
2.8545,0.968660511
2.855,1.579049327
2.8555,4.936187812
2.856,7.988131889
2.8565,8.903715112
2.857,7.377743073
2.8575,5.546576627
2.858,3.715410181
2.8585,2.49463255
2.859,1.273854919
2.8595,0.053077288
2.86,-1.167700343
2.8605,-2.693672381
2.861,-3.914450012
2.8615,-4.21964442
2.862,-4.21964442
2.8625,-4.21964442
2.863,-4.21964442
2.8635,-4.21964442
2.864,-4.830033235
2.8645,-6.050810866
2.865,-6.966394089
2.8655,-7.271588497
2.866,-8.492366127
2.8665,-10.62872698
2.867,-12.15469902
2.8675,-10.93392139
2.868,-8.18717172
2.8685,-7.576782904
2.869,-9.40794935
2.8695,-10.62872698
2.87,-9.40794935
2.8705,-7.271588497
2.871,-6.356005273
2.8715,-7.271588497
2.872,-6.966394089
2.8725,-4.830033235
2.873,-2.693672381
2.8735,-2.998866789
2.874,-4.830033235
2.8745,-5.745616458
2.875,-5.44042205
2.8755,-4.524838827
2.876,-4.21964442
2.8765,-3.304061196
2.877,-2.388477973
2.8775,-2.693672381
2.878,-5.135227643
2.8785,-8.492366127
2.879,-9.713143758
2.8795,-7.576782904
2.88,-3.609255604
2.8805,-0.252117119
2.881,1.884243735
2.8815,3.715410181
2.882,4.936187812
2.8825,6.767354258
2.883,9.208909519
2.8835,12.2608536
2.884,13.78682563
2.8845,14.09202004
2.885,14.39721445
2.8855,16.2283809
2.886,17.44915853
2.8865,16.5335753
2.887,14.09202004
2.8875,12.87124241
2.888,14.39721445
2.8885,15.61799208
2.889,14.09202004
2.8895,12.2608536
2.89,11.65046478
2.8905,11.65046478
2.891,10.42968715
2.8915,7.682937481
2.892,6.46215985
2.8925,7.072548665
2.893,8.293326296
2.8935,9.208909519
2.894,10.42968715
2.8945,13.17643682
2.895,16.5335753
2.8955,18.66993616
2.896,19.58551938
2.8965,20.80629701
2.897,22.02707464
2.8975,22.02707464
2.898,20.5011026
2.8985,18.66993616
2.899,17.14396412
2.8995,15.61799208
2.9,14.09202004
2.9005,12.87124241
2.901,12.2608536
2.9015,11.65046478
2.902,11.34527037
2.9025,11.65046478
2.903,12.2608536
2.9035,12.566048
2.904,12.2608536
2.9045,11.04007597
2.905,9.208909519
2.9055,6.46215985
2.906,4.325798996
2.9065,2.799826958
2.907,1.579049327
2.9075,-0.252117119
2.908,-2.998866789
2.9085,-8.18717172
2.909,-15.5118375
2.9095,-22.53130888
2.91,-26.49883618
2.9105,-26.19364177
2.911,-23.4468921
2.9115,-19.1741704
2.912,-13.98586547
2.9125,-9.40794935
2.913,-7.576782904
2.9135,-7.881977312
2.914,-7.576782904
2.9145,-5.44042205
2.915,-3.304061196
2.9155,-4.21964442
2.916,-7.881977312
2.9165,-11.2391158
2.917,-13.07028224
2.9175,-13.68067106
2.918,-13.98586547
2.9185,-13.98586547
2.919,-12.76508784
2.9195,-10.01833817
2.92,-7.881977312
2.9205,-7.271588497
2.921,-7.576782904
2.9215,-6.661199681
2.922,-4.524838827
2.9225,-2.083283566
2.923,-1.47289475
2.9235,-1.47289475
2.924,-1.167700343
2.9245,-1.47289475
2.925,-3.304061196
2.9255,-4.830033235
2.926,-5.44042205
2.9265,-5.44042205
2.927,-6.356005273
2.9275,-7.576782904
2.928,-6.661199681
2.9285,-4.830033235
2.929,-3.914450012
2.9295,-4.21964442
2.93,-3.609255604
2.9305,-2.083283566
2.931,-1.167700343
2.9315,-2.388477973
2.932,-4.21964442
2.9325,-4.524838827
2.933,-4.21964442
2.9335,-5.745616458
2.934,-8.797560535
2.9345,-11.2391158
2.935,-10.93392139
2.9355,-9.102754943
2.936,-7.881977312
2.9365,-7.881977312
2.937,-7.881977312
2.9375,-6.356005273
2.938,-3.609255604
2.9385,-1.167700343
2.939,0.053077288
2.9395,0.663466104
2.94,0.663466104
2.9405,-0.557311527
2.941,-2.693672381
2.9415,-3.304061196
2.942,-2.388477973
2.9425,-2.083283566
2.943,-2.388477973
2.9435,-2.998866789
2.944,-2.693672381
2.9445,-1.47289475
2.945,-0.252117119
2.9455,-0.252117119
2.946,0.663466104
2.9465,2.189438142
2.947,4.020604588
2.9475,4.936187812
2.948,4.325798996
2.9485,3.715410181
2.949,4.325798996
2.9495,5.241382219
2.95,5.241382219
2.9505,4.325798996
2.951,3.715410181
2.9515,4.325798996
2.952,4.020604588
2.9525,1.579049327
2.953,-0.557311527
2.9535,-0.557311527
2.954,0.968660511
2.9545,2.799826958
2.955,4.020604588
2.9555,4.630993404
2.956,4.325798996
2.9565,3.105021365
2.957,2.799826958
2.9575,4.325798996
2.958,6.156965442
2.9585,5.851771035
2.959,4.630993404
2.9595,4.020604588
2.96,5.241382219
2.9605,6.46215985
2.961,5.851771035
2.9615,4.630993404
2.962,4.020604588
2.9625,3.410215773
2.963,2.799826958
2.9635,2.799826958
2.964,3.715410181
2.9645,4.936187812
2.965,4.936187812
2.9655,3.715410181
2.966,2.49463255
2.9665,1.579049327
2.967,1.579049327
2.9675,2.49463255
2.968,4.020604588
2.9685,4.630993404
2.969,3.715410181
2.9695,3.105021365
2.97,4.325798996
2.9705,5.546576627
2.971,5.851771035
2.9715,5.546576627
2.972,5.851771035
2.9725,5.851771035
2.973,4.020604588
2.9735,1.579049327
2.974,0.968660511
2.9745,2.189438142
2.975,3.715410181
2.9755,4.020604588
2.976,4.020604588
2.9765,3.410215773
2.977,2.799826958
2.9775,2.49463255
2.978,2.189438142
2.9785,1.884243735
2.979,0.968660511
2.9795,0.358271696
2.98,2.49463255
2.9805,5.851771035
2.981,9.208909519
2.9815,10.73488156
2.982,10.42968715
2.9825,8.293326296
2.983,3.715410181
2.9835,-2.388477973
2.984,-8.492366127
2.9845,-12.45989343
2.985,-15.5118375
2.9855,-17.64819836
2.986,-19.4793648
2.9865,-19.4793648
2.987,-17.34300395
2.9875,-14.90144869
2.988,-13.07028224
2.9885,-12.45989343
2.989,-12.15469902
2.9895,-11.5443102
2.99,-11.84950461
2.9905,-12.15469902
2.991,-11.84950461
2.9915,-10.93392139
2.992,-10.01833817
2.9925,-10.01833817
2.993,-10.01833817
2.9935,-9.102754943
2.994,-7.576782904
2.9945,-6.661199681
2.995,-6.050810866
2.9955,-3.609255604
2.996,-0.557311527
2.9965,0.358271696
2.997,-1.167700343
2.9975,-4.524838827
2.998,-6.356005273
2.9985,-6.661199681
2.999,-6.356005273
2.9995,-6.661199681
3,-7.881977312
3.0005,-9.102754943
3.001,-10.01833817
3.0015,-10.62872698
3.002,-11.2391158
3.0025,-11.2391158
3.003,-10.62872698
3.0035,-9.713143758
3.004,-8.18717172
3.0045,-6.050810866
3.005,-3.304061196
3.0055,-1.47289475
3.006,-1.167700343
3.0065,-1.778089158
3.007,-0.862505935
3.0075,0.663466104
3.008,1.273854919
3.0085,-0.252117119
3.009,-2.083283566
3.0095,-2.388477973
3.01,-2.693672381
3.0105,-4.524838827
3.011,-6.661199681
3.0115,-8.18717172
3.012,-8.492366127
3.0125,-7.271588497
3.013,-4.830033235
3.0135,-2.998866789
3.014,-3.609255604
3.0145,-5.44042205
3.015,-6.356005273
3.0155,-5.44042205
3.016,-4.21964442
3.0165,-3.304061196
3.017,-1.167700343
3.0175,1.884243735
3.018,4.020604588
3.0185,3.105021365
3.019,0.968660511
3.0195,0.663466104
3.02,1.884243735
3.0205,3.715410181
3.021,5.851771035
3.0215,8.903715112
3.022,11.65046478
3.0225,12.2608536
3.023,11.95565919
3.0235,12.2608536
3.024,13.17643682
3.0245,14.09202004
