type,name,time_units,begin_time,frequency,count,units
signal,"Noraxon Ultium-RT BICEPS BR.","s",0.00000,2000,51840,"uV"

time,value
0.00000,-0.002592856037
0.00050,0.3026015517
0.00100,1.523379182
0.00150,1.218184775
0.00200,-0.002592856037
0.00250,-1.528564895
0.00300,-0.9181760791
0.00350,-0.002592856037
0.00400,-0.9181760791
0.00450,-1.833759302
0.00500,-0.9181760791
0.00550,0.9129903671
0.00600,1.82857359
0.00650,0.3026015517
0.00700,-0.9181760791
0.00750,-0.6129816714
0.00800,0.3026015517
0.00850,0.3026015517
0.00900,-0.002592856037
0.00950,-0.002592856037
0.01000,0.3026015517
0.01050,-0.002592856037
0.01100,-0.002592856037
0.01150,-0.002592856037
0.01200,0.9129903671
0.01250,2.133767998
0.01300,2.133767998
0.01350,1.523379182
0.01400,-0.002592856037
0.01450,-1.528564895
0.01500,-1.833759302
0.01550,-0.6129816714
0.01600,-0.002592856037
0.01650,-0.002592856037
0.01700,-0.002592856037
0.01750,-0.3077872637
0.01800,-0.002592856037
0.01850,0.3026015517
0.01900,-0.002592856037
0.01950,-0.002592856037
0.02000,-0.002592856037
0.02050,-0.002592856037
0.02100,-0.002592856037
0.02150,0.3026015517
0.02200,0.3026015517
0.02250,0.3026015517
0.02300,0.9129903671
0.02350,1.523379182
0.02400,0.9129903671
0.02450,0.3026015517
0.02500,-0.002592856037
0.02550,0.6077959594
0.02600,0.9129903671
0.02650,0.3026015517
0.02700,-0.002592856037
0.02750,0.6077959594
0.02800,1.218184775
0.02850,1.218184775
0.02900,0.6077959594
0.02950,0.3026015517
0.03000,0.6077959594
0.03050,0.6077959594
0.03100,-0.002592856037
0.03150,-0.3077872637
0.03200,-0.3077872637
0.03250,-0.002592856037
0.03300,-0.002592856037
0.03350,-0.3077872637
0.03400,-0.6129816714
0.03450,-0.002592856037
0.03500,0.6077959594
0.03550,0.9129903671
0.03600,-0.002592856037
0.03650,-0.9181760791
0.03700,-0.3077872637
0.03750,0.6077959594
0.03800,0.9129903671
0.03850,-0.002592856037
0.03900,-0.3077872637
0.03950,-0.002592856037
0.04000,-0.002592856037
0.04050,-0.3077872637
0.04100,-0.6129816714
0.04150,-0.3077872637
0.04200,-0.002592856037
0.04250,-0.002592856037
0.04300,0.3026015517
0.04350,-0.002592856037
0.04400,-0.002592856037
0.04450,-0.002592856037
0.04500,1.523379182
0.04550,2.133767998
0.04600,1.523379182
0.04650,0.3026015517
0.04700,-0.002592856037
0.04750,0.3026015517
0.04800,0.3026015517
0.04850,-0.002592856037
0.04900,-0.002592856037
0.04950,0.3026015517
0.05000,0.3026015517
0.05050,-0.3077872637
0.05100,-0.6129816714
0.05150,-0.3077872637
0.05200,0.3026015517
0.05250,0.3026015517
0.05300,-0.002592856037
0.05350,-0.002592856037
0.05400,-0.002592856037
0.05450,-0.6129816714
0.05500,-0.9181760791
0.05550,-0.3077872637
0.05600,0.6077959594
0.05650,1.218184775
0.05700,0.9129903671
0.05750,0.3026015517
0.05800,-0.3077872637
0.05850,-1.223370487
0.05900,-1.528564895
0.05950,-0.6129816714
0.06000,0.3026015517
0.06050,0.6077959594
0.06100,-0.3077872637
0.06150,-0.6129816714
0.06200,0.9129903671
0.06250,2.744156813
0.06300,3.354545629
0.06350,2.133767998
0.06400,1.218184775
0.06450,1.218184775
0.06500,1.218184775
0.06550,0.6077959594
0.06600,-0.002592856037
0.06650,-0.002592856037
0.06700,-0.6129816714
0.06750,-1.223370487
0.06800,-2.444148118
0.06850,-3.664925748
0.06900,-3.970120156
0.06950,-3.054536933
0.07000,-2.13895371
0.07050,-2.13895371
0.07100,-3.359731341
0.07150,-3.359731341
0.07200,-1.528564895
0.07250,-0.3077872637
0.07300,-0.002592856037
0.07350,-0.3077872637
0.07400,-0.002592856037
0.07450,0.3026015517
0.07500,-0.002592856037
0.07550,-0.3077872637
0.07600,-0.002592856037
0.07650,0.3026015517
0.07700,-0.002592856037
0.07750,-1.528564895
0.07800,-2.444148118
0.07850,-1.833759302
0.07900,-0.6129816714
0.07950,-0.002592856037
0.08000,0.3026015517
0.08050,-0.002592856037
0.08100,-0.3077872637
0.08150,-1.223370487
0.08200,-2.13895371
0.08250,-2.749342525
0.08300,-3.359731341
0.08350,-3.359731341
0.08400,-2.444148118
0.08450,-0.9181760791
0.08500,-0.002592856037
0.08550,-0.002592856037
0.08600,-0.6129816714
0.08650,-0.6129816714
0.08700,-0.3077872637
0.08750,-0.002592856037
0.08800,-0.002592856037
0.08850,-0.002592856037
0.08900,-0.002592856037
0.08950,0.3026015517
0.09000,0.3026015517
0.09050,-0.002592856037
0.09100,-0.9181760791
0.09150,-1.223370487
0.09200,-1.528564895
0.09250,-1.833759302
0.09300,-1.528564895
0.09350,-0.6129816714
0.09400,-0.002592856037
0.09450,-0.002592856037
0.09500,-0.002592856037
0.09550,0.9129903671
0.09600,2.438962406
0.09650,2.744156813
0.09700,1.218184775
0.09750,-0.002592856037
0.09800,-0.002592856037
0.09850,0.6077959594
0.09900,0.6077959594
0.09950,0.3026015517
0.10000,0.6077959594
0.10050,1.523379182
0.10100,1.82857359
0.10150,0.9129903671
0.10200,-0.002592856037
0.10250,-0.3077872637
0.10300,-0.002592856037
0.10350,0.9129903671
0.10400,1.218184775
0.10450,1.218184775
0.10500,1.523379182
0.10550,1.82857359
0.10600,1.82857359
0.10650,0.9129903671
0.10700,-0.002592856037
0.10750,-0.002592856037
0.10800,0.6077959594
0.10850,1.218184775
0.10900,1.218184775
0.10950,1.523379182
0.11000,1.82857359
0.11050,1.523379182
0.11100,0.9129903671
0.11150,-0.002592856037
0.11200,-0.002592856037
0.11250,0.3026015517
0.11300,0.6077959594
0.11350,0.9129903671
0.11400,0.6077959594
0.11450,-0.002592856037
0.11500,-0.3077872637
0.11550,-0.002592856037
0.11600,-0.002592856037
0.11650,-0.6129816714
0.11700,-1.528564895
0.11750,-2.13895371
0.11800,-1.528564895
0.11850,-0.6129816714
0.11900,-0.002592856037
0.11950,0.6077959594
0.12000,0.9129903671
0.12050,0.9129903671
0.12100,-0.002592856037
0.12150,-0.9181760791
0.12200,-0.6129816714
0.12250,-0.002592856037
0.12300,0.9129903671
0.12350,0.6077959594
0.12400,-0.002592856037
0.12450,-0.002592856037
0.12500,-0.002592856037
0.12550,0.3026015517
0.12600,0.6077959594
0.12650,0.9129903671
0.12700,1.82857359
0.12750,3.049351221
0.12800,4.575323259
0.12850,5.185712075
0.12900,4.575323259
0.12950,3.049351221
0.13000,1.82857359
0.13050,1.523379182
0.13100,1.218184775
0.13150,0.3026015517
0.13200,-0.002592856037
0.13250,-0.3077872637
0.13300,-0.002592856037
0.13350,-0.3077872637
0.13400,-1.223370487
0.13450,-2.13895371
0.13500,-2.444148118
0.13550,-2.444148118
0.13600,-2.444148118
0.13650,-2.444148118
0.13700,-2.749342525
0.13750,-2.444148118
0.13800,-0.9181760791
0.13850,1.218184775
0.13900,2.438962406
0.13950,1.82857359
0.14000,0.3026015517
0.14050,-0.3077872637
0.14100,-0.002592856037
0.14150,0.3026015517
0.14200,-0.9181760791
0.14250,-3.054536933
0.14300,-4.885703379
0.14350,-5.496092195
0.14400,-4.885703379
0.14450,-4.275314564
0.14500,-3.970120156
0.14550,-3.664925748
0.14600,-2.444148118
0.14650,-1.223370487
0.14700,-0.9181760791
0.14750,-0.3077872637
0.14800,0.3026015517
0.14850,1.218184775
0.14900,0.6077959594
0.14950,-0.3077872637
0.15000,-0.9181760791
0.15050,-0.002592856037
0.15100,0.6077959594
0.15150,0.9129903671
0.15200,0.9129903671
0.15250,0.6077959594
0.15300,-0.002592856037
0.15350,-0.3077872637
0.15400,-0.3077872637
0.15450,0.3026015517
0.15500,0.6077959594
0.15550,-0.002592856037
0.15600,-0.9181760791
0.15650,-0.3077872637
0.15700,0.6077959594
0.15750,0.9129903671
0.15800,0.9129903671
0.15850,0.9129903671
0.15900,0.9129903671
0.15950,-0.002592856037
0.16000,-0.6129816714
0.16050,-0.002592856037
0.16100,0.9129903671
0.16150,1.82857359
0.16200,1.82857359
0.16250,1.82857359
0.16300,2.438962406
0.16350,2.744156813
0.16400,1.82857359
0.16450,0.3026015517
0.16500,-0.3077872637
0.16550,-0.002592856037
0.16600,0.6077959594
0.16650,0.9129903671
0.16700,1.218184775
0.16750,0.9129903671
0.16800,-0.002592856037
0.16850,-0.9181760791
0.16900,-1.833759302
0.16950,-1.528564895
0.17000,-0.3077872637
0.17050,0.6077959594
0.17100,0.9129903671
0.17150,0.3026015517
0.17200,-0.002592856037
0.17250,-0.3077872637
0.17300,-0.002592856037
0.17350,0.9129903671
0.17400,3.049351221
0.17450,4.575323259
0.17500,5.490906483
0.17550,5.185712075
0.17600,4.880517667
0.17650,3.964934444
0.17700,3.354545629
0.17750,2.438962406
0.17800,1.523379182
0.17850,0.6077959594
0.17900,0.3026015517
0.17950,0.3026015517
0.18000,-0.6129816714
0.18050,-2.444148118
0.18100,-3.664925748
0.18150,-2.444148118
0.18200,-0.9181760791
0.18250,-0.6129816714
0.18300,-1.223370487
0.18350,-0.002592856037
0.18400,2.438962406
0.18450,4.270128852
0.18500,3.354545629
0.18550,1.82857359
0.18600,1.218184775
0.18650,1.218184775
0.18700,0.6077959594
0.18750,-0.002592856037
0.18800,-0.9181760791
0.18850,-1.223370487
0.18900,-1.833759302
0.18950,-2.749342525
0.19000,-3.359731341
0.19050,-4.580508972
0.19100,-6.10648101
0.19150,-7.022064233
0.19200,-7.632453049
0.19250,-8.242841864
0.19300,-8.548036272
0.19350,-8.242841864
0.19400,-7.022064233
0.19450,-5.801286602
0.19500,-4.580508972
0.19550,-3.054536933
0.19600,-2.13895371
0.19650,-0.9181760791
0.19700,0.6077959594
0.19750,2.438962406
0.19800,3.049351221
0.19850,1.82857359
0.19900,0.6077959594
0.19950,1.82857359
0.20000,3.964934444
0.20050,4.575323259
0.20100,3.049351221
0.20150,2.438962406
0.20200,3.049351221
0.20250,3.049351221
0.20300,1.218184775
0.20350,-0.002592856037
0.20400,0.6077959594
0.20450,1.82857359
0.20500,0.6077959594
0.20550,-1.223370487
0.20600,-1.833759302
0.20650,-0.9181760791
0.20700,-0.9181760791
0.20750,-1.528564895
0.20800,-1.528564895
0.20850,-0.002592856037
0.20900,1.218184775
0.20950,0.9129903671
0.21000,-0.002592856037
0.21050,-0.3077872637
0.21100,-0.9181760791
0.21150,-0.9181760791
0.21200,-0.6129816714
0.21250,-0.3077872637
0.21300,-0.9181760791
0.21350,-1.528564895
0.21400,-1.528564895
0.21450,-0.9181760791
0.21500,-0.6129816714
0.21550,-0.3077872637
0.21600,-0.002592856037
0.21650,0.6077959594
0.21700,0.9129903671
0.21750,0.6077959594
0.21800,0.6077959594
0.21850,0.3026015517
0.21900,-0.002592856037
0.21950,-1.223370487
0.22000,-0.9181760791
0.22050,0.6077959594
0.22100,1.523379182
0.22150,0.9129903671
0.22200,-0.002592856037
0.22250,0.6077959594
0.22300,1.523379182
0.22350,1.82857359
0.22400,1.523379182
0.22450,0.9129903671
0.22500,-0.002592856037
0.22550,-0.6129816714
0.22600,-0.9181760791
0.22650,-0.3077872637
0.22700,-0.002592856037
0.22750,-0.6129816714
0.22800,-1.528564895
0.22850,-0.9181760791
0.22900,-0.002592856037
0.22950,0.6077959594
0.23000,-0.002592856037
0.23050,-0.002592856037
0.23100,0.6077959594
0.23150,0.6077959594
0.23200,-0.6129816714
0.23250,-1.223370487
0.23300,-0.002592856037
0.23350,1.218184775
0.23400,0.9129903671
0.23450,0.3026015517
0.23500,1.82857359
0.23550,4.270128852
0.23600,4.575323259
0.23650,2.133767998
0.23700,0.6077959594
0.23750,2.133767998
0.23800,3.659740036
0.23850,3.049351221
0.23900,1.523379182
0.23950,1.82857359
0.24000,3.354545629
0.24050,3.964934444
0.24100,3.354545629
0.24150,3.659740036
0.24200,3.964934444
0.24250,3.659740036
0.24300,2.438962406
0.24350,1.523379182
0.24400,0.9129903671
0.24450,0.3026015517
0.24500,-0.002592856037
0.24550,-0.002592856037
0.24600,-0.002592856037
0.24650,-0.6129816714
0.24700,-2.749342525
0.24750,-3.970120156
0.24800,-4.275314564
0.24850,-4.580508972
0.24900,-5.801286602
0.24950,-7.632453049
0.25000,-8.548036272
0.25050,-8.548036272
0.25100,-7.327258641
0.25150,-5.801286602
0.25200,-4.275314564
0.25250,-3.359731341
0.25300,-3.359731341
0.25350,-3.664925748
0.25400,-3.359731341
0.25450,-1.833759302
0.25500,-0.002592856037
0.25550,1.218184775
0.25600,1.218184775
0.25650,0.9129903671
0.25700,2.133767998
0.25750,3.964934444
0.25800,4.880517667
0.25850,4.575323259
0.25900,4.270128852
0.25950,4.270128852
0.26000,3.659740036
0.26050,1.82857359
0.26100,0.6077959594
0.26150,0.6077959594
0.26200,0.6077959594
0.26250,-0.3077872637
0.26300,-2.13895371
0.26350,-2.13895371
0.26400,-1.833759302
0.26450,-2.444148118
0.26500,-3.664925748
0.26550,-3.054536933
0.26600,-0.3077872637
0.26650,0.6077959594
0.26700,-0.3077872637
0.26750,-0.3077872637
0.26800,1.82857359
0.26850,4.880517667
0.26900,5.185712075
0.26950,3.354545629
0.27000,3.049351221
0.27050,5.490906483
0.27100,8.237656152
0.27150,8.54285056
0.27200,7.016878521
0.27250,5.490906483
0.27300,5.185712075
0.27350,5.79610089
0.27400,5.79610089
0.27450,4.880517667
0.27500,3.049351221
0.27550,0.9129903671
0.27600,-0.002592856037
0.27650,-0.6129816714
0.27700,-1.833759302
0.27750,-3.359731341
0.27800,-4.580508972
0.27850,-4.885703379
0.27900,-5.190897787
0.27950,-6.10648101
0.28000,-6.10648101
0.28050,-5.190897787
0.28100,-4.885703379
0.28150,-6.411675418
0.28200,-8.548036272
0.28250,-8.548036272
0.28300,-5.801286602
0.28350,-2.749342525
0.28400,-2.749342525
0.28450,-4.580508972
0.28500,-5.801286602
0.28550,-4.580508972
0.28600,-2.13895371
0.28650,-1.223370487
0.28700,-1.223370487
0.28750,-1.528564895
0.28800,-0.6129816714
0.28850,-0.002592856037
0.28900,-0.3077872637
0.28950,-0.6129816714
0.29000,0.3026015517
0.29050,2.438962406
0.29100,2.744156813
0.29150,0.9129903671
0.29200,-0.002592856037
0.29250,1.82857359
0.29300,5.79610089
0.29350,8.237656152
0.29400,7.932461744
0.29450,7.322072929
0.29500,6.711684113
0.29550,5.79610089
0.29600,3.354545629
0.29650,0.9129903671
0.29700,-0.6129816714
0.29750,-1.528564895
0.29800,-2.444148118
0.29850,-3.664925748
0.29900,-4.885703379
0.29950,-6.411675418
0.30000,-7.327258641
0.30050,-7.022064233
0.30100,-6.10648101
0.30150,-5.190897787
0.30200,-5.190897787
0.30250,-5.801286602
0.30300,-5.496092195
0.30350,-4.275314564
0.30400,-2.444148118
0.30450,-1.223370487
0.30500,-0.3077872637
0.30550,-0.002592856037
0.30600,-0.002592856037
0.30650,0.9129903671
0.30700,2.438962406
0.30750,3.659740036
0.30800,3.659740036
0.30850,3.354545629
0.30900,3.049351221
0.30950,2.438962406
0.31000,1.523379182
0.31050,0.9129903671
0.31100,1.82857359
0.31150,3.049351221
0.31200,4.270128852
0.31250,4.880517667
0.31300,4.880517667
0.31350,3.964934444
0.31400,2.133767998
0.31450,0.6077959594
0.31500,0.6077959594
0.31550,2.133767998
0.31600,1.82857359
0.31650,-0.002592856037
0.31700,-1.223370487
0.31750,-0.9181760791
0.31800,-0.6129816714
0.31850,-1.833759302
0.31900,-2.749342525
0.31950,-1.223370487
0.32000,1.218184775
0.32050,1.523379182
0.32100,-0.002592856037
0.32150,0.3026015517
0.32200,2.744156813
0.32250,4.270128852
0.32300,2.133767998
0.32350,-0.6129816714
0.32400,-0.6129816714
0.32450,0.9129903671
0.32500,1.523379182
0.32550,0.6077959594
0.32600,-0.002592856037
0.32650,-0.002592856037
0.32700,-0.002592856037
0.32750,-0.002592856037
0.32800,0.3026015517
0.32850,0.6077959594
0.32900,-0.002592856037
0.32950,-0.9181760791
0.33000,-0.9181760791
0.33050,-0.002592856037
0.33100,0.6077959594
0.33150,0.6077959594
0.33200,0.3026015517
0.33250,0.6077959594
0.33300,0.6077959594
0.33350,0.6077959594
0.33400,-0.002592856037
0.33450,-0.6129816714
0.33500,-0.9181760791
0.33550,-0.002592856037
0.33600,0.9129903671
0.33650,0.3026015517
0.33700,-0.3077872637
0.33750,-0.002592856037
0.33800,2.133767998
0.33850,3.354545629
0.33900,2.133767998
0.33950,1.218184775
0.34000,4.270128852
0.34050,9.76362819
0.34100,13.12076668
0.34150,11.89998904
0.34200,8.848044967
0.34250,7.322072929
0.34300,7.627267336
0.34350,7.322072929
0.34400,5.490906483
0.34450,2.744156813
0.34500,0.3026015517
0.34550,-2.13895371
0.34600,-4.885703379
0.34650,-6.716869825
0.34700,-7.632453049
0.34750,-8.242841864
0.34800,-9.158425087
0.34850,-9.768813902
0.34900,-9.463619495
0.34950,-7.937647456
0.35000,-6.10648101
0.35050,-4.580508972
0.35100,-3.054536933
0.35150,-2.13895371
0.35200,-1.528564895
0.35250,-0.9181760791
0.35300,-0.3077872637
0.35350,-0.002592856037
0.35400,-0.002592856037
0.35450,-0.002592856037
0.35500,-0.002592856037
0.35550,-0.002592856037
0.35600,-0.9181760791
0.35650,-1.833759302
0.35700,-0.9181760791
0.35750,0.6077959594
0.35800,1.82857359
0.35850,1.82857359
0.35900,1.218184775
0.35950,1.218184775
0.36000,1.218184775
0.36050,0.3026015517
0.36100,-0.002592856037
0.36150,-0.002592856037
0.36200,0.6077959594
0.36250,-0.002592856037
0.36300,-2.13895371
0.36350,-3.970120156
0.36400,-4.580508972
0.36450,-3.970120156
0.36500,-3.054536933
0.36550,-1.833759302
0.36600,-0.6129816714
0.36650,-0.002592856037
0.36700,-0.6129816714
0.36750,-1.528564895
0.36800,-0.9181760791
0.36850,-0.002592856037
0.36900,0.9129903671
0.36950,-0.002592856037
0.37000,-0.6129816714
0.37050,-0.6129816714
0.37100,-0.002592856037
0.37150,-0.002592856037
0.37200,-1.223370487
0.37250,-1.833759302
0.37300,-0.6129816714
0.37350,0.3026015517
0.37400,-0.6129816714
0.37450,-2.749342525
0.37500,-2.749342525
0.37550,-1.223370487
0.37600,-0.3077872637
0.37650,-0.9181760791
0.37700,-0.9181760791
0.37750,-0.002592856037
0.37800,0.3026015517
0.37850,-0.3077872637
0.37900,-1.528564895
0.37950,-1.528564895
0.38000,-0.9181760791
0.38050,-0.3077872637
0.38100,-0.002592856037
0.38150,0.6077959594
0.38200,0.6077959594
0.38250,0.6077959594
0.38300,0.9129903671
0.38350,1.523379182
0.38400,1.82857359
0.38450,1.218184775
0.38500,0.9129903671
0.38550,1.82857359
0.38600,2.744156813
0.38650,2.133767998
0.38700,0.6077959594
0.38750,-0.002592856037
0.38800,0.6077959594
0.38850,1.523379182
0.38900,1.218184775
0.38950,0.3026015517
0.39000,-0.002592856037
0.39050,0.9129903671
0.39100,2.133767998
0.39150,2.438962406
0.39200,1.218184775
0.39250,-0.002592856037
0.39300,-0.6129816714
0.39350,-0.3077872637
0.39400,0.3026015517
0.39450,-0.002592856037
0.39500,-0.3077872637
0.39550,-0.3077872637
0.39600,-0.002592856037
0.39650,0.9129903671
0.39700,1.82857359
0.39750,1.82857359
0.39800,1.218184775
0.39850,0.3026015517
0.39900,-0.002592856037
0.39950,0.6077959594
0.40000,1.218184775
0.40050,0.6077959594
0.40100,-0.002592856037
0.40150,-0.6129816714
0.40200,-0.3077872637
0.40250,-0.3077872637
0.40300,-0.002592856037
0.40350,0.3026015517
0.40400,0.6077959594
0.40450,0.9129903671
0.40500,1.218184775
0.40550,1.82857359
0.40600,3.354545629
0.40650,3.964934444
0.40700,3.049351221
0.40750,1.82857359
0.40800,1.523379182
0.40850,1.82857359
0.40900,2.133767998
0.40950,0.9129903671
0.41000,-0.002592856037
0.41050,-0.002592856037
0.41100,0.6077959594
0.41150,0.9129903671
0.41200,0.6077959594
0.41250,-0.002592856037
0.41300,-0.6129816714
0.41350,-0.9181760791
0.41400,-1.528564895
0.41450,-2.444148118
0.41500,-3.054536933
0.41550,-3.054536933
0.41600,-2.749342525
0.41650,-3.054536933
0.41700,-3.664925748
0.41750,-3.054536933
0.41800,-1.833759302
0.41850,-1.223370487
0.41900,-2.13895371
0.41950,-2.749342525
0.42000,-2.13895371
0.42050,-1.223370487
0.42100,-2.444148118
0.42150,-4.580508972
0.42200,-4.580508972
0.42250,-2.13895371
0.42300,-0.3077872637
0.42350,-0.6129816714
0.42400,-1.223370487
0.42450,-0.002592856037
0.42500,1.523379182
0.42550,2.133767998
0.42600,1.523379182
0.42650,1.218184775
0.42700,0.6077959594
0.42750,-0.002592856037
0.42800,-0.002592856037
0.42850,0.6077959594
0.42900,0.6077959594
0.42950,-0.002592856037
0.43000,-0.002592856037
0.43050,1.82857359
0.43100,2.744156813
0.43150,0.9129903671
0.43200,-0.9181760791
0.43250,-0.6129816714
0.43300,1.218184775
0.43350,1.82857359
0.43400,0.6077959594
0.43450,0.6077959594
0.43500,2.133767998
0.43550,3.049351221
0.43600,1.82857359
0.43650,-0.002592856037
0.43700,-0.002592856037
0.43750,0.9129903671
0.43800,0.9129903671
0.43850,0.3026015517
0.43900,0.3026015517
0.43950,1.82857359
0.44000,3.659740036
0.44050,3.964934444
0.44100,2.438962406
0.44150,0.6077959594
0.44200,-0.3077872637
0.44250,-0.002592856037
0.44300,0.3026015517
0.44350,0.6077959594
0.44400,-0.002592856037
0.44450,-0.3077872637
0.44500,-0.3077872637
0.44550,-0.002592856037
0.44600,-0.002592856037
0.44650,-1.223370487
0.44700,-2.13895371
0.44750,-2.13895371
0.44800,-1.223370487
0.44850,-0.3077872637
0.44900,0.9129903671
0.44950,3.049351221
0.45000,4.880517667
0.45050,4.575323259
0.45100,4.270128852
0.45150,4.880517667
0.45200,6.406489706
0.45250,7.016878521
0.45300,5.185712075
0.45350,3.049351221
0.45400,1.523379182
0.45450,0.3026015517
0.45500,-0.3077872637
0.45550,-0.9181760791
0.45600,-1.528564895
0.45650,-2.444148118
0.45700,-3.970120156
0.45750,-5.496092195
0.45800,-6.716869825
0.45850,-7.022064233
0.45900,-7.022064233
0.45950,-6.411675418
0.46000,-5.801286602
0.46050,-5.190897787
0.46100,-4.885703379
0.46150,-3.970120156
0.46200,-2.444148118
0.46250,-1.528564895
0.46300,-1.223370487
0.46350,-1.528564895
0.46400,-0.6129816714
0.46450,0.9129903671
0.46500,3.659740036
0.46550,6.101295298
0.46600,9.458433783
0.46650,13.12076668
0.46700,15.86751634
0.46750,15.25712753
0.46800,11.59479464
0.46850,8.848044967
0.46900,7.627267336
0.46950,6.101295298
0.47000,3.049351221
0.47050,-0.6129816714
0.47100,-3.054536933
0.47150,-5.496092195
0.47200,-8.548036272
0.47250,-12.21036916
0.47300,-14.04153561
0.47350,-14.65192443
0.47400,-15.56750765
0.47450,-16.17789646
0.47500,-14.34673002
0.47550,-11.29478594
0.47600,-8.853230679
0.47650,-7.937647456
0.47700,-6.10648101
0.47750,-3.054536933
0.47800,-0.002592856037
0.47850,1.82857359
0.47900,2.133767998
0.47950,2.744156813
0.48000,3.354545629
0.48050,3.964934444
0.48100,3.964934444
0.48150,2.744156813
0.48200,0.9129903671
0.48250,-0.3077872637
0.48300,-0.9181760791
0.48350,-1.223370487
0.48400,-1.223370487
0.48450,-0.6129816714
0.48500,0.3026015517
0.48550,0.9129903671
0.48600,0.3026015517
0.48650,-0.002592856037
0.48700,0.3026015517
0.48750,1.218184775
0.48800,0.6077959594
0.48850,-0.3077872637
0.48900,-0.6129816714
0.48950,-0.3077872637
0.49000,-0.002592856037
0.49050,-0.3077872637
0.49100,-0.3077872637
0.49150,-0.002592856037
0.49200,0.3026015517
0.49250,-0.3077872637
0.49300,-0.9181760791
0.49350,-0.6129816714
0.49400,-0.002592856037
0.49450,0.3026015517
0.49500,0.3026015517
0.49550,0.3026015517
0.49600,0.9129903671
0.49650,1.523379182
0.49700,1.82857359
0.49750,1.523379182
0.49800,0.9129903671
0.49850,0.6077959594
0.49900,0.9129903671
0.49950,1.523379182
0.50000,2.133767998
0.50050,1.523379182
0.50100,0.9129903671
0.50150,0.6077959594
0.50200,1.218184775
0.50250,1.218184775
0.50300,1.218184775
0.50350,1.218184775
0.50400,1.82857359
0.50450,1.523379182
0.50500,0.3026015517
0.50550,-0.3077872637
0.50600,0.3026015517
0.50650,2.438962406
0.50700,3.049351221
0.50750,2.133767998
0.50800,1.218184775
0.50850,0.6077959594
0.50900,0.6077959594
0.50950,0.9129903671
0.51000,1.218184775
0.51050,0.9129903671
0.51100,-0.002592856037
0.51150,-0.3077872637
0.51200,0.6077959594
0.51250,1.82857359
0.51300,0.6077959594
0.51350,-0.9181760791
0.51400,-0.6129816714
0.51450,0.6077959594
0.51500,1.218184775
0.51550,-0.002592856037
0.51600,-0.6129816714
0.51650,-0.002592856037
0.51700,1.218184775
0.51750,0.9129903671
0.51800,0.3026015517
0.51850,0.6077959594
0.51900,0.6077959594
0.51950,-0.002592856037
0.52000,-0.6129816714
0.52050,-0.3077872637
0.52100,-0.002592856037
0.52150,-0.002592856037
0.52200,-0.002592856037
0.52250,-0.002592856037
0.52300,0.3026015517
0.52350,0.6077959594
0.52400,0.6077959594
0.52450,1.218184775
0.52500,1.218184775
0.52550,0.3026015517
0.52600,-0.6129816714
0.52650,-0.3077872637
0.52700,0.3026015517
0.52750,0.6077959594
0.52800,-0.002592856037
0.52850,-0.9181760791
0.52900,-1.223370487
0.52950,-0.3077872637
0.53000,-0.002592856037
0.53050,-0.002592856037
0.53100,-0.3077872637
0.53150,-1.223370487
0.53200,-1.223370487
0.53250,-0.6129816714
0.53300,-0.3077872637
0.53350,-0.6129816714
0.53400,-0.9181760791
0.53450,-0.9181760791
0.53500,-0.002592856037
0.53550,0.3026015517
0.53600,-0.002592856037
0.53650,-0.9181760791
0.53700,-1.528564895
0.53750,-1.528564895
0.53800,-0.9181760791
0.53850,-0.002592856037
0.53900,1.218184775
0.53950,0.9129903671
0.54000,-0.3077872637
0.54050,-1.833759302
0.54100,-1.833759302
0.54150,-0.002592856037
0.54200,0.9129903671
0.54250,1.523379182
0.54300,1.218184775
0.54350,0.9129903671
0.54400,-0.002592856037
0.54450,-1.528564895
0.54500,-1.528564895
0.54550,-0.3077872637
0.54600,0.6077959594
0.54650,0.3026015517
0.54700,-0.002592856037
0.54750,-0.002592856037
0.54800,0.6077959594
0.54850,1.218184775
0.54900,1.218184775
0.54950,0.9129903671
0.55000,0.6077959594
0.55050,-0.002592856037
0.55100,-0.3077872637
0.55150,-0.002592856037
0.55200,2.438962406
0.55250,5.490906483
0.55300,7.932461744
0.55350,8.54285056
0.55400,7.627267336
0.55450,6.406489706
0.55500,5.490906483
0.55550,4.575323259
0.55600,3.049351221
0.55650,1.218184775
0.55700,0.6077959594
0.55750,1.82857359
0.55800,1.523379182
0.55850,-0.9181760791
0.55900,-4.275314564
0.55950,-5.190897787
0.56000,-4.275314564
0.56050,-3.970120156
0.56100,-5.496092195
0.56150,-7.327258641
0.56200,-7.022064233
0.56250,-5.496092195
0.56300,-3.664925748
0.56350,-3.054536933
0.56400,-3.359731341
0.56450,-3.664925748
0.56500,-3.054536933
0.56550,-1.223370487
0.56600,-0.002592856037
0.56650,-0.3077872637
0.56700,-1.528564895
0.56750,-2.13895371
0.56800,-2.444148118
0.56850,-2.444148118
0.56900,-2.749342525
0.56950,-3.359731341
0.57000,-3.970120156
0.57050,-3.970120156
0.57100,-4.275314564
0.57150,-4.580508972
0.57200,-5.496092195
0.57250,-5.801286602
0.57300,-3.970120156
0.57350,-0.6129816714
0.57400,0.9129903671
0.57450,-0.002592856037
0.57500,-0.9181760791
0.57550,-0.3077872637
0.57600,1.523379182
0.57650,2.438962406
0.57700,2.133767998
0.57750,1.82857359
0.57800,2.133767998
0.57850,1.523379182
0.57900,-0.002592856037
0.57950,-0.6129816714
0.58000,-0.6129816714
0.58050,-0.6129816714
0.58100,-1.528564895
0.58150,-1.833759302
0.58200,-1.223370487
0.58250,-0.002592856037
0.58300,-0.3077872637
0.58350,-1.223370487
0.58400,-0.9181760791
0.58450,1.218184775
0.58500,3.354545629
0.58550,3.659740036
0.58600,2.438962406
0.58650,1.82857359
0.58700,2.133767998
0.58750,2.744156813
0.58800,1.82857359
0.58850,0.9129903671
0.58900,1.218184775
0.58950,2.133767998
0.59000,1.523379182
0.59050,-0.002592856037
0.59100,-0.3077872637
0.59150,0.3026015517
0.59200,1.218184775
0.59250,0.3026015517
0.59300,-0.6129816714
0.59350,-0.002592856037
0.59400,0.9129903671
0.59450,1.218184775
0.59500,0.6077959594
0.59550,-0.002592856037
0.59600,0.3026015517
0.59650,-0.002592856037
0.59700,-1.223370487
0.59750,-1.528564895
0.59800,-0.002592856037
0.59850,1.523379182
0.59900,1.82857359
0.59950,1.218184775
0.60000,1.523379182
0.60050,2.438962406
0.60100,2.744156813
0.60150,1.523379182
0.60200,-0.002592856037
0.60250,-0.002592856037
0.60300,1.218184775
0.60350,1.82857359
0.60400,1.218184775
0.60450,-0.002592856037
0.60500,-0.6129816714
0.60550,-0.6129816714
0.60600,-0.002592856037
0.60650,0.3026015517
0.60700,0.6077959594
0.60750,-0.002592856037
0.60800,-0.6129816714
0.60850,-0.6129816714
0.60900,0.3026015517
0.60950,1.218184775
0.61000,0.9129903671
0.61050,-0.002592856037
0.61100,-0.3077872637
0.61150,-0.002592856037
0.61200,-0.002592856037
0.61250,-0.002592856037
0.61300,-0.002592856037
0.61350,-0.002592856037
0.61400,-0.6129816714
0.61450,-0.002592856037
0.61500,0.6077959594
0.61550,1.523379182
0.61600,1.218184775
0.61650,0.9129903671
0.61700,0.3026015517
0.61750,-0.002592856037
0.61800,-0.002592856037
0.61850,0.9129903671
0.61900,1.218184775
0.61950,-0.002592856037
0.62000,-0.9181760791
0.62050,-0.002592856037
0.62100,2.133767998
0.62150,1.82857359
0.62200,-0.9181760791
0.62250,-2.444148118
0.62300,-0.3077872637
0.62350,1.218184775
0.62400,-0.3077872637
0.62450,-2.749342525
0.62500,-1.833759302
0.62550,1.523379182
0.62600,3.354545629
0.62650,2.744156813
0.62700,2.133767998
0.62750,3.354545629
0.62800,4.575323259
0.62850,3.964934444
0.62900,2.133767998
0.62950,0.6077959594
0.63000,0.6077959594
0.63050,0.9129903671
0.63100,0.9129903671
0.63150,0.6077959594
0.63200,-0.002592856037
0.63250,-0.3077872637
0.63300,-0.6129816714
0.63350,-0.9181760791
0.63400,-0.3077872637
0.63450,0.3026015517
0.63500,0.9129903671
0.63550,0.3026015517
0.63600,-0.002592856037
0.63650,0.6077959594
0.63700,1.523379182
0.63750,1.218184775
0.63800,-0.002592856037
0.63850,-0.002592856037
0.63900,0.6077959594
0.63950,-0.002592856037
0.64000,-1.528564895
0.64050,-2.749342525
0.64100,-2.444148118
0.64150,-2.749342525
0.64200,-3.664925748
0.64250,-3.359731341
0.64300,-1.833759302
0.64350,-1.528564895
0.64400,-3.054536933
0.64450,-3.359731341
0.64500,-1.223370487
0.64550,-0.002592856037
0.64600,-1.833759302
0.64650,-3.970120156
0.64700,-2.444148118
0.64750,0.3026015517
0.64800,0.9129903671
0.64850,-0.3077872637
0.64900,-0.9181760791
0.64950,-0.002592856037
0.65000,-0.002592856037
0.65050,-0.3077872637
0.65100,-0.6129816714
0.65150,-0.002592856037
0.65200,-0.6129816714
0.65250,-2.749342525
0.65300,-3.664925748
0.65350,-2.749342525
0.65400,-1.528564895
0.65450,-1.528564895
0.65500,-2.444148118
0.65550,-3.054536933
0.65600,-3.664925748
0.65650,-3.970120156
0.65700,-3.359731341
0.65750,-2.444148118
0.65800,-1.528564895
0.65850,-1.223370487
0.65900,-0.9181760791
0.65950,-0.002592856037
0.66000,0.6077959594
0.66050,2.133767998
0.66100,3.354545629
0.66150,3.354545629
0.66200,2.438962406
0.66250,1.523379182
0.66300,1.523379182
0.66350,1.218184775
0.66400,0.3026015517
0.66450,-0.002592856037
0.66500,-0.002592856037
0.66550,0.9129903671
0.66600,1.523379182
0.66650,1.218184775
0.66700,0.6077959594
0.66750,0.3026015517
0.66800,-0.002592856037
0.66850,0.3026015517
0.66900,0.6077959594
0.66950,0.6077959594
0.67000,0.9129903671
0.67050,1.218184775
0.67100,1.523379182
0.67150,0.9129903671
0.67200,-0.002592856037
0.67250,-0.002592856037
0.67300,0.6077959594
0.67350,0.9129903671
0.67400,0.3026015517
0.67450,-0.002592856037
0.67500,0.6077959594
0.67550,1.82857359
0.67600,1.82857359
0.67650,0.6077959594
0.67700,-0.002592856037
0.67750,-0.002592856037
0.67800,0.3026015517
0.67850,0.3026015517
0.67900,0.3026015517
0.67950,0.6077959594
0.68000,2.438962406
0.68050,4.270128852
0.68100,5.185712075
0.68150,4.880517667
0.68200,4.270128852
0.68250,4.270128852
0.68300,4.270128852
0.68350,3.964934444
0.68400,3.354545629
0.68450,2.133767998
0.68500,0.9129903671
0.68550,-0.002592856037
0.68600,-0.9181760791
0.68650,-1.223370487
0.68700,-2.13895371
0.68750,-3.664925748
0.68800,-3.970120156
0.68850,-3.054536933
0.68900,-2.13895371
0.68950,-3.054536933
0.69000,-4.275314564
0.69050,-3.970120156
0.69100,-2.444148118
0.69150,-2.444148118
0.69200,-3.970120156
0.69250,-4.580508972
0.69300,-2.749342525
0.69350,-0.3077872637
0.69400,-0.002592856037
0.69450,-0.9181760791
0.69500,-1.223370487
0.69550,-0.6129816714
0.69600,-0.6129816714
0.69650,-2.13895371
0.69700,-3.664925748
0.69750,-3.664925748
0.69800,-2.749342525
0.69850,-1.223370487
0.69900,-0.002592856037
0.69950,0.9129903671
0.70000,0.3026015517
0.70050,-0.3077872637
0.70100,-0.002592856037
0.70150,2.133767998
0.70200,3.964934444
0.70250,3.354545629
0.70300,1.82857359
0.70350,0.6077959594
0.70400,0.6077959594
0.70450,0.6077959594
0.70500,0.9129903671
0.70550,1.82857359
0.70600,2.438962406
0.70650,1.523379182
0.70700,-0.3077872637
0.70750,-1.528564895
0.70800,-0.3077872637
0.70850,1.218184775
0.70900,2.133767998
0.70950,1.82857359
0.71000,1.523379182
0.71050,1.523379182
0.71100,1.218184775
0.71150,0.9129903671
0.71200,1.218184775
0.71250,1.218184775
0.71300,0.6077959594
0.71350,-0.002592856037
0.71400,0.9129903671
0.71450,3.659740036
0.71500,7.322072929
0.71550,9.76362819
0.71600,10.67921141
0.71650,9.458433783
0.71700,7.016878521
0.71750,4.880517667
0.71800,4.575323259
0.71850,4.880517667
0.71900,3.354545629
0.71950,0.3026015517
0.72000,-1.833759302
0.72050,-2.444148118
0.72100,-2.749342525
0.72150,-4.275314564
0.72200,-6.411675418
0.72250,-8.242841864
0.72300,-9.158425087
0.72350,-9.463619495
0.72400,-8.853230679
0.72450,-7.937647456
0.72500,-7.937647456
0.72550,-8.853230679
0.72600,-9.158425087
0.72650,-8.548036272
0.72700,-7.327258641
0.72750,-6.411675418
0.72800,-5.496092195
0.72850,-4.885703379
0.72900,-4.275314564
0.72950,-3.664925748
0.73000,-3.054536933
0.73050,-1.833759302
0.73100,-1.223370487
0.73150,-0.9181760791
0.73200,-0.002592856037
0.73250,1.218184775
0.73300,2.744156813
0.73350,3.049351221
0.73400,2.133767998
0.73450,1.523379182
0.73500,1.218184775
0.73550,0.9129903671
0.73600,0.3026015517
0.73650,-0.002592856037
0.73700,-0.6129816714
0.73750,-0.6129816714
0.73800,0.3026015517
0.73850,2.133767998
0.73900,3.354545629
0.73950,2.744156813
0.74000,0.9129903671
0.74050,-0.3077872637
0.74100,-0.9181760791
0.74150,-0.6129816714
0.74200,0.6077959594
0.74250,2.133767998
0.74300,2.438962406
0.74350,0.9129903671
0.74400,0.3026015517
0.74450,2.133767998
0.74500,4.575323259
0.74550,4.880517667
0.74600,2.744156813
0.74650,1.523379182
0.74700,2.133767998
0.74750,3.354545629
0.74800,3.049351221
0.74850,1.82857359
0.74900,1.218184775
0.74950,1.218184775
0.75000,0.6077959594
0.75050,-0.002592856037
0.75100,-0.6129816714
0.75150,-0.6129816714
0.75200,-0.9181760791
0.75250,-1.223370487
0.75300,-0.6129816714
0.75350,-0.3077872637
0.75400,-0.6129816714
0.75450,-1.833759302
0.75500,-1.833759302
0.75550,-1.528564895
0.75600,-1.528564895
0.75650,-2.13895371
0.75700,-2.13895371
0.75750,-0.9181760791
0.75800,-0.3077872637
0.75850,-0.002592856037
0.75900,-0.3077872637
0.75950,-0.3077872637
0.76000,-0.6129816714
0.76050,-0.6129816714
0.76100,-0.6129816714
0.76150,-0.3077872637
0.76200,-0.3077872637
0.76250,-1.223370487
0.76300,-1.833759302
0.76350,-1.528564895
0.76400,-0.002592856037
0.76450,1.218184775
0.76500,1.82857359
0.76550,1.523379182
0.76600,0.9129903671
0.76650,0.6077959594
0.76700,0.6077959594
0.76750,0.6077959594
0.76800,0.9129903671
0.76850,2.133767998
0.76900,3.659740036
0.76950,3.659740036
0.77000,2.133767998
0.77050,0.6077959594
0.77100,1.523379182
0.77150,3.049351221
0.77200,3.049351221
0.77250,1.218184775
0.77300,-0.002592856037
0.77350,-0.002592856037
0.77400,0.3026015517
0.77450,0.6077959594
0.77500,-0.002592856037
0.77550,-1.223370487
0.77600,-2.13895371
0.77650,-0.9181760791
0.77700,2.438962406
0.77750,6.101295298
0.77800,7.627267336
0.77850,7.322072929
0.77900,6.711684113
0.77950,6.711684113
0.78000,6.406489706
0.78050,5.79610089
0.78100,4.575323259
0.78150,3.049351221
0.78200,1.218184775
0.78250,-0.002592856037
0.78300,-0.3077872637
0.78350,-1.528564895
0.78400,-3.359731341
0.78450,-6.10648101
0.78500,-7.937647456
0.78550,-8.548036272
0.78600,-7.632453049
0.78650,-6.716869825
0.78700,-5.496092195
0.78750,-4.275314564
0.78800,-3.054536933
0.78850,-1.833759302
0.78900,-0.9181760791
0.78950,-0.002592856037
0.79000,0.6077959594
0.79050,1.218184775
0.79100,0.6077959594
0.79150,-0.9181760791
0.79200,-3.054536933
0.79250,-4.275314564
0.79300,-4.580508972
0.79350,-4.580508972
0.79400,-4.580508972
0.79450,-4.275314564
0.79500,-4.275314564
0.79550,-3.664925748
0.79600,-2.444148118
0.79650,-0.3077872637
0.79700,0.6077959594
0.79750,0.9129903671
0.79800,0.6077959594
0.79850,0.3026015517
0.79900,-0.002592856037
0.79950,-0.002592856037
0.80000,-0.3077872637
0.80050,-0.002592856037
0.80100,0.3026015517
0.80150,-0.6129816714
0.80200,-2.444148118
0.80250,-3.359731341
0.80300,-3.359731341
0.80350,-2.749342525
0.80400,-2.749342525
0.80450,-2.749342525
0.80500,-1.833759302
0.80550,-0.3077872637
0.80600,0.3026015517
0.80650,0.6077959594
0.80700,0.9129903671
0.80750,1.82857359
0.80800,2.438962406
0.80850,2.744156813
0.80900,2.744156813
0.80950,3.049351221
0.81000,3.659740036
0.81050,3.964934444
0.81100,4.880517667
0.81150,6.406489706
0.81200,7.932461744
0.81250,7.322072929
0.81300,5.185712075
0.81350,3.964934444
0.81400,4.270128852
0.81450,4.575323259
0.81500,3.659740036
0.81550,2.133767998
0.81600,0.9129903671
0.81650,-0.002592856037
0.81700,-0.6129816714
0.81750,-0.9181760791
0.81800,-0.9181760791
0.81850,-1.528564895
0.81900,-2.444148118
0.81950,-3.359731341
0.82000,-3.359731341
0.82050,-3.359731341
0.82100,-3.359731341
0.82150,-3.054536933
0.82200,-1.528564895
0.82250,-0.002592856037
0.82300,0.3026015517
0.82350,0.3026015517
0.82400,0.6077959594
0.82450,1.218184775
0.82500,1.523379182
0.82550,1.523379182
0.82600,1.523379182
0.82650,0.9129903671
0.82700,0.3026015517
0.82750,0.3026015517
0.82800,0.3026015517
0.82850,-0.6129816714
0.82900,-1.833759302
0.82950,-1.833759302
0.83000,-1.223370487
0.83050,-1.833759302
0.83100,-2.444148118
0.83150,-1.223370487
0.83200,0.3026015517
0.83250,0.6077959594
0.83300,-0.002592856037
0.83350,-0.6129816714
0.83400,-0.3077872637
0.83450,-0.002592856037
0.83500,-0.002592856037
0.83550,1.218184775
0.83600,2.438962406
0.83650,1.218184775
0.83700,-0.6129816714
0.83750,-1.223370487
0.83800,-0.002592856037
0.83850,0.3026015517
0.83900,0.3026015517
0.83950,2.438962406
0.84000,6.406489706
0.84050,8.237656152
0.84100,7.016878521
0.84150,6.101295298
0.84200,8.237656152
0.84250,9.153239375
0.84300,6.101295298
0.84350,2.133767998
0.84400,1.523379182
0.84450,2.744156813
0.84500,1.523379182
0.84550,-1.223370487
0.84600,-3.054536933
0.84650,-2.749342525
0.84700,-2.749342525
0.84750,-4.275314564
0.84800,-5.496092195
0.84850,-5.190897787
0.84900,-4.275314564
0.84950,-3.970120156
0.85000,-4.580508972
0.85050,-4.275314564
0.85100,-2.749342525
0.85150,-0.6129816714
0.85200,-0.002592856037
0.85250,-1.223370487
0.85300,-3.054536933
0.85350,-3.054536933
0.85400,-1.223370487
0.85450,-0.9181760791
0.85500,-3.054536933
0.85550,-4.885703379
0.85600,-3.970120156
0.85650,-1.528564895
0.85700,-0.002592856037
0.85750,-0.002592856037
0.85800,0.3026015517
0.85850,0.6077959594
0.85900,0.3026015517
0.85950,0.3026015517
0.86000,0.3026015517
0.86050,-0.002592856037
0.86100,-1.528564895
0.86150,-3.359731341
0.86200,-3.664925748
0.86250,-2.444148118
0.86300,-1.223370487
0.86350,-0.9181760791
0.86400,-0.3077872637
0.86450,-0.002592856037
0.86500,0.6077959594
0.86550,1.82857359
0.86600,3.354545629
0.86650,4.880517667
0.86700,6.101295298
0.86750,6.101295298
0.86800,5.185712075
0.86850,3.659740036
0.86900,2.438962406
0.86950,1.82857359
0.87000,0.6077959594
0.87050,-0.3077872637
0.87100,0.3026015517
0.87150,3.659740036
0.87200,7.627267336
0.87250,7.932461744
0.87300,5.490906483
0.87350,3.659740036
0.87400,4.270128852
0.87450,4.880517667
0.87500,3.049351221
0.87550,0.6077959594
0.87600,-1.223370487
0.87650,-3.970120156
0.87700,-8.242841864
0.87750,-11.59998035
0.87800,-11.90517476
0.87850,-10.68439713
0.87900,-10.37920272
0.87950,-10.68439713
0.88000,-10.07400831
0.88050,-9.158425087
0.88100,-9.158425087
0.88150,-8.548036272
0.88200,-6.411675418
0.88250,-3.359731341
0.88300,-1.833759302
0.88350,-2.444148118
0.88400,-2.749342525
0.88450,-1.528564895
0.88500,-0.002592856037
0.88550,-0.002592856037
0.88600,-1.528564895
0.88650,-2.749342525
0.88700,-2.444148118
0.88750,-1.223370487
0.88800,-0.9181760791
0.88850,-1.223370487
0.88900,-1.223370487
0.88950,-0.002592856037
0.89000,0.3026015517
0.89050,-0.9181760791
0.89100,-2.749342525
0.89150,-2.13895371
0.89200,0.6077959594
0.89250,3.659740036
0.89300,4.270128852
0.89350,3.049351221
0.89400,2.438962406
0.89450,3.049351221
0.89500,3.659740036
0.89550,3.049351221
0.89600,1.82857359
0.89650,2.438962406
0.89700,5.490906483
0.89750,8.237656152
0.89800,8.237656152
0.89850,6.406489706
0.89900,5.185712075
0.89950,5.79610089
0.90000,6.101295298
0.90050,3.964934444
0.90100,1.218184775
0.90150,0.6077959594
0.90200,0.9129903671
0.90250,0.3026015517
0.90300,-0.9181760791
0.90350,-1.833759302
0.90400,-1.528564895
0.90450,-0.9181760791
0.90500,-0.6129816714
0.90550,-0.002592856037
0.90600,0.6077959594
0.90650,1.218184775
0.90700,1.82857359
0.90750,4.270128852
0.90800,8.54285056
0.90850,11.59479464
0.90900,10.67921141
0.90950,7.322072929
0.91000,3.964934444
0.91050,3.049351221
0.91100,3.049351221
0.91150,2.438962406
0.91200,-0.3077872637
0.91250,-3.970120156
0.91300,-6.411675418
0.91350,-6.411675418
0.91400,-5.801286602
0.91450,-7.327258641
0.91500,-9.768813902
0.91550,-10.07400831
0.91600,-7.327258641
0.91650,-4.580508972
0.91700,-3.664925748
0.91750,-3.970120156
0.91800,-3.359731341
0.91850,-2.444148118
0.91900,-1.528564895
0.91950,-0.3077872637
0.92000,1.523379182
0.92050,2.744156813
0.92100,2.744156813
0.92150,2.438962406
0.92200,3.964934444
0.92250,6.406489706
0.92300,7.932461744
0.92350,8.237656152
0.92400,8.848044967
0.92450,9.76362819
0.92500,9.76362819
0.92550,8.54285056
0.92600,7.016878521
0.92650,5.490906483
0.92700,3.354545629
0.92750,0.9129903671
0.92800,-0.9181760791
0.92850,-3.054536933
0.92900,-5.190897787
0.92950,-5.496092195
0.93000,-4.275314564
0.93050,-3.359731341
0.93100,-4.275314564
0.93150,-5.801286602
0.93200,-6.716869825
0.93250,-6.716869825
0.93300,-5.801286602
0.93350,-3.054536933
0.93400,0.3026015517
0.93450,2.438962406
0.93500,2.133767998
0.93550,3.354545629
0.93600,7.322072929
0.93650,10.37401701
0.93700,8.54285056
0.93750,4.270128852
0.93800,3.659740036
0.93850,6.101295298
0.93900,6.406489706
0.93950,3.659740036
0.94000,1.523379182
0.94050,1.218184775
0.94100,-0.002592856037
0.94150,-3.054536933
0.94200,-6.716869825
0.94250,-9.463619495
0.94300,-11.59998035
0.94350,-13.12595239
0.94400,-13.7363412
0.94450,-14.04153561
0.94500,-15.56750765
0.94550,-17.3986741
0.94600,-17.09347969
0.94650,-14.34673002
0.94700,-11.90517476
0.94750,-10.07400831
0.94800,-7.937647456
0.94850,-4.275314564
0.94900,-0.9181760791
0.94950,0.9129903671
0.95000,2.438962406
0.95050,3.659740036
0.95100,3.659740036
0.95150,3.049351221
0.95200,3.049351221
0.95250,3.049351221
0.95300,2.133767998
0.95350,0.3026015517
0.95400,-0.002592856037
0.95450,-0.002592856037
0.95500,0.3026015517
0.95550,-0.002592856037
0.95600,-0.002592856037
0.95650,1.218184775
0.95700,1.82857359
0.95750,0.9129903671
0.95800,0.3026015517
0.95850,0.6077959594
0.95900,1.523379182
0.95950,2.133767998
0.96000,2.133767998
0.96050,2.133767998
0.96100,3.049351221
0.96150,4.270128852
0.96200,4.880517667
0.96250,4.575323259
0.96300,3.354545629
0.96350,2.438962406
0.96400,2.438962406
0.96450,2.133767998
0.96500,2.133767998
0.96550,2.438962406
0.96600,2.744156813
0.96650,2.744156813
0.96700,2.133767998
0.96750,1.523379182
0.96800,1.82857359
0.96850,1.82857359
0.96900,0.9129903671
0.96950,-0.002592856037
0.97000,-0.3077872637
0.97050,-0.6129816714
0.97100,-0.9181760791
0.97150,-0.9181760791
0.97200,-0.6129816714
0.97250,0.3026015517
0.97300,1.82857359
0.97350,2.438962406
0.97400,1.523379182
0.97450,-0.6129816714
0.97500,-2.13895371
0.97550,-1.528564895
0.97600,-0.002592856037
0.97650,0.3026015517
0.97700,-0.002592856037
0.97750,-0.6129816714
0.97800,-0.3077872637
0.97850,-0.002592856037
0.97900,0.3026015517
0.97950,1.218184775
0.98000,2.744156813
0.98050,3.659740036
0.98100,3.964934444
0.98150,4.575323259
0.98200,4.880517667
0.98250,4.880517667
0.98300,3.964934444
0.98350,2.438962406
0.98400,1.523379182
0.98450,2.133767998
0.98500,2.438962406
0.98550,1.218184775
0.98600,-0.3077872637
0.98650,-1.223370487
0.98700,-0.6129816714
0.98750,-0.002592856037
0.98800,-0.3077872637
0.98850,-0.002592856037
0.98900,1.218184775
0.98950,1.523379182
0.99000,1.218184775
0.99050,2.133767998
0.99100,3.659740036
0.99150,2.744156813
0.99200,0.6077959594
0.99250,3.659740036
0.99300,14.64673871
0.99350,26.54932061
0.99400,30.21165351
0.99450,27.15970943
0.99500,25.9389318
0.99550,27.15970943
0.99600,24.41295976
0.99650,14.0363499
0.99700,3.049351221
0.99750,-2.749342525
0.99800,-5.496092195
0.99850,-10.07400831
0.99900,-16.48309087
0.99950,-21.6713958
1.00000,-24.41814547
1.00050,-26.24931192
1.00100,-28.69086718
1.00150,-30.21683922
1.00200,-29.91164481
1.00250,-27.77528396
1.00300,-23.80775666
1.00350,-17.7038685
1.00400,-11.90517476
1.00450,-8.548036272
1.00500,-7.022064233
1.00550,-5.496092195
1.00600,-3.970120156
1.00650,-3.054536933
1.00700,-2.13895371
1.00750,-0.3077872637
1.00800,2.744156813
1.00850,5.490906483
1.00900,5.79610089
1.00950,3.964934444
1.01000,1.218184775
1.01050,-0.3077872637
1.01100,-1.833759302
1.01150,-2.13895371
1.01200,-1.223370487
1.01250,-0.6129816714
1.01300,-0.9181760791
1.01350,-1.528564895
1.01400,-0.9181760791
1.01450,-0.002592856037
1.01500,-0.002592856037
1.01550,-0.9181760791
1.01600,-0.002592856037
1.01650,2.438962406
1.01700,4.575323259
1.01750,3.964934444
1.01800,2.438962406
1.01850,2.438962406
1.01900,4.575323259
1.01950,6.101295298
1.02000,6.101295298
1.02050,4.880517667
1.02100,3.354545629
1.02150,1.82857359
1.02200,0.9129903671
1.02250,1.218184775
1.02300,2.438962406
1.02350,3.659740036
1.02400,3.659740036
1.02450,2.438962406
1.02500,0.9129903671
1.02550,0.3026015517
1.02600,0.6077959594
1.02650,0.6077959594
1.02700,-0.3077872637
1.02750,-1.528564895
1.02800,-2.13895371
1.02850,-2.749342525
1.02900,-4.275314564
1.02950,-4.885703379
1.03000,-1.833759302
1.03050,3.354545629
1.03100,7.932461744
1.03150,9.153239375
1.03200,8.848044967
1.03250,9.458433783
1.03300,10.37401701
1.03350,10.37401701
1.03400,8.848044967
1.03450,6.711684113
1.03500,4.270128852
1.03550,3.964934444
1.03600,5.79610089
1.03650,7.322072929
1.03700,5.185712075
1.03750,0.3026015517
1.03800,-2.749342525
1.03850,-3.664925748
1.03900,-4.580508972
1.03950,-5.496092195
1.04000,-3.970120156
1.04050,-0.002592856037
1.04100,3.049351221
1.04150,3.354545629
1.04200,2.133767998
1.04250,1.523379182
1.04300,0.9129903671
1.04350,-0.6129816714
1.04400,-3.054536933
1.04450,-4.580508972
1.04500,-5.801286602
1.04550,-7.327258641
1.04600,-8.242841864
1.04650,-8.242841864
1.04700,-8.548036272
1.04750,-9.768813902
1.04800,-10.68439713
1.04850,-10.37920272
1.04900,-10.07400831
1.04950,-9.158425087
1.05000,-5.801286602
1.05050,-0.002592856037
1.05100,7.016878521
1.05150,11.28960023
1.05200,12.51037786
1.05250,11.59479464
1.05300,10.37401701
1.05350,8.848044967
1.05400,7.016878521
1.05450,5.490906483
1.05500,4.270128852
1.05550,3.354545629
1.05600,1.523379182
1.05650,-0.9181760791
1.05700,-2.749342525
1.05750,-2.444148118
1.05800,-1.223370487
1.05850,-2.749342525
1.05900,-6.10648101
1.05950,-7.632453049
1.06000,-7.632453049
1.06050,-9.158425087
1.06100,-12.51556357
1.06150,-12.21036916
1.06200,-4.580508972
1.06250,4.270128852
1.06300,7.627267336
1.06350,5.490906483
1.06400,4.575323259
1.06450,7.627267336
1.06500,8.848044967
1.06550,6.406489706
1.06600,3.049351221
1.06650,2.438962406
1.06700,2.133767998
1.06750,-0.002592856037
1.06800,-3.359731341
1.06850,-3.970120156
1.06900,-3.664925748
1.06950,-5.801286602
1.07000,-10.98959153
1.07050,-14.65192443
1.07100,-14.65192443
1.07150,-13.12595239
1.07200,-12.21036916
1.07250,-11.29478594
1.07300,-8.548036272
1.07350,-4.275314564
1.07400,-1.223370487
1.07450,0.9129903671
1.07500,4.880517667
1.07550,9.458433783
1.07600,11.28960023
1.07650,9.458433783
1.07700,8.237656152
1.07750,9.153239375
1.07800,9.153239375
1.07850,5.490906483
1.07900,0.6077959594
1.07950,-0.6129816714
1.08000,0.3026015517
1.08050,-0.002592856037
1.08100,-3.359731341
1.08150,-7.327258641
1.08200,-9.158425087
1.08250,-10.07400831
1.08300,-10.98959153
1.08350,-10.68439713
1.08400,-9.463619495
1.08450,-8.242841864
1.08500,-8.242841864
1.08550,-6.716869825
1.08600,-2.13895371
1.08650,3.049351221
1.08700,6.101295298
1.08750,6.406489706
1.08800,6.101295298
1.08850,5.79610089
1.08900,6.406489706
1.08950,7.932461744
1.09000,10.0688226
1.09050,11.28960023
1.09100,10.37401701
1.09150,7.932461744
1.09200,5.490906483
1.09250,3.354545629
1.09300,0.9129903671
1.09350,-1.528564895
1.09400,-3.970120156
1.09450,-7.022064233
1.09500,-10.07400831
1.09550,-9.768813902
1.09600,-5.190897787
1.09650,0.9129903671
1.09700,4.575323259
1.09750,5.490906483
1.09800,5.185712075
1.09850,4.270128852
1.09900,4.270128852
1.09950,9.458433783
1.10000,19.83504364
1.10050,28.38048706
1.10100,28.68568147
1.10150,24.41295976
1.10200,22.27659891
1.10250,23.80257094
1.10300,23.19218213
1.10350,18.0038772
1.10400,10.98440582
1.10450,3.964934444
1.10500,-3.054536933
1.10550,-10.07400831
1.10600,-15.26231324
1.10650,-20.75581258
1.10700,-27.16489514
1.10750,-32.35320007
1.10800,-32.35320007
1.10850,-28.08047836
1.10900,-23.80775666
1.10950,-19.84022936
1.11000,-13.7363412
1.11050,-7.327258641
1.11100,-3.359731341
1.11150,-0.002592856037
1.11200,6.101295298
1.11250,12.20518345
1.11300,14.34154431
1.11350,12.20518345
1.11400,9.153239375
1.11450,6.101295298
1.11500,2.438962406
1.11550,-0.002592856037
1.11600,0.9129903671
1.11650,1.82857359
1.11700,-0.9181760791
1.11750,-6.411675418
1.11800,-9.158425087
1.11850,-8.853230679
1.11900,-9.463619495
1.11950,-11.29478594
1.12000,-10.98959153
1.12050,-8.548036272
1.12100,-7.937647456
1.12150,-10.07400831
1.12200,-11.59998035
1.12250,-11.29478594
1.12300,-10.37920272
1.12350,-10.37920272
1.12400,-10.07400831
1.12450,-10.98959153
1.12500,-13.12595239
1.12550,-12.82075798
1.12600,-8.548036272
1.12650,-3.054536933
1.12700,-1.528564895
1.12750,-2.749342525
1.12800,-3.664925748
1.12850,-3.970120156
1.12900,-5.190897787
1.12950,-4.275314564
1.13000,2.438962406
1.13050,10.37401701
1.13100,11.59479464
1.13150,7.016878521
1.13200,4.880517667
1.13250,7.627267336
1.13300,7.932461744
1.13350,1.82857359
1.13400,-5.190897787
1.13450,-7.022064233
1.13500,-7.022064233
1.13550,-8.853230679
1.13600,-11.29478594
1.13650,-10.68439713
1.13700,-8.853230679
1.13750,-9.768813902
1.13800,-11.59998035
1.13850,-7.937647456
1.13900,1.218184775
1.13950,8.237656152
1.14000,8.54285056
1.14050,6.101295298
1.14100,7.322072929
1.14150,11.59479464
1.14200,14.34154431
1.14250,14.95193312
1.14300,16.17271075
1.14350,17.69868279
1.14400,15.86751634
1.14450,11.59479464
1.14500,10.0688226
1.14550,12.20518345
1.14600,13.12076668
1.14650,9.76362819
1.14700,5.185712075
1.14750,3.049351221
1.14800,2.744156813
1.14850,0.6077959594
1.14900,-0.3077872637
1.14950,2.438962406
1.15000,7.627267336
1.15050,9.76362819
1.15100,7.322072929
1.15150,3.354545629
1.15200,1.523379182
1.15250,1.218184775
1.15300,2.133767998
1.15350,4.880517667
1.15400,7.932461744
1.15450,8.848044967
1.15500,8.54285056
1.15550,9.153239375
1.15600,11.28960023
1.15650,13.42596108
1.15700,15.25712753
1.15750,16.78309957
1.15800,17.08829398
1.15850,16.17271075
1.15900,15.56232194
1.15950,15.56232194
1.16000,13.42596108
1.16050,8.237656152
1.16100,2.133767998
1.16150,-2.749342525
1.16200,-8.548036272
1.16250,-12.51556357
1.16300,-7.022064233
1.16350,12.20518345
1.16400,36.31554166
1.16450,46.38695711
1.16500,36.62073607
1.16550,19.52984924
1.16600,11.28960023
1.16650,16.17271075
1.16700,26.24412621
1.16750,32.65320877
1.16800,30.21165351
1.16850,19.22465483
1.16900,4.270128852
1.16950,-8.242841864
1.17000,-15.87270206
1.17050,-19.84022936
1.17100,-25.02853429
1.17150,-32.65839448
1.17200,-39.98306026
1.17250,-44.56097638
1.17300,-48.52850368
1.17350,-54.63239183
1.17400,-61.0414744
1.17450,-63.48302966
1.17500,-59.51550236
1.17550,-52.49603098
1.17600,-45.78175401
1.17650,-40.89864349
1.17700,-35.71033856
1.17750,-29.91164481
1.17800,-23.50256225
1.17850,-16.78828528
1.17900,-9.463619495
1.17950,-3.054536933
1.18000,1.82857359
1.18050,7.016878521
1.18100,12.20518345
1.18150,14.95193312
1.18200,14.0363499
1.18250,13.73115549
1.18300,19.22465483
1.18350,27.15970943
1.18400,29.60126469
1.18450,25.02334858
1.18500,21.66621009
1.18550,23.49737654
1.18600,24.41295976
1.18650,18.61426601
1.18700,10.98440582
1.18750,10.0688226
1.18800,13.12076668
1.18850,11.28960023
1.18900,2.438962406
1.18950,-6.10648101
1.19000,-10.07400831
1.19050,-13.12595239
1.19100,-18.92464613
1.19150,-23.80775666
1.19200,-24.41814547
1.19250,-23.80775666
1.19300,-24.72333988
1.19350,-23.50256225
1.19400,-15.56750765
1.19450,-5.190897787
1.19500,-0.002592856037
1.19550,0.9129903671
1.19600,3.659740036
1.19650,10.37401701
1.19700,16.17271075
1.19750,16.78309957
1.19800,14.0363499
1.19850,10.98440582
1.19900,7.627267336
1.19950,3.659740036
1.20000,-0.002592856037
1.20050,-3.054536933
1.20100,-7.632453049
1.20150,-10.68439713
1.20200,-9.768813902
1.20250,-6.716869825
1.20300,-6.411675418
1.20350,-7.937647456
1.20400,-5.496092195
1.20450,1.82857359
1.20500,7.322072929
1.20550,7.016878521
1.20600,7.016878521
1.20650,13.73115549
1.20700,22.88698772
1.20750,27.46490384
1.20800,30.82204232
1.20850,39.97787455
1.20900,51.27006764
1.20950,52.18565086
1.21000,40.58826337
1.21050,27.77009824
1.21100,21.9714045
1.21150,18.30907161
1.21200,8.848044967
1.21250,-3.664925748
1.21300,-13.43114679
1.21350,-21.3662014
1.21400,-30.82722803
1.21450,-39.37267145
1.21500,-43.34019875
1.21550,-44.56097638
1.21600,-46.69733723
1.21650,-47.00253164
1.21700,-39.37267145
1.21750,-25.6389231
1.21800,-14.95711883
1.21850,-12.82075798
1.21900,-14.34673002
1.21950,-10.68439713
1.22000,-2.13895371
1.22050,4.270128852
1.22100,6.711684113
1.22150,8.54285056
1.22200,12.20518345
1.22250,14.95193312
1.22300,13.73115549
1.22350,8.848044967
1.22400,5.490906483
1.22450,5.79610089
1.22500,7.627267336
1.22550,7.932461744
1.22600,7.016878521
1.22650,4.880517667
1.22700,1.523379182
1.22750,-3.054536933
1.22800,-6.411675418
1.22850,-6.10648101
1.22900,-4.275314564
1.22950,-4.580508972
1.23000,-7.327258641
1.23050,-9.768813902
1.23100,-9.768813902
1.23150,-8.548036272
1.23200,-7.632453049
1.23250,-5.496092195
1.23300,-0.002592856037
1.23350,6.101295298
1.23400,8.54285056
1.23450,6.711684113
1.23500,4.575323259
1.23550,5.79610089
1.23600,9.153239375
1.23650,11.89998904
1.23700,12.20518345
1.23750,9.76362819
1.23800,7.322072929
1.23850,6.101295298
1.23900,6.406489706
1.23950,5.79610089
1.24000,2.744156813
1.24050,-0.002592856037
1.24100,-2.749342525
1.24150,-6.411675418
1.24200,-8.853230679
1.24250,-1.833759302
1.24300,14.64673871
1.24350,28.38048706
1.24400,27.77009824
1.24450,22.27659891
1.24500,28.38048706
1.24550,46.08176271
1.24600,55.23759494
1.24650,46.69215152
1.24700,32.04281995
1.24750,25.32854298
1.24800,21.66621009
1.24850,10.98440582
1.24900,-3.970120156
1.24950,-14.65192443
1.25000,-21.97659021
1.25050,-32.65839448
1.25100,-44.86617079
1.25150,-48.22330927
1.25200,-41.81422671
1.25250,-35.71033856
1.25300,-36.01553296
1.25350,-35.09994974
1.25400,-25.3337287
1.25450,-10.68439713
1.25500,0.6077959594
1.25550,8.54285056
1.25600,18.61426601
1.25650,32.04281995
1.25700,43.02981863
1.25750,44.25059626
1.25800,37.8415137
1.25850,28.07529265
1.25900,18.30907161
1.25950,7.627267336
1.26000,-0.9181760791
1.26050,-4.580508972
1.26100,-6.10648101
1.26150,-12.82075798
1.26200,-26.24931192
1.26250,-36.32072737
1.26300,-32.96358889
1.26350,-18.00906291
1.26400,-1.223370487
1.26450,11.59479464
1.26500,21.66621009
1.26550,30.21165351
1.26600,34.48437521
1.26650,33.8739864
1.26700,30.21165351
1.26750,24.10776535
1.26800,13.73115549
1.26850,-0.3077872637
1.26900,-14.34673002
1.26950,-26.24931192
1.27000,-37.84669941
1.27050,-49.1388925
1.27100,-56.46355828
1.27150,-59.51550236
1.27200,-61.95705762
1.27250,-64.70380729
1.27300,-63.48302966
1.27350,-54.32719743
1.27400,-40.89864349
1.27450,-30.21683922
1.27500,-23.50256225
1.27550,-14.34673002
1.27600,2.133767998
1.27650,25.02334858
1.27700,46.38695711
1.27750,58.28953901
1.27800,59.20512224
1.27850,54.32201171
1.27900,49.43890119
1.27950,46.08176271
1.28000,41.809041
1.28050,34.17918081
1.28100,23.19218213
1.28150,11.59479464
1.28200,1.218184775
1.28250,-8.548036272
1.28300,-19.84022936
1.28350,-31.43761685
1.28400,-39.37267145
1.28450,-39.37267145
1.28500,-32.35320007
1.28550,-24.11295106
1.28600,-18.61945173
1.28650,-14.34673002
1.28700,-7.022064233
1.28750,3.964934444
1.28800,13.12076668
1.28850,15.25712753
1.28900,9.76362819
1.28950,1.523379182
1.29000,-4.580508972
1.29050,-7.937647456
1.29100,-8.853230679
1.29150,-5.496092195
1.29200,1.218184775
1.29250,5.79610089
1.29300,3.049351221
1.29350,-3.359731341
1.29400,-5.190897787
1.29450,-1.223370487
1.29500,-0.3077872637
1.29550,-6.411675418
1.29600,-10.68439713
1.29650,-5.801286602
1.29700,1.218184775
1.29750,1.523379182
1.29800,-2.749342525
1.29850,-4.580508972
1.29900,-2.749342525
1.29950,-2.749342525
1.30000,-3.054536933
1.30050,2.744156813
1.30100,10.67921141
1.30150,10.98440582
1.30200,2.744156813
1.30250,-2.749342525
1.30300,-2.13895371
1.30350,-0.6129816714
1.30400,-0.9181760791
1.30450,4.880517667
1.30500,21.05582128
1.30550,36.92593048
1.30600,39.67268015
1.30650,32.04281995
1.30700,25.02334858
1.30750,24.10776535
1.30800,24.71815417
1.30850,23.19218213
1.30900,17.69868279
1.30950,9.76362819
1.31000,1.82857359
1.31050,-0.3077872637
1.31100,3.049351221
1.31150,7.322072929
1.31200,4.575323259
1.31250,-4.580508972
1.31300,-13.7363412
1.31350,-15.87270206
1.31400,-10.68439713
1.31450,-3.359731341
1.31500,-0.002592856037
1.31550,-3.359731341
1.31600,-10.68439713
1.31650,-16.17789646
1.31700,-16.48309087
1.31750,-13.43114679
1.31800,-10.37920272
1.31850,-8.853230679
1.31900,-9.158425087
1.31950,-10.98959153
1.32000,-13.43114679
1.32050,-15.87270206
1.32100,-18.31425732
1.32150,-20.14542376
1.32200,-20.14542376
1.32250,-19.84022936
1.32300,-21.97659021
1.32350,-24.72333988
1.32400,-22.58697903
1.32450,-15.26231324
1.32500,-9.768813902
1.32550,-8.853230679
1.32600,-3.664925748
1.32650,10.67921141
1.32700,24.41295976
1.32750,24.71815417
1.32800,17.69868279
1.32850,18.61426601
1.32900,29.9064591
1.32950,38.14670811
1.33000,36.92593048
1.33050,34.48437521
1.33100,37.23112488
1.33150,39.06229133
1.33200,32.95840318
1.33250,22.58179331
1.33300,14.34154431
1.33350,9.153239375
1.33400,5.185712075
1.33450,3.354545629
1.33500,3.659740036
1.33550,3.659740036
1.33600,2.133767998
1.33650,0.9129903671
1.33700,-0.002592856037
1.33750,-2.749342525
1.33800,-5.801286602
1.33850,-6.716869825
1.33900,-8.548036272
1.33950,-17.09347969
1.34000,-28.38567277
1.34050,-34.79475533
1.34100,-35.71033856
1.34150,-37.541505
1.34200,-39.37267145
1.34250,-32.35320007
1.34300,-17.7038685
1.34350,-8.242841864
1.34400,-8.548036272
1.34450,-8.548036272
1.34500,-0.002592856037
1.34550,9.76362819
1.34600,11.89998904
1.34650,7.627267336
1.34700,1.82857359
1.34750,-3.970120156
1.34800,-10.68439713
1.34850,-15.26231324
1.34900,-17.3986741
1.34950,-20.14542376
1.35000,-23.50256225
1.35050,-22.28178462
1.35100,-14.04153561
1.35150,-3.359731341
1.35200,7.016878521
1.35250,18.0038772
1.35300,26.24412621
1.35350,25.9389318
1.35400,23.19218213
1.35450,29.9064591
1.35500,46.99734593
1.35550,57.98434461
1.35600,52.79603968
1.35650,41.19865218
1.35700,35.39995844
1.35750,33.56879199
1.35800,26.54932061
1.35850,14.64673871
1.35900,4.880517667
1.35950,-0.9181760791
1.36000,-6.716869825
1.36050,-13.7363412
1.36100,-19.22984054
1.36150,-22.89217343
1.36200,-24.41814547
1.36250,-21.97659021
1.36300,-15.87270206
1.36350,-9.768813902
1.36400,-5.496092195
1.36450,-2.444148118
1.36500,-0.002592856037
1.36550,0.9129903671
1.36600,-0.002592856037
1.36650,-1.223370487
1.36700,-3.054536933
1.36750,-4.580508972
1.36800,-2.749342525
1.36850,3.659740036
1.36900,9.458433783
1.36950,7.322072929
1.37000,-0.9181760791
1.37050,-9.463619495
1.37100,-14.65192443
1.37150,-17.09347969
1.37200,-15.87270206
1.37250,-12.82075798
1.37300,-12.82075798
1.37350,-14.95711883
1.37400,-11.59998035
1.37450,-1.528564895
1.37500,2.133767998
1.37550,-4.885703379
1.37600,-8.853230679
1.37650,6.101295298
1.37700,28.38048706
1.37750,33.26359758
1.37800,18.91946042
1.37850,6.711684113
1.37900,9.153239375
1.37950,13.73115549
1.38000,10.0688226
1.38050,5.185712075
1.38100,5.185712075
1.38150,2.744156813
1.38200,-7.937647456
1.38250,-18.61945173
1.38300,-18.92464613
1.38350,-14.34673002
1.38400,-17.7038685
1.38450,-28.69086718
1.38500,-35.71033856
1.38550,-32.96358889
1.38600,-28.08047836
1.38650,-28.69086718
1.38700,-33.87917211
1.38750,-38.76228263
1.38800,-41.2038379
1.38850,-42.11942112
1.38900,-38.76228263
1.38950,-29.301256
1.39000,-17.09347969
1.39050,-9.158425087
1.39100,-7.022064233
1.39150,-3.664925748
1.39200,5.490906483
1.39250,15.86751634
1.39300,19.22465483
1.39350,16.17271075
1.39400,14.34154431
1.39450,15.56232194
1.39500,14.95193312
1.39550,11.59479464
1.39600,8.848044967
1.39650,9.76362819
1.39700,9.153239375
1.39750,4.575323259
1.39800,0.3026015517
1.39850,0.6077959594
1.39900,2.133767998
1.39950,2.438962406
1.40000,5.185712075
1.40050,14.34154431
1.40100,23.80257094
1.40150,25.9389318
1.40200,21.36101568
1.40250,18.61426601
1.40300,18.0038772
1.40350,13.42596108
1.40400,5.79610089
1.40450,2.744156813
1.40500,4.880517667
1.40550,2.133767998
1.40600,-7.327258641
1.40650,-11.29478594
1.40700,-0.9181760791
1.40750,14.0363499
1.40800,19.52984924
1.40850,15.56232194
1.40900,13.73115549
1.40950,16.17271075
1.41000,14.95193312
1.41050,7.932461744
1.41100,4.270128852
1.41150,11.89998904
1.41200,24.71815417
1.41250,32.04281995
1.41300,29.9064591
1.41350,23.19218213
1.41400,17.69868279
1.41450,15.86751634
1.41500,15.56232194
1.41550,13.42596108
1.41600,7.932461744
1.41650,-0.002592856037
1.41700,-9.158425087
1.41750,-20.75581258
1.41800,-33.87917211
1.41850,-45.4765596
1.41900,-54.02200302
1.41950,-59.82069677
1.42000,-60.73627999
1.42050,-53.4116142
1.42100,-39.98306026
1.42150,-28.69086718
1.42200,-25.02853429
1.42250,-22.58697903
1.42300,-14.34673002
1.42350,-2.749342525
1.42400,4.575323259
1.42450,6.711684113
1.42500,7.322072929
1.42550,7.932461744
1.42600,6.406489706
1.42650,2.744156813
1.42700,0.6077959594
1.42750,0.9129903671
1.42800,2.438962406
1.42850,4.575323259
1.42900,7.627267336
1.42950,9.153239375
1.43000,7.932461744
1.43050,7.322072929
1.43100,10.37401701
1.43150,13.42596108
1.43200,11.59479464
1.43250,9.153239375
1.43300,13.42596108
1.43350,22.27659891
1.43400,26.85451502
1.43450,23.19218213
1.43500,18.0038772
1.43550,14.95193312
1.43600,10.37401701
1.43650,4.270128852
1.43700,2.744156813
1.43750,8.54285056
1.43800,14.95193312
1.43850,15.25712753
1.43900,13.73115549
1.43950,16.78309957
1.44000,23.80257094
1.44050,29.29607028
1.44100,32.95840318
1.44150,37.8415137
1.44200,39.97787455
1.44250,32.95840318
1.44300,17.69868279
1.44350,2.744156813
1.44400,-8.853230679
1.44450,-19.84022936
1.44500,-31.74281126
1.44550,-40.89864349
1.44600,-44.56097638
1.44650,-45.78175401
1.44700,-47.61292046
1.44750,-48.22330927
1.44800,-45.78175401
1.44850,-40.89864349
1.44900,-35.09994974
1.44950,-29.301256
1.45000,-23.19736784
1.45050,-18.00906291
1.45100,-15.26231324
1.45150,-14.95711883
1.45200,-14.65192443
1.45250,-12.82075798
1.45300,-10.07400831
1.45350,-7.327258641
1.45400,-4.580508972
1.45450,0.9129903671
1.45500,9.76362819
1.45550,16.78309957
1.45600,16.47790516
1.45650,11.89998904
1.45700,11.89998904
1.45750,19.22465483
1.45800,23.80257094
1.45850,19.52984924
1.45900,15.86751634
1.45950,25.9389318
1.46000,46.38695711
1.46050,57.6791502
1.46100,48.21812356
1.46150,29.9064591
1.46200,23.49737654
1.46250,36.01034725
1.46300,53.7116229
1.46350,60.73109428
1.46400,51.88045645
1.46450,36.01034725
1.46500,22.88698772
1.46550,15.56232194
1.46600,8.848044967
1.46650,-1.528564895
1.46700,-14.04153561
1.46750,-23.50256225
1.46800,-29.91164481
1.46850,-38.76228263
1.46900,-50.97005894
1.46950,-61.0414744
1.47000,-65.3141961
1.47050,-66.22977933
1.47100,-68.67133459
1.47150,-68.976529
1.47200,-59.82069677
1.47250,-41.5090323
1.47300,-21.3662014
1.47350,-5.190897787
1.47400,7.932461744
1.47450,18.30907161
1.47500,23.49737654
1.47550,25.9389318
1.47600,30.51684791
1.47650,36.31554166
1.47700,33.26359758
1.47750,18.61426601
1.47800,2.744156813
1.47850,-2.444148118
1.47900,-2.13895371
1.47950,-7.937647456
1.48000,-20.14542376
1.48050,-24.41814547
1.48100,-14.34673002
1.48150,0.3026015517
1.48200,7.016878521
1.48250,6.406489706
1.48300,6.101295298
1.48350,7.016878521
1.48400,3.049351221
1.48450,-4.580508972
1.48500,-8.242841864
1.48550,-5.496092195
1.48600,-4.885703379
1.48650,-15.26231324
1.48700,-31.74281126
1.48750,-41.5090323
1.48800,-37.84669941
1.48850,-27.77528396
1.48900,-19.22984054
1.48950,-13.43114679
1.49000,-7.327258641
1.49050,-1.223370487
1.49100,1.82857359
1.49150,3.354545629
1.49200,5.79610089
1.49250,8.848044967
1.49300,9.76362819
1.49350,8.237656152
1.49400,7.016878521
1.49450,8.54285056
1.49500,9.458433783
1.49550,7.016878521
1.49600,3.049351221
1.49650,2.133767998
1.49700,5.185712075
1.49750,7.627267336
1.49800,6.711684113
1.49850,5.490906483
1.49900,8.237656152
1.49950,15.25712753
1.50000,21.66621009
1.50050,23.49737654
1.50100,21.36101568
1.50150,17.69868279
1.50200,15.86751634
1.50250,15.56232194
1.50300,14.0363499
1.50350,8.54285056
1.50400,1.218184775
1.50450,-0.9181760791
1.50500,2.133767998
1.50550,6.406489706
1.50600,6.406489706
1.50650,3.659740036
1.50700,3.049351221
1.50750,5.185712075
1.50800,8.237656152
1.50850,11.28960023
1.50900,13.73115549
1.50950,12.51037786
1.51000,7.016878521
1.51050,1.82857359
1.51100,0.3026015517
1.51150,-0.6129816714
1.51200,-5.496092195
1.51250,-8.548036272
1.51300,-4.580508972
1.51350,2.744156813
1.51400,6.406489706
1.51450,7.627267336
1.51500,12.20518345
1.51550,17.08829398
1.51600,14.0363499
1.51650,3.354545629
1.51700,-2.444148118
1.51750,-0.9181760791
1.51800,-1.833759302
1.51850,-10.68439713
1.51900,-20.14542376
1.51950,-21.3662014
1.52000,-18.92464613
1.52050,-19.22984054
1.52100,-20.75581258
1.52150,-18.61945173
1.52200,-14.65192443
1.52250,-11.90517476
1.52300,-5.190897787
1.52350,9.76362819
1.52400,27.15970943
1.52450,34.17918081
1.52500,30.51684791
1.52550,30.51684791
1.52600,44.25059626
1.52650,63.47784395
1.52700,71.41289855
1.52750,62.86745513
1.52800,47.30254034
1.52850,35.70515285
1.52900,29.29607028
1.52950,20.14023805
1.53000,4.575323259
1.53050,-12.82075798
1.53100,-27.77528396
1.53150,-41.2038379
1.53200,-55.24278065
1.53250,-68.06094577
1.53300,-76.30119478
1.53350,-80.8791109
1.53400,-83.93105497
1.53450,-83.93105497
1.53500,-76.60638919
1.53550,-62.87264084
1.53600,-47.91811487
1.53650,-36.01553296
1.53700,-25.94411751
1.53750,-16.78828528
1.53800,-8.853230679
1.53850,-1.223370487
1.53900,6.101295298
1.53950,12.20518345
1.54000,15.56232194
1.54050,17.69868279
1.54100,19.22465483
1.54150,19.22465483
1.54200,17.39348838
1.54250,16.47790516
1.54300,18.61426601
1.54350,21.05582128
1.54400,23.49737654
1.54450,26.85451502
1.54500,30.82204232
1.54550,27.77009824
1.54600,15.56232194
1.54650,1.218184775
1.54700,-6.411675418
1.54750,-8.853230679
1.54800,-13.12595239
1.54850,-19.84022936
1.54900,-24.11295106
1.54950,-25.94411751
1.55000,-26.85970073
1.55050,-26.24931192
1.55100,-22.89217343
1.55150,-18.92464613
1.55200,-15.26231324
1.55250,-7.632453049
1.55300,7.627267336
1.55350,25.63373739
1.55400,36.62073607
1.55450,37.53631929
1.55500,35.09476403
1.55550,35.39995844
1.55600,39.67268015
1.55650,47.60773475
1.55700,54.93240053
1.55750,56.15317816
1.55800,47.30254034
1.55850,32.95840318
1.55900,19.52984924
1.55950,8.237656152
1.56000,-3.970120156
1.56050,-16.78828528
1.56100,-27.47008955
1.56150,-37.541505
1.56200,-49.74928131
1.56250,-60.12589117
1.56300,-61.95705762
1.56350,-55.54797506
1.56400,-47.91811487
1.56450,-43.64539316
1.56500,-38.45708823
1.56550,-29.6064504
1.56600,-19.22984054
1.56650,-10.98959153
1.56700,-4.580508972
1.56750,0.3026015517
1.56800,3.659740036
1.56850,5.185712075
1.56900,7.016878521
1.56950,9.458433783
1.57000,11.59479464
1.57050,13.12076668
1.57100,14.34154431
1.57150,15.56232194
1.57200,16.78309957
1.57250,18.61426601
1.57300,18.61426601
1.57350,15.86751634
1.57400,10.37401701
1.57450,7.322072929
1.57500,9.458433783
1.57550,14.64673871
1.57600,17.39348838
1.57650,16.17271075
1.57700,12.81557227
1.57750,11.28960023
1.57800,15.86751634
1.57850,25.63373739
1.57900,34.78956962
1.57950,36.92593048
1.58000,32.34801436
1.58050,26.85451502
1.58100,22.27659891
1.58150,16.78309957
1.58200,10.37401701
1.58250,7.932461744
1.58300,9.76362819
1.58350,9.458433783
1.58400,2.744156813
1.58450,-4.275314564
1.58500,-4.885703379
1.58550,-0.002592856037
1.58600,4.270128852
1.58650,6.101295298
1.58700,6.101295298
1.58750,2.744156813
1.58800,-4.885703379
1.58850,-14.95711883
1.58900,-22.89217343
1.58950,-28.08047836
1.59000,-33.2687833
1.59050,-38.76228263
1.59100,-41.2038379
1.59150,-38.45708823
1.59200,-33.2687833
1.59250,-28.08047836
1.59300,-22.58697903
1.59350,-17.3986741
1.59400,-14.34673002
1.59450,-14.95711883
1.59500,-16.17789646
1.59550,-12.82075798
1.59600,-3.970120156
1.59650,5.185712075
1.59700,10.98440582
1.59750,14.64673871
1.59800,21.66621009
1.59850,34.78956962
1.59900,50.04929001
1.59950,61.34148309
1.60000,63.78303835
1.60050,57.06876138
1.60100,46.08176271
1.60150,37.53631929
1.60200,32.65320877
1.60250,24.71815417
1.60300,8.237656152
1.60350,-10.68439713
1.60400,-21.3662014
1.60450,-19.22984054
1.60500,-11.90517476
1.60550,-7.022064233
1.60600,-5.496092195
1.60650,-3.664925748
1.60700,-0.002592856037
1.60750,5.185712075
1.60800,9.458433783
1.60850,10.37401701
1.60900,5.490906483
1.60950,-2.13895371
1.61000,-8.242841864
1.61050,-12.51556357
1.61100,-20.14542376
1.61150,-32.96358889
1.61200,-43.64539316
1.61250,-45.78175401
1.61300,-43.03500434
1.61350,-43.95058757
1.61400,-47.30772605
1.61450,-44.86617079
1.61500,-35.40514415
1.61550,-27.77528396
1.61600,-28.38567277
1.61650,-30.82722803
1.61700,-27.77528396
1.61750,-21.97659021
1.61800,-21.3662014
1.61850,-24.11295106
1.61900,-20.75581258
1.61950,-9.158425087
1.62000,0.9129903671
1.62050,2.133767998
1.62100,-1.223370487
1.62150,-1.833759302
1.62200,0.9129903671
1.62250,1.82857359
1.62300,0.9129903671
1.62350,2.744156813
1.62400,7.322072929
1.62450,8.237656152
1.62500,3.354545629
1.62550,1.523379182
1.62600,10.0688226
1.62650,24.10776535
1.62700,31.43243114
1.62750,27.15970943
1.62800,17.69868279
1.62850,12.20518345
1.62900,13.73115549
1.62950,18.61426601
1.63000,21.9714045
1.63050,21.05582128
1.63100,13.12076668
1.63150,0.9129903671
1.63200,-7.632453049
1.63250,-8.242841864
1.63300,-3.970120156
1.63350,-0.9181760791
1.63400,1.218184775
1.63450,7.932461744
1.63500,18.0038772
1.63550,23.80257094
1.63600,22.58179331
1.63650,18.91946042
1.63700,18.30907161
1.63750,18.30907161
1.63800,15.86751634
1.63850,13.12076668
1.63900,11.89998904
1.63950,9.153239375
1.64000,3.964934444
1.64050,0.6077959594
1.64100,3.354545629
1.64150,8.237656152
1.64200,9.76362819
1.64250,7.016878521
1.64300,3.964934444
1.64350,2.438962406
1.64400,3.049351221
1.64450,6.406489706
1.64500,11.28960023
1.64550,12.20518345
1.64600,6.711684113
1.64650,-0.002592856037
1.64700,-1.833759302
1.64750,-0.6129816714
1.64800,-0.002592856037
1.64850,-0.9181760791
1.64900,-1.833759302
1.64950,-5.801286602
1.65000,-15.87270206
1.65050,-28.69086718
1.65100,-35.71033856
1.65150,-32.65839448
1.65200,-24.11295106
1.65250,-18.61945173
1.65300,-16.17789646
1.65350,-12.21036916
1.65400,-3.054536933
1.65450,7.627267336
1.65500,14.95193312
1.65550,16.47790516
1.65600,14.95193312
1.65650,12.81557227
1.65700,10.67921141
1.65750,8.54285056
1.65800,7.016878521
1.65850,4.880517667
1.65900,-0.3077872637
1.65950,-8.853230679
1.66000,-13.43114679
1.66050,-8.242841864
1.66100,2.438962406
1.66150,11.89998904
1.66200,17.08829398
1.66250,20.75062687
1.66300,25.02334858
1.66350,28.99087588
1.66400,31.12723673
1.66450,30.51684791
1.66500,24.71815417
1.66550,13.42596108
1.66600,2.438962406
1.66650,2.438962406
1.66700,15.56232194
1.66750,32.65320877
1.66800,42.41942981
1.66850,44.25059626
1.66900,43.64020745
1.66950,43.94540185
1.67000,42.11423541
1.67050,33.8739864
1.67100,18.30907161
1.67150,-0.9181760791
1.67200,-21.97659021
1.67250,-45.1713652
1.67300,-68.67133459
1.67350,-88.20377668
1.67400,-99.80116417
1.67450,-105.9050523
1.67500,-109.2621908
1.67550,-107.4310244
1.67600,-93.0868872
1.67650,-66.84016814
1.67700,-40.59344908
1.67750,-25.6389231
1.67800,-18.00906291
1.67850,-5.801286602
1.67900,12.20518345
1.67950,25.63373739
1.68000,26.54932061
1.68050,21.66621009
1.68100,20.75062687
1.68150,24.10776535
1.68200,26.54932061
1.68250,25.9389318
1.68300,25.02334858
1.68350,22.58179331
1.68400,15.86751634
1.68450,5.185712075
1.68500,-3.970120156
1.68550,-10.68439713
1.68600,-17.3986741
1.68650,-24.41814547
1.68700,-26.85970073
1.68750,-21.06100699
1.68800,-10.98959153
1.68850,-1.833759302
1.68900,5.185712075
1.68950,12.81557227
1.69000,20.14023805
1.69050,24.71815417
1.69100,25.63373739
1.69150,23.49737654
1.69200,18.30907161
1.69250,10.67921141
1.69300,3.354545629
1.69350,-0.3077872637
1.69400,-1.833759302
1.69450,-3.054536933
1.69500,-4.580508972
1.69550,-6.10648101
1.69600,-7.937647456
1.69650,-8.853230679
1.69700,-6.716869825
1.69750,-1.223370487
1.69800,4.575323259
1.69850,10.0688226
1.69900,16.17271075
1.69950,24.10776535
1.70000,28.68568147
1.70050,24.71815417
1.70100,15.56232194
1.70150,10.0688226
1.70200,12.20518345
1.70250,16.47790516
1.70300,17.39348838
1.70350,14.95193312
1.70400,13.73115549
1.70450,17.69868279
1.70500,25.02334858
1.70550,31.12723673
1.70600,31.12723673
1.70650,25.02334858
1.70700,17.08829398
1.70750,11.89998904
1.70800,9.153239375
1.70850,4.880517667
1.70900,-2.13895371
1.70950,-11.29478594
1.71000,-21.06100699
1.71050,-29.91164481
1.71100,-33.87917211
1.71150,-31.43761685
1.71200,-28.69086718
1.71250,-31.74281126
1.71300,-36.01553296
1.71350,-31.43761685
1.71400,-18.31425732
1.71450,-6.411675418
1.71500,-2.13895371
1.71550,-0.6129816714
1.71600,1.218184775
1.71650,0.9129903671
1.71700,-3.359731341
1.71750,-5.801286602
1.71800,-2.444148118
1.71850,-0.9181760791
1.71900,-8.853230679
1.71950,-21.06100699
1.72000,-26.24931192
1.72050,-22.58697903
1.72100,-18.31425732
1.72150,-16.78828528
1.72200,-13.43114679
1.72250,-5.801286602
1.72300,-0.6129816714
1.72350,-0.002592856037
1.72400,2.438962406
1.72450,14.34154431
1.72500,29.60126469
1.72550,37.8415137
1.72600,39.36748574
1.72650,43.64020745
1.72700,53.10123408
1.72750,58.89992783
1.72800,54.01681731
1.72850,43.33501304
1.72900,36.01034725
1.72950,33.26359758
1.73000,28.68568147
1.73050,21.36101568
1.73100,15.56232194
1.73150,12.51037786
1.73200,10.37401701
1.73250,8.237656152
1.73300,7.932461744
1.73350,6.711684113
1.73400,-0.9181760791
1.73450,-13.12595239
1.73500,-25.02853429
1.73550,-35.40514415
1.73600,-49.1388925
1.73650,-64.70380729
1.73700,-76.9115836
1.73750,-84.8466382
1.73800,-91.86610957
1.73850,-93.39208161
1.73900,-82.40508294
1.73950,-61.3466688
1.74000,-44.56097638
1.74050,-36.93111619
1.74100,-26.85970073
1.74150,-6.411675418
1.74200,14.34154431
1.74250,23.19218213
1.74300,22.88698772
1.74350,23.49737654
1.74400,26.24412621
1.74450,25.63373739
1.74500,23.49737654
1.74550,27.15970943
1.74600,34.78956962
1.74650,36.62073607
1.74700,31.12723673
1.74750,26.85451502
1.74800,28.99087588
1.74850,30.21165351
1.74900,24.41295976
1.74950,15.86751634
1.75000,10.67921141
1.75050,6.711684113
1.75100,-0.002592856037
1.75150,-7.632453049
1.75200,-14.34673002
1.75250,-23.19736784
1.75300,-36.01553296
1.75350,-45.1713652
1.75400,-41.81422671
1.75450,-32.04800566
1.75500,-28.69086718
1.75550,-32.04800566
1.75600,-28.99606159
1.75650,-15.26231324
1.75700,-3.054536933
1.75750,-3.664925748
1.75800,-9.463619495
1.75850,-7.937647456
1.75900,3.049351221
1.75950,16.17271075
1.76000,26.85451502
1.76050,35.70515285
1.76100,42.11423541
1.76150,45.7765683
1.76200,50.35448441
1.76250,57.98434461
1.76300,61.6466775
1.76350,54.62720612
1.76400,40.28306896
1.76450,28.38048706
1.76500,25.02334858
1.76550,25.02334858
1.76600,21.05582128
1.76650,9.76362819
1.76700,-7.327258641
1.76750,-23.19736784
1.76800,-31.13242244
1.76850,-29.301256
1.76900,-24.41814547
1.76950,-22.58697903
1.77000,-21.06100699
1.77050,-14.04153561
1.77100,-1.833759302
1.77150,9.153239375
1.77200,14.64673871
1.77250,17.39348838
1.77300,22.58179331
1.77350,29.9064591
1.77400,30.21165351
1.77450,19.22465483
1.77500,1.82857359
1.77550,-11.29478594
1.77600,-19.84022936
1.77650,-32.04800566
1.77700,-50.05447572
1.77750,-66.22977933
1.77800,-73.55444511
1.77850,-73.2492507
1.77900,-68.67133459
1.77950,-57.0739471
1.78000,-36.32072737
1.78050,-14.34673002
1.78100,-1.528564895
1.78150,1.218184775
1.78200,3.354545629
1.78250,8.237656152
1.78300,13.12076668
1.78350,13.42596108
1.78400,9.76362819
1.78450,5.79610089
1.78500,7.016878521
1.78550,17.08829398
1.78600,31.73762554
1.78650,41.19865218
1.78700,40.89345778
1.78750,36.62073607
1.78800,36.01034725
1.78850,35.39995844
1.78900,28.07529265
1.78950,14.95193312
1.79000,2.133767998
1.79050,-9.158425087
1.79100,-19.53503495
1.79150,-24.72333988
1.79200,-19.84022936
1.79250,-10.68439713
1.79300,-6.10648101
1.79350,-7.327258641
1.79400,-6.716869825
1.79450,-2.749342525
1.79500,-2.13895371
1.79550,-8.242841864
1.79600,-14.95711883
1.79650,-16.78828528
1.79700,-16.17789646
1.79750,-18.00906291
1.79800,-20.14542376
1.79850,-18.61945173
1.79900,-14.65192443
1.79950,-13.12595239
1.80000,-13.7363412
1.80050,-9.768813902
1.80100,-0.002592856037
1.80150,8.54285056
1.80200,9.76362819
1.80250,5.79610089
1.80300,2.133767998
1.80350,0.3026015517
1.80400,-0.9181760791
1.80450,-0.002592856037
1.80500,5.79610089
1.80550,15.86751634
1.80600,26.54932061
1.80650,35.09476403
1.80700,41.19865218
1.80750,46.99734593
1.80800,53.7116229
1.80850,58.28953901
1.80900,54.01681731
1.80950,36.01034725
1.81000,12.20518345
1.81050,-4.580508972
1.81100,-10.98959153
1.81150,-15.87270206
1.81200,-24.11295106
1.81250,-26.85970073
1.81300,-17.3986741
1.81350,-4.275314564
1.81400,1.82857359
1.81450,4.575323259
1.81500,14.0363499
1.81550,29.29607028
1.81600,39.06229133
1.81650,36.62073607
1.81700,25.32854298
1.81750,9.458433783
1.81800,-11.90517476
1.81850,-36.32072737
1.81900,-56.76875269
1.81950,-68.67133459
1.82000,-72.33366748
1.82050,-68.36614018
1.82100,-58.59991913
1.82150,-47.91811487
1.82200,-39.98306026
1.82250,-32.65839448
1.82300,-20.75581258
1.82350,-5.496092195
1.82400,7.627267336
1.82450,15.25712753
1.82500,16.78309957
1.82550,14.34154431
1.82600,12.81557227
1.82650,16.47790516
1.82700,22.58179331
1.82750,24.41295976
1.82800,21.05582128
1.82850,20.44543246
1.82900,24.71815417
1.82950,26.24412621
1.83000,19.52984924
1.83050,10.0688226
1.83100,7.322072929
1.83150,11.59479464
1.83200,15.56232194
1.83250,14.34154431
1.83300,8.848044967
1.83350,1.82857359
1.83400,-2.444148118
1.83450,-1.223370487
1.83500,2.133767998
1.83550,0.6077959594
1.83600,-5.496092195
1.83650,-7.632453049
1.83700,-1.833759302
1.83750,1.82857359
1.83800,-6.411675418
1.83850,-23.80775666
1.83900,-38.76228263
1.83950,-44.56097638
1.84000,-40.59344908
1.84050,-28.38567277
1.84100,-9.768813902
1.84150,8.848044967
1.84200,22.27659891
1.84250,31.73762554
1.84300,41.809041
1.84350,53.7116229
1.84400,62.56226072
1.84450,63.17264954
1.84500,55.84798375
1.84550,44.55579067
1.84600,32.04281995
1.84650,17.08829398
1.84700,-1.223370487
1.84750,-20.75581258
1.84800,-36.32072737
1.84850,-49.4440869
1.84900,-63.17783525
1.84950,-74.77522274
1.85000,-75.08041715
1.85050,-62.26225203
1.85100,-42.42461553
1.85150,-20.14542376
1.85200,6.406489706
1.85250,33.8739864
1.85300,48.52331797
1.85350,46.69215152
1.85400,42.11423541
1.85450,46.38695711
1.85500,53.10123408
1.85550,50.65967882
1.85600,40.89345778
1.85650,32.65320877
1.85700,22.88698772
1.85750,4.270128852
1.85800,-16.17789646
1.85850,-23.80775666
1.85900,-18.31425732
1.85950,-14.95711883
1.86000,-20.45061817
1.86050,-25.3337287
1.86100,-21.3662014
1.86150,-13.7363412
1.86200,-8.242841864
1.86250,-2.749342525
1.86300,3.354545629
1.86350,5.185712075
1.86400,-0.6129816714
1.86450,-8.242841864
1.86500,-7.327258641
1.86550,1.523379182
1.86600,10.37401701
1.86650,12.20518345
1.86700,8.237656152
1.86750,2.438962406
1.86800,-5.190897787
1.86850,-15.56750765
1.86900,-25.3337287
1.86950,-29.91164481
1.87000,-30.21683922
1.87050,-34.48956093
1.87100,-45.1713652
1.87150,-55.24278065
1.87200,-56.76875269
1.87250,-54.02200302
1.87300,-53.71680861
1.87350,-53.71680861
1.87400,-44.86617079
1.87450,-29.6064504
1.87500,-20.14542376
1.87550,-18.31425732
1.87600,-12.21036916
1.87650,6.406489706
1.87700,27.15970943
1.87750,35.70515285
1.87800,32.34801436
1.87850,29.9064591
1.87900,34.48437521
1.87950,42.41942981
1.88000,47.60773475
1.88050,47.60773475
1.88100,42.72462422
1.88150,35.39995844
1.88200,27.46490384
1.88250,17.69868279
1.88300,3.659740036
1.88350,-11.59998035
1.88400,-21.97659021
1.88450,-25.3337287
1.88500,-26.55450633
1.88550,-28.08047836
1.88600,-24.41814547
1.88650,-9.768813902
1.88700,9.76362819
1.88750,23.80257094
1.88800,28.07529265
1.88850,26.24412621
1.88900,23.80257094
1.88950,22.27659891
1.89000,22.27659891
1.89050,23.49737654
1.89100,23.49737654
1.89150,19.22465483
1.89200,11.28960023
1.89250,2.438962406
1.89300,-3.664925748
1.89350,-6.716869825
1.89400,-7.937647456
1.89450,-10.37920272
1.89500,-16.17789646
1.89550,-20.14542376
1.89600,-15.26231324
1.89650,-2.749342525
1.89700,6.101295298
1.89750,5.490906483
1.89800,0.9129903671
1.89850,0.6077959594
1.89900,2.438962406
1.89950,1.218184775
1.90000,-0.6129816714
1.90050,3.354545629
1.90100,13.12076668
1.90150,18.91946042
1.90200,15.86751634
1.90250,10.37401701
1.90300,7.932461744
1.90350,5.490906483
1.90400,-1.223370487
1.90450,-10.37920272
1.90500,-15.87270206
1.90550,-17.09347969
1.90600,-16.17789646
1.90650,-10.07400831
1.90700,2.438962406
1.90750,14.95193312
1.90800,16.17271075
1.90850,7.627267336
1.90900,3.659740036
1.90950,12.20518345
1.91000,24.71815417
1.91050,28.99087588
1.91100,23.49737654
1.91150,13.42596108
1.91200,3.354545629
1.91250,-3.359731341
1.91300,-3.054536933
1.91350,1.82857359
1.91400,-0.3077872637
1.91450,-17.09347969
1.91500,-35.71033856
1.91550,-36.93111619
1.91600,-20.45061817
1.91650,-6.716869825
1.91700,-9.768813902
1.91750,-22.58697903
1.91800,-27.77528396
1.91850,-19.53503495
1.91900,-7.327258641
1.91950,-2.749342525
1.92000,-7.022064233
1.92050,-9.768813902
1.92100,-1.223370487
1.92150,15.86751634
1.92200,30.82204232
1.92250,36.62073607
1.92300,39.97787455
1.92350,48.52331797
1.92400,57.98434461
1.92450,57.98434461
1.92500,46.38695711
1.92550,31.12723673
1.92600,17.08829398
1.92650,4.575323259
1.92700,-7.022064233
1.92750,-21.06100699
1.92800,-40.59344908
1.92850,-63.17783525
1.92900,-79.35313886
1.92950,-83.01547175
1.93000,-79.04794445
1.93050,-74.16483393
1.93100,-62.26225203
1.93150,-35.71033856
1.93200,-2.444148118
1.93250,18.91946042
1.93300,21.05582128
1.93350,11.28960023
1.93400,1.218184775
1.93450,-3.359731341
1.93500,-0.3077872637
1.93550,7.932461744
1.93600,15.56232194
1.93650,14.64673871
1.93700,7.016878521
1.93750,-0.9181760791
1.93800,-6.411675418
1.93850,-8.853230679
1.93900,-4.580508972
1.93950,6.711684113
1.94000,17.39348838
1.94050,20.14023805
1.94100,18.91946042
1.94150,21.66621009
1.94200,27.15970943
1.94250,29.60126469
1.94300,31.43243114
1.94350,35.39995844
1.94400,36.01034725
1.94450,26.85451502
1.94500,13.42596108
1.94550,4.575323259
1.94600,-2.444148118
1.94650,-16.78828528
1.94700,-33.2687833
1.94750,-39.98306026
1.94800,-36.32072737
1.94850,-32.65839448
1.94900,-28.99606159
1.94950,-16.48309087
1.95000,0.9129903671
1.95050,8.54285056
1.95100,3.049351221
1.95150,0.3026015517
1.95200,9.458433783
1.95250,18.61426601
1.95300,16.47790516
1.95350,8.848044967
1.95400,4.880517667
1.95450,-0.002592856037
1.95500,-12.51556357
1.95550,-26.85970073
1.95600,-28.99606159
1.95650,-18.92464613
1.95700,-7.327258641
1.95750,-1.528564895
1.95800,-0.002592856037
1.95850,0.9129903671
1.95900,1.218184775
1.95950,3.964934444
1.96000,13.42596108
1.96050,25.32854298
1.96100,28.38048706
1.96150,19.52984924
1.96200,6.101295298
1.96250,-2.13895371
1.96300,-6.411675418
1.96350,-10.37920272
1.96400,-15.26231324
1.96450,-18.31425732
1.96500,-20.75581258
1.96550,-26.85970073
1.96600,-34.48956093
1.96650,-34.48956093
1.96700,-19.84022936
1.96750,3.659740036
1.96800,23.49737654
1.96850,31.73762554
1.96900,34.48437521
1.96950,42.72462422
1.97000,55.84798375
1.97050,60.73109428
1.97100,47.60773475
1.97150,23.19218213
1.97200,2.133767998
1.97250,-9.463619495
1.97300,-16.78828528
1.97350,-22.58697903
1.97400,-23.80775666
1.97450,-20.14542376
1.97500,-18.61945173
1.97550,-22.58697903
1.97600,-23.80775666
1.97650,-14.04153561
1.97700,3.354545629
1.97750,19.83504364
1.97800,31.73762554
1.97850,40.28306896
1.97900,44.86098508
1.97950,40.89345778
1.98000,27.15970943
1.98050,7.932461744
1.98100,-10.37920272
1.98150,-23.50256225
1.98200,-29.301256
1.98250,-31.13242244
1.98300,-33.5739777
1.98350,-32.35320007
1.98400,-20.14542376
1.98450,-2.444148118
1.98500,0.6077959594
1.98550,-16.48309087
1.98600,-35.40514415
1.98650,-31.74281126
1.98700,-8.548036272
1.98750,9.458433783
1.98800,11.28960023
1.98850,7.627267336
1.98900,10.98440582
1.98950,16.17271075
1.99000,14.64673871
1.99050,9.76362819
1.99100,10.67921141
1.99150,18.61426601
1.99200,25.63373739
1.99250,28.38048706
1.99300,28.07529265
1.99350,22.58179331
1.99400,8.237656152
1.99450,-11.59998035
1.99500,-28.38567277
1.99550,-36.93111619
1.99600,-40.89864349
1.99650,-44.86617079
1.99700,-45.1713652
1.99750,-36.93111619
1.99800,-23.50256225
1.99850,-11.90517476
1.99900,-3.970120156
1.99950,3.659740036
2.00000,10.67921141
2.00050,12.51037786
2.00100,10.98440582
2.00150,13.73115549
2.00200,23.49737654
2.00250,32.65320877
2.00300,33.8739864
2.00350,29.9064591
2.00400,25.63373739
2.00450,22.27659891
2.00500,15.86751634
2.00550,6.101295298
2.00600,-3.359731341
2.00650,-12.51556357
2.00700,-21.3662014
2.00750,-29.6064504
2.00800,-34.48956093
2.00850,-33.5739777
2.00900,-27.47008955
2.00950,-19.53503495
2.01000,-14.04153561
2.01050,-14.95711883
2.01100,-20.14542376
2.01150,-22.58697903
2.01200,-14.04153561
2.01250,6.101295298
2.01300,30.21165351
2.01350,47.30254034
2.01400,53.7116229
2.01450,53.40642849
2.01500,53.7116229
2.01550,57.37395579
2.01600,61.95187191
2.01650,63.78303835
2.01700,61.95187191
2.01750,56.76356698
2.01800,46.38695711
2.01850,28.99087588
2.01900,7.627267336
2.01950,-11.29478594
2.02000,-25.3337287
2.02050,-37.2363106
2.02100,-54.02200302
2.02150,-77.216778
2.02200,-99.49596977
2.02250,-107.7362188
2.02300,-92.7816928
2.02350,-59.51550236
2.02400,-25.94411751
2.02450,-6.411675418
2.02500,-0.002592856037
2.02550,4.880517667
2.02600,11.89998904
2.02650,15.56232194
2.02700,11.59479464
2.02750,5.490906483
2.02800,4.270128852
2.02850,6.406489706
2.02900,4.880517667
2.02950,1.523379182
2.03000,2.744156813
2.03050,10.0688226
2.03100,16.78309957
2.03150,20.44543246
2.03200,26.24412621
2.03250,37.23112488
2.03300,46.69215152
2.03350,43.94540185
2.03400,28.99087588
2.03450,10.67921141
2.03500,-3.054536933
2.03550,-13.12595239
2.03600,-25.94411751
2.03650,-45.4765596
2.03700,-67.75575137
2.03750,-85.45702701
2.03800,-91.86610957
2.03850,-86.37261024
2.03900,-69.89211222
2.03950,-43.95058757
2.04000,-13.43114679
2.04050,10.98440582
2.04100,21.05582128
2.04150,18.30907161
2.04200,12.81557227
2.04250,12.20518345
2.04300,18.0038772
2.04350,27.15970943
2.04400,36.01034725
2.04450,42.11423541
2.04500,42.72462422
2.04550,40.28306896
2.04600,40.89345778
2.04650,46.08176271
2.04700,50.04929001
2.04750,46.99734593
2.04800,36.92593048
2.04850,23.80257094
2.04900,9.458433783
2.04950,-7.327258641
2.05000,-25.02853429
2.05050,-35.40514415
2.05100,-32.96358889
2.05150,-19.22984054
2.05200,-5.190897787
2.05250,-0.002592856037
2.05300,-1.833759302
2.05350,-0.3077872637
2.05400,11.28960023
2.05450,29.29607028
2.05500,42.72462422
2.05550,46.69215152
2.05600,45.16617948
2.05650,43.33501304
2.05700,39.36748574
2.05750,31.43243114
2.05800,21.66621009
2.05850,13.42596108
2.05900,4.880517667
2.05950,-6.716869825
2.06000,-20.45061817
2.06050,-32.04800566
2.06100,-41.2038379
2.06150,-53.71680861
2.06200,-70.50250104
2.06250,-82.40508294
2.06300,-76.9115836
2.06350,-56.15836387
2.06400,-36.32072737
2.06450,-32.96358889
2.06500,-39.67786586
2.06550,-36.32072737
2.06600,-13.43114679
2.06650,14.64673871
2.06700,31.12723673
2.06750,37.8415137
2.06800,48.21812356
2.06850,63.17264954
2.06900,69.88692651
2.06950,61.6466775
2.07000,47.60773475
2.07050,35.09476403
2.07100,21.05582128
2.07150,3.354545629
2.07200,-10.07400831
2.07250,-12.21036916
2.07300,-10.37920272
2.07350,-14.04153561
2.07400,-21.97659021
2.07450,-25.94411751
2.07500,-25.3337287
2.07550,-24.11295106
2.07600,-24.72333988
2.07650,-25.6389231
2.07700,-28.99606159
2.07750,-34.48956093
2.07800,-36.62592178
2.07850,-31.43761685
2.07900,-22.89217343
2.07950,-17.7038685
2.08000,-14.34673002
2.08050,-10.07400831
2.08100,-9.158425087
2.08150,-14.95711883
2.08200,-18.92464613
2.08250,-10.07400831
2.08300,7.932461744
2.08350,21.66621009
2.08400,25.02334858
2.08450,24.71815417
2.08500,26.85451502
2.08550,29.60126469
2.08600,29.60126469
2.08650,29.29607028
2.08700,28.38048706
2.08750,24.10776535
2.08800,15.56232194
2.08850,9.153239375
2.08900,7.322072929
2.08950,6.406489706
2.09000,3.354545629
2.09050,2.744156813
2.09100,7.627267336
2.09150,11.28960023
2.09200,3.354545629
2.09250,-13.43114679
2.09300,-24.72333988
2.09350,-23.50256225
2.09400,-19.53503495
2.09450,-27.16489514
2.09500,-41.2038379
2.09550,-41.5090323
2.09600,-18.31425732
2.09650,10.67921141
2.09700,22.27659891
2.09750,11.59479464
2.09800,-2.444148118
2.09850,-4.275314564
2.09900,4.270128852
2.09950,12.20518345
2.10000,12.81557227
2.10050,8.54285056
2.10100,5.185712075
2.10150,3.964934444
2.10200,1.82857359
2.10250,-3.359731341
2.10300,-9.463619495
2.10350,-9.158425087
2.10400,-0.3077872637
2.10450,10.0688226
2.10500,17.08829398
2.10550,26.54932061
2.10600,46.08176271
2.10650,68.97134328
2.10700,77.5167867
2.10750,67.44537125
2.10800,54.62720612
2.10850,52.79603968
2.10900,55.54278935
2.10950,48.21812356
2.11000,28.07529265
2.11050,1.218184775
2.11100,-31.43761685
2.11150,-67.45055696
2.11200,-90.03494313
2.11250,-84.54144379
2.11300,-63.48302966
2.11350,-58.29472473
2.11400,-76.60638919
2.11450,-90.34013754
2.11500,-75.69080597
2.11550,-45.4765596
2.11600,-27.16489514
2.11650,-23.80775666
2.11700,-17.09347969
2.11750,-0.002592856037
2.11800,14.34154431
2.11850,16.17271075
2.11900,13.12076668
2.11950,14.0363499
2.12000,16.47790516
2.12050,15.56232194
2.12100,15.25712753
2.12150,19.22465483
2.12200,24.71815417
2.12250,26.85451502
2.12300,26.24412621
2.12350,25.02334858
2.12400,21.9714045
2.12450,16.47790516
2.12500,11.89998904
2.12550,11.28960023
2.12600,13.12076668
2.12650,14.64673871
2.12700,16.17271075
2.12750,17.08829398
2.12800,15.25712753
2.12850,11.59479464
2.12900,10.0688226
2.12950,8.848044967
2.13000,0.3026015517
2.13050,-16.78828528
2.13100,-31.74281126
2.13150,-30.82722803
2.13200,-13.12595239
2.13250,7.627267336
2.13300,15.56232194
2.13350,2.744156813
2.13400,-22.28178462
2.13450,-40.89864349
2.13500,-39.06747704
2.13550,-25.02853429
2.13600,-18.31425732
2.13650,-25.94411751
2.13700,-35.09994974
2.13750,-31.74281126
2.13800,-18.61945173
2.13850,-8.853230679
2.13900,-5.496092195
2.13950,-0.9181760791
2.14000,7.627267336
2.14050,16.78309957
2.14100,21.36101568
2.14150,22.58179331
2.14200,22.58179331
2.14250,21.9714045
2.14300,20.75062687
2.14350,19.83504364
2.14400,19.83504364
2.14450,19.83504364
2.14500,18.0038772
2.14550,14.64673871
2.14600,11.59479464
2.14650,9.76362819
2.14700,7.932461744
2.14750,4.880517667
2.14800,1.218184775
2.14850,-3.054536933
2.14900,-10.37920272
2.14950,-17.09347969
2.15000,-17.09347969
2.15050,-8.548036272
2.15100,-2.749342525
2.15150,-8.548036272
2.15200,-18.00906291
2.15250,-15.26231324
2.15300,2.744156813
2.15350,24.10776535
2.15400,37.8415137
2.15450,45.47137389
2.15500,50.04929001
2.15550,47.91292915
2.15600,35.39995844
2.15650,15.25712753
2.15700,-7.632453049
2.15750,-28.69086718
2.15800,-39.67786586
2.15850,-32.65839448
2.15900,-14.34673002
2.15950,-2.444148118
2.16000,-5.190897787
2.16050,-11.59998035
2.16100,-8.242841864
2.16150,-0.002592856037
2.16200,1.523379182
2.16250,-6.411675418
2.16300,-15.87270206
2.16350,-18.61945173
2.16400,-14.65192443
2.16450,-7.327258641
2.16500,-2.13895371
2.16550,-3.970120156
2.16600,-10.07400831
2.16650,-12.21036916
2.16700,-6.411675418
2.16750,-0.002592856037
2.16800,0.6077959594
2.16850,-1.223370487
2.16900,3.354545629
2.16950,17.39348838
2.17000,32.04281995
2.17050,36.62073607
2.17100,27.77009824
2.17150,13.12076668
2.17200,2.133767998
2.17250,-2.13895371
2.17300,-6.10648101
2.17350,-12.21036916
2.17400,-14.95711883
2.17450,-9.158425087
2.17500,-3.664925748
2.17550,-7.937647456
2.17600,-15.87270206
2.17650,-9.768813902
2.17700,13.73115549
2.17750,39.97787455
2.17800,54.32201171
2.17850,55.23759494
2.17900,43.64020745
2.17950,17.39348838
2.18000,-14.04153561
2.18050,-32.35320007
2.18100,-31.74281126
2.18150,-28.38567277
2.18200,-36.32072737
2.18250,-49.4440869
2.18300,-55.24278065
2.18350,-54.63239183
2.18400,-53.4116142
2.18450,-49.4440869
2.18500,-39.67786586
2.18550,-28.69086718
2.18600,-20.14542376
2.18650,-7.632453049
2.18700,12.20518345
2.18750,27.15970943
2.18800,25.9389318
2.18850,17.39348838
2.18900,18.30907161
2.18950,29.60126469
2.19000,38.14670811
2.19050,39.97787455
2.19100,41.809041
2.19150,43.64020745
2.19200,37.53631929
2.19250,22.27659891
2.19300,8.848044967
2.19350,3.049351221
2.19400,-1.223370487
2.19450,-10.98959153
2.19500,-22.58697903
2.19550,-30.52203363
2.19600,-35.40514415
2.19650,-41.2038379
2.19700,-44.56097638
2.19750,-40.59344908
2.19800,-30.21683922
2.19850,-21.6713958
2.19900,-19.22984054
2.19950,-19.22984054
2.20000,-14.34673002
2.20050,-3.970120156
2.20100,5.490906483
2.20150,10.0688226
2.20200,10.67921141
2.20250,10.98440582
2.20300,11.28960023
2.20350,10.0688226
2.20400,7.322072929
2.20450,6.406489706
2.20500,7.016878521
2.20550,6.101295298
2.20600,3.354545629
2.20650,2.744156813
2.20700,7.016878521
2.20750,12.51037786
2.20800,14.0363499
2.20850,10.98440582
2.20900,5.79610089
2.20950,0.6077959594
2.21000,-2.13895371
2.21050,0.6077959594
2.21100,10.67921141
2.21150,20.44543246
2.21200,20.44543246
2.21250,12.51037786
2.21300,7.627267336
2.21350,10.0688226
2.21400,8.237656152
2.21450,-5.496092195
2.21500,-18.92464613
2.21550,-11.90517476
2.21600,14.0363499
2.21650,36.92593048
2.21700,40.58826337
2.21750,29.60126469
2.21800,16.47790516
2.21850,5.79610089
2.21900,-0.3077872637
2.21950,-1.833759302
2.22000,-3.970120156
2.22050,-16.17789646
2.22100,-35.09994974
2.22150,-43.03500434
2.22200,-32.96358889
2.22250,-19.22984054
2.22300,-15.56750765
2.22350,-14.95711883
2.22400,-3.054536933
2.22450,15.56232194
2.22500,24.41295976
2.22550,20.14023805
2.22600,15.25712753
2.22650,14.64673871
2.22700,13.73115549
2.22750,10.37401701
2.22800,10.67921141
2.22850,14.64673871
2.22900,15.86751634
2.22950,12.81557227
2.23000,13.42596108
2.23050,21.66621009
2.23100,30.82204232
2.23150,32.34801436
2.23200,25.02334858
2.23250,12.20518345
2.23300,-3.664925748
2.23350,-21.6713958
2.23400,-36.01553296
2.23450,-39.67786586
2.23500,-29.6064504
2.23550,-13.12595239
2.23600,-2.444148118
2.23650,-3.359731341
2.23700,-7.937647456
2.23750,-3.054536933
2.23800,11.89998904
2.23850,24.71815417
2.23900,27.15970943
2.23950,25.63373739
2.24000,30.51684791
2.24050,43.64020745
2.24100,60.12070546
2.24150,69.88692651
2.24200,61.34148309
2.24250,29.60126469
2.24300,-10.07400831
2.24350,-35.71033856
2.24400,-46.08694842
2.24450,-59.82069677
2.24500,-84.8466382
2.24550,-105.5998579
2.24600,-109.8725796
2.24650,-104.3790803
2.24700,-93.39208161
2.24750,-63.48302966
2.24800,-11.59998035
2.24850,35.70515285
2.24900,51.27006764
2.24950,43.33501304
2.25000,38.14670811
2.25050,43.64020745
2.25100,48.21812356
2.25150,49.13370678
2.25200,52.49084527
2.25250,57.98434461
2.25300,60.12070546
2.25350,61.03628868
2.25400,60.12070546
2.25450,43.64020745
2.25500,4.880517667
2.25550,-36.32072737
2.25600,-55.85316947
2.25650,-58.59991913
2.25700,-67.45055696
2.25750,-83.93105497
2.25800,-90.34013754
2.25850,-80.8791109
2.25900,-67.75575137
2.25950,-53.1064198
2.26000,-27.47008955
2.26050,6.101295298
2.26100,26.54932061
2.26150,23.49737654
2.26200,13.12076668
2.26250,13.12076668
2.26300,23.80257094
2.26350,33.56879199
2.26400,36.62073607
2.26450,34.78956962
2.26500,32.04281995
2.26550,31.12723673
2.26600,28.38048706
2.26650,16.17271075
2.26700,-5.496092195
2.26750,-21.97659021
2.26800,-17.09347969
2.26850,3.659740036
2.26900,18.61426601
2.26950,12.81557227
2.27000,-6.716869825
2.27050,-22.58697903
2.27100,-24.11295106
2.27150,-15.56750765
2.27200,-13.7363412
2.27250,-28.08047836
2.27300,-49.74928131
2.27350,-57.3791415
2.27400,-41.81422671
2.27450,-15.56750765
2.27500,5.185712075
2.27550,15.86751634
2.27600,16.78309957
2.27650,8.54285056
2.27700,-2.749342525
2.27750,-3.359731341
2.27800,10.67921141
2.27850,25.02334858
2.27900,23.80257094
2.27950,13.73115549
2.28000,10.98440582
2.28050,19.22465483
2.28100,28.38048706
2.28150,30.51684791
2.28200,27.15970943
2.28250,18.91946042
2.28300,5.185712075
2.28350,-11.29478594
2.28400,-23.80775666
2.28450,-25.94411751
2.28500,-15.87270206
2.28550,3.049351221
2.28600,21.36101568
2.28650,25.63373739
2.28700,12.81557227
2.28750,-7.632453049
2.28800,-22.89217343
2.28850,-28.38567277
2.28900,-28.08047836
2.28950,-25.6389231
2.29000,-22.28178462
2.29050,-19.84022936
2.29100,-19.53503495
2.29150,-18.92464613
2.29200,-14.04153561
2.29250,-4.275314564
2.29300,7.627267336
2.29350,18.61426601
2.29400,26.24412621
2.29450,28.38048706
2.29500,27.15970943
2.29550,26.24412621
2.29600,26.54932061
2.29650,24.71815417
2.29700,19.83504364
2.29750,16.17271075
2.29800,17.69868279
2.29850,22.58179331
2.29900,23.19218213
2.29950,16.47790516
2.30000,5.185712075
2.30050,-3.664925748
2.30100,-7.937647456
2.30150,-10.68439713
2.30200,-16.78828528
2.30250,-24.41814547
2.30300,-24.11295106
2.30350,-10.37920272
2.30400,8.237656152
2.30450,19.22465483
2.30500,18.61426601
2.30550,11.28960023
2.30600,4.575323259
2.30650,1.218184775
2.30700,2.438962406
2.30750,7.016878521
2.30800,9.76362819
2.30850,7.322072929
2.30900,3.659740036
2.30950,5.79610089
2.31000,11.59479464
2.31050,11.89998904
2.31100,3.049351221
2.31150,-6.411675418
2.31200,-9.158425087
2.31250,-4.580508972
2.31300,2.744156813
2.31350,10.67921141
2.31400,14.34154431
2.31450,9.76362819
2.31500,0.3026015517
2.31550,-7.327258641
2.31600,-15.26231324
2.31650,-30.21683922
2.31700,-50.35967013
2.31750,-58.59991913
2.31800,-43.34019875
2.31850,-14.04153561
2.31900,8.848044967
2.31950,17.69868279
2.32000,16.78309957
2.32050,12.51037786
2.32100,6.711684113
2.32150,0.3026015517
2.32200,-3.664925748
2.32250,-3.664925748
2.32300,-0.9181760791
2.32350,1.82857359
2.32400,1.82857359
2.32450,-5.190897787
2.32500,-16.78828528
2.32550,-19.53503495
2.32600,-1.833759302
2.32650,27.15970943
2.32700,46.69215152
2.32750,46.08176271
2.32800,39.36748574
2.32850,42.11423541
2.32900,48.21812356
2.32950,38.45190251
2.33000,7.627267336
2.33050,-26.24931192
2.33100,-43.95058757
2.33150,-47.00253164
2.33200,-50.97005894
2.33250,-61.0414744
2.33300,-64.09341847
2.33350,-47.91811487
2.33400,-16.78828528
2.33450,13.12076668
2.33500,33.56879199
2.33550,47.91292915
2.33600,59.51031665
2.33650,61.6466775
2.33700,43.02981863
2.33750,1.523379182
2.33800,-45.78175401
2.33850,-72.9440563
2.33900,-65.92458492
2.33950,-38.76228263
2.34000,-19.22984054
2.34050,-19.84022936
2.34100,-25.94411751
2.34150,-21.06100699
2.34200,-8.548036272
2.34250,-1.528564895
2.34300,2.438962406
2.34350,14.34154431
2.34400,29.9064591
2.34450,34.17918081
2.34500,28.68568147
2.34550,31.43243114
2.34600,45.47137389
2.34650,49.43890119
2.34700,30.82204232
2.34750,8.237656152
2.34800,2.438962406
2.34850,3.964934444
2.34900,-9.463619495
2.34950,-35.71033856
2.35000,-49.74928131
2.35050,-41.2038379
2.35100,-25.02853429
2.35150,-14.65192443
2.35200,-7.937647456
2.35250,-1.528564895
2.35300,-0.002592856037
2.35350,-4.275314564
2.35400,-6.411675418
2.35450,-0.9181760791
2.35500,3.659740036
2.35550,0.3026015517
2.35600,-6.411675418
2.35650,-7.937647456
2.35700,-1.528564895
2.35750,8.237656152
2.35800,18.0038772
2.35850,25.63373739
2.35900,28.07529265
2.35950,26.24412621
2.36000,25.02334858
2.36050,25.9389318
2.36100,24.10776535
2.36150,14.0363499
2.36200,1.218184775
2.36250,-2.749342525
2.36300,2.744156813
2.36350,6.406489706
2.36400,-0.3077872637
2.36450,-9.463619495
2.36500,-5.801286602
2.36550,9.153239375
2.36600,18.0038772
2.36650,12.51037786
2.36700,4.575323259
2.36750,1.82857359
2.36800,-8.548036272
2.36850,-37.541505
2.36900,-63.17783525
2.36950,-55.85316947
2.37000,-21.3662014
2.37050,4.270128852
2.37100,4.270128852
2.37150,-0.002592856037
2.37200,10.67921141
2.37250,25.02334858
2.37300,25.63373739
2.37350,17.69868279
2.37400,16.47790516
2.37450,17.08829398
2.37500,4.880517667
2.37550,-18.92464613
2.37600,-36.62592178
2.37650,-36.93111619
2.37700,-24.41814547
2.37750,-9.768813902
2.37800,0.3026015517
2.37850,4.575323259
2.37900,5.490906483
2.37950,6.101295298
2.38000,6.711684113
2.38050,6.101295298
2.38100,7.932461744
2.38150,17.08829398
2.38200,28.07529265
2.38250,27.46490384
2.38300,11.59479464
2.38350,-8.242841864
2.38400,-24.11295106
2.38450,-36.01553296
2.38500,-42.42461553
2.38550,-33.5739777
2.38600,-7.022064233
2.38650,20.44543246
2.38700,32.04281995
2.38750,26.24412621
2.38800,12.81557227
2.38850,-0.6129816714
2.38900,-12.51556357
2.38950,-18.61945173
2.39000,-16.78828528
2.39050,-12.51556357
2.39100,-9.463619495
2.39150,-5.190897787
2.39200,3.049351221
2.39250,13.42596108
2.39300,18.61426601
2.39350,17.69868279
2.39400,13.12076668
2.39450,7.322072929
2.39500,0.9129903671
2.39550,-3.359731341
2.39600,-4.580508972
2.39650,-3.970120156
2.39700,-2.749342525
2.39750,-2.13895371
2.39800,-4.275314564
2.39850,-12.21036916
2.39900,-21.97659021
2.39950,-27.16489514
2.40000,-25.6389231
2.40050,-22.58697903
2.40100,-20.45061817
2.40150,-14.04153561
2.40200,-0.002592856037
2.40250,13.73115549
2.40300,17.08829398
2.40350,10.98440582
2.40400,7.932461744
2.40450,14.34154431
2.40500,21.36101568
2.40550,20.14023805
2.40600,12.20518345
2.40650,6.406489706
2.40700,5.185712075
2.40750,3.964934444
2.40800,2.438962406
2.40850,4.575323259
2.40900,11.59479464
2.40950,18.91946042
2.41000,22.27659891
2.41050,20.14023805
2.41100,12.51037786
2.41150,2.744156813
2.41200,-1.223370487
2.41250,2.438962406
2.41300,4.575323259
2.41350,-8.242841864
2.41400,-33.2687833
2.41450,-48.52850368
2.41500,-39.98306026
2.41550,-15.26231324
2.41600,7.016878521
2.41650,20.14023805
2.41700,26.54932061
2.41750,26.54932061
2.41800,18.30907161
2.41850,7.932461744
2.41900,5.79610089
2.41950,13.12076668
2.42000,16.17271075
2.42050,5.185712075
2.42100,-10.68439713
2.42150,-11.59998035
2.42200,7.932461744
2.42250,32.65320877
2.42300,39.97787455
2.42350,25.9389318
2.42400,2.438962406
2.42450,-15.87270206
2.42500,-28.38567277
2.42550,-39.06747704
2.42600,-47.91811487
2.42650,-47.61292046
2.42700,-33.5739777
2.42750,-11.29478594
2.42800,5.490906483
2.42850,9.153239375
2.42900,1.218184775
2.42950,-8.853230679
2.43000,-12.51556357
2.43050,-7.327258641
2.43100,2.133767998
2.43150,6.101295298
2.43200,-1.528564895
2.43250,-15.26231324
2.43300,-18.31425732
2.43350,-1.528564895
2.43400,23.80257094
2.43450,38.45190251
2.43500,32.95840318
2.43550,11.89998904
2.43600,-18.00906291
2.43650,-49.1388925
2.43700,-66.22977933
2.43750,-55.54797506
2.43800,-23.19736784
2.43850,5.79610089
2.43900,15.86751634
2.43950,13.73115549
2.44000,13.42596108
2.44050,16.17271075
2.44100,13.42596108
2.44150,4.880517667
2.44200,-0.6129816714
2.44250,-0.002592856037
2.44300,4.880517667
2.44350,10.67921141
2.44400,15.86751634
2.44450,18.61426601
2.44500,17.39348838
2.44550,14.34154431
2.44600,10.98440582
2.44650,6.711684113
2.44700,1.523379182
2.44750,-0.002592856037
2.44800,4.270128852
2.44850,10.67921141
2.44900,15.25712753
2.44950,18.91946042
2.45000,21.9714045
2.45050,20.75062687
2.45100,11.89998904
2.45150,-0.002592856037
2.45200,-7.327258641
2.45250,-10.37920272
2.45300,-14.04153561
2.45350,-18.92464613
2.45400,-21.3662014
2.45450,-19.53503495
2.45500,-14.95711883
2.45550,-7.937647456
2.45600,2.133767998
2.45650,13.12076668
2.45700,21.05582128
2.45750,26.85451502
2.45800,32.04281995
2.45850,32.04281995
2.45900,21.9714045
2.45950,7.932461744
2.46000,2.438962406
2.46050,7.322072929
2.46100,10.0688226
2.46150,3.354545629
2.46200,-6.10648101
2.46250,-10.98959153
2.46300,-11.90517476
2.46350,-17.7038685
2.46400,-29.301256
2.46450,-39.06747704
2.46500,-38.76228263
2.46550,-28.99606159
2.46600,-18.31425732
2.46650,-15.87270206
2.46700,-18.61945173
2.46750,-17.09347969
2.46800,-8.242841864
2.46850,-4.275314564
2.46900,-12.21036916
2.46950,-18.00906291
2.47000,-4.580508972
2.47050,20.75062687
2.47100,32.95840318
2.47150,21.9714045
2.47200,4.880517667
2.47250,-0.6129816714
2.47300,-1.528564895
2.47350,-8.548036272
2.47400,-15.26231324
2.47450,-9.158425087
2.47500,6.406489706
2.47550,15.56232194
2.47600,11.28960023
2.47650,3.049351221
2.47700,1.523379182
2.47750,6.711684113
2.47800,11.28960023
2.47850,11.89998904
2.47900,9.458433783
2.47950,7.322072929
2.48000,6.711684113
2.48050,5.185712075
2.48100,0.6077959594
2.48150,-3.054536933
2.48200,-0.3077872637
2.48250,9.458433783
2.48300,17.69868279
2.48350,16.17271075
2.48400,7.322072929
2.48450,-0.6129816714
2.48500,-5.496092195
2.48550,-9.463619495
2.48600,-13.7363412
2.48650,-16.48309087
2.48700,-18.31425732
2.48750,-20.45061817
2.48800,-19.53503495
2.48850,-9.463619495
2.48900,6.101295298
2.48950,16.78309957
2.49000,15.56232194
2.49050,9.153239375
2.49100,8.848044967
2.49150,14.64673871
2.49200,18.0038772
2.49250,14.34154431
2.49300,7.932461744
2.49350,2.744156813
2.49400,-2.749342525
2.49450,-8.548036272
2.49500,-11.59998035
2.49550,-10.68439713
2.49600,-9.768813902
2.49650,-10.98959153
2.49700,-8.853230679
2.49750,1.218184775
2.49800,13.12076668
2.49850,14.34154431
2.49900,5.79610089
2.49950,1.523379182
2.50000,7.016878521
2.50050,11.89998904
2.50100,5.79610089
2.50150,-2.749342525
2.50200,-0.002592856037
2.50250,11.89998904
2.50300,17.08829398
2.50350,8.848044967
2.50400,-2.13895371
2.50450,-8.548036272
2.50500,-15.56750765
2.50550,-28.08047836
2.50600,-36.62592178
2.50650,-29.301256
2.50700,-8.853230679
2.50750,10.0688226
2.50800,16.78309957
2.50850,12.51037786
2.50900,5.490906483
2.50950,3.964934444
2.51000,10.67921141
2.51050,19.52984924
2.51100,19.52984924
2.51150,5.185712075
2.51200,-15.87270206
2.51250,-30.82722803
2.51300,-30.21683922
2.51350,-15.26231324
2.51400,2.744156813
2.51450,6.406489706
2.51500,-9.463619495
2.51550,-28.69086718
2.51600,-25.94411751
2.51650,-0.3077872637
2.51700,21.36101568
2.51750,19.83504364
2.51800,6.101295298
2.51850,4.880517667
2.51900,18.61426601
2.51950,28.07529265
2.52000,21.66621009
2.52050,7.932461744
2.52100,0.6077959594
2.52150,3.049351221
2.52200,8.237656152
2.52250,8.848044967
2.52300,1.523379182
2.52350,-13.12595239
2.52400,-27.77528396
2.52450,-32.96358889
2.52500,-26.24931192
2.52550,-13.12595239
2.52600,-2.13895371
2.52650,5.185712075
2.52700,12.20518345
2.52750,19.83504364
2.52800,25.32854298
2.52850,26.85451502
2.52900,23.80257094
2.52950,19.22465483
2.53000,12.51037786
2.53050,1.218184775
2.53100,-14.04153561
2.53150,-26.24931192
2.53200,-26.24931192
2.53250,-13.12595239
2.53300,2.438962406
2.53350,11.59479464
2.53400,11.89998904
2.53450,7.016878521
2.53500,1.82857359
2.53550,-0.6129816714
2.53600,0.6077959594
2.53650,2.744156813
2.53700,-1.223370487
2.53750,-10.98959153
2.53800,-17.7038685
2.53850,-15.26231324
2.53900,-9.158425087
2.53950,-7.937647456
2.54000,-9.768813902
2.54050,-9.768813902
2.54100,-10.37920272
2.54150,-18.92464613
2.54200,-32.04800566
2.54250,-36.93111619
2.54300,-25.6389231
2.54350,-6.411675418
2.54400,7.016878521
2.54450,11.89998904
2.54500,12.81557227
2.54550,16.17271075
2.54600,23.49737654
2.54650,30.21165351
2.54700,31.43243114
2.54750,27.77009824
2.54800,23.80257094
2.54850,21.66621009
2.54900,17.39348838
2.54950,8.848044967
2.55000,1.523379182
2.55050,-1.223370487
2.55100,-7.022064233
2.55150,-23.19736784
2.55200,-39.06747704
2.55250,-34.79475533
2.55300,-9.158425087
2.55350,14.95193312
2.55400,17.39348838
2.55450,3.049351221
2.55500,-9.768813902
2.55550,-12.51556357
2.55600,-9.158425087
2.55650,-6.10648101
2.55700,-5.190897787
2.55750,-6.411675418
2.55800,-8.548036272
2.55850,-9.158425087
2.55900,-6.716869825
2.55950,-2.749342525
2.56000,-0.002592856037
2.56050,3.049351221
2.56100,7.016878521
2.56150,12.81557227
2.56200,18.61426601
2.56250,21.9714045
2.56300,21.05582128
2.56350,16.17271075
2.56400,10.37401701
2.56450,6.101295298
2.56500,3.659740036
2.56550,1.523379182
2.56600,-0.002592856037
2.56650,-2.444148118
2.56700,-8.853230679
2.56750,-18.92464613
2.56800,-25.94411751
2.56850,-25.02853429
2.56900,-20.75581258
2.56950,-18.31425732
2.57000,-14.95711883
2.57050,-5.190897787
2.57100,7.322072929
2.57150,14.34154431
2.57200,13.73115549
2.57250,10.98440582
2.57300,9.458433783
2.57350,9.153239375
2.57400,11.28960023
2.57450,19.83504364
2.57500,29.60126469
2.57550,29.60126469
2.57600,15.86751634
2.57650,-1.528564895
2.57700,-12.51556357
2.57750,-17.09347969
2.57800,-21.06100699
2.57850,-25.6389231
2.57900,-24.72333988
2.57950,-17.3986741
2.58000,-10.07400831
2.58050,-8.853230679
2.58100,-11.29478594
2.58150,-10.68439713
2.58200,-3.054536933
2.58250,7.322072929
2.58300,13.73115549
2.58350,12.51037786
2.58400,7.322072929
2.58450,3.354545629
2.58500,2.133767998
2.58550,3.354545629
2.58600,6.406489706
2.58650,10.98440582
2.58700,17.69868279
2.58750,23.80257094
2.58800,25.32854298
2.58850,19.83504364
2.58900,10.67921141
2.58950,4.880517667
2.59000,6.101295298
2.59050,9.458433783
2.59100,10.0688226
2.59150,9.153239375
2.59200,10.0688226
2.59250,10.37401701
2.59300,6.101295298
2.59350,-2.13895371
2.59400,-10.68439713
2.59450,-18.61945173
2.59500,-25.3337287
2.59550,-24.72333988
2.59600,-10.68439713
2.59650,11.59479464
2.59700,30.21165351
2.59750,36.62073607
2.59800,30.82204232
2.59850,12.81557227
2.59900,-15.56750765
2.59950,-42.11942112
2.60000,-47.91811487
2.60050,-32.35320007
2.60100,-14.65192443
2.60150,-10.68439713
2.60200,-13.43114679
2.60250,-6.716869825
2.60300,10.0688226
2.60350,24.41295976
2.60400,26.24412621
2.60450,17.08829398
2.60500,3.659740036
2.60550,-8.548036272
2.60600,-16.17789646
2.60650,-17.7038685
2.60700,-14.34673002
2.60750,-9.158425087
2.60800,-4.580508972
2.60850,-3.970120156
2.60900,-9.463619495
2.60950,-17.3986741
2.61000,-20.45061817
2.61050,-15.56750765
2.61100,-10.07400831
2.61150,-10.07400831
2.61200,-13.43114679
2.61250,-12.82075798
2.61300,-6.411675418
2.61350,1.218184775
2.61400,8.54285056
2.61450,16.78309957
2.61500,26.85451502
2.61550,35.70515285
2.61600,40.58826337
2.61650,40.89345778
2.61700,36.01034725
2.61750,25.63373739
2.61800,10.37401701
2.61850,-7.327258641
2.61900,-24.72333988
2.61950,-39.37267145
2.62000,-47.61292046
2.62050,-46.69733723
2.62100,-36.62592178
2.62150,-21.3662014
2.62200,-7.632453049
2.62250,1.218184775
2.62300,5.490906483
2.62350,6.711684113
2.62400,7.627267336
2.62450,8.54285056
2.62500,8.237656152
2.62550,4.880517667
2.62600,2.438962406
2.62650,6.101295298
2.62700,14.95193312
2.62750,19.83504364
2.62800,16.47790516
2.62850,10.0688226
2.62900,6.101295298
2.62950,3.354545629
2.63000,-0.6129816714
2.63050,-2.749342525
2.63100,-0.6129816714
2.63150,1.218184775
2.63200,-0.3077872637
2.63250,-0.3077872637
2.63300,6.406489706
2.63350,12.81557227
2.63400,7.627267336
2.63450,-4.580508972
2.63500,-10.68439713
2.63550,-6.411675418
2.63600,-1.528564895
2.63650,-1.528564895
2.63700,-0.6129816714
2.63750,3.659740036
2.63800,4.880517667
2.63850,-0.002592856037
2.63900,-2.444148118
2.63950,2.133767998
2.64000,7.627267336
2.64050,7.322072929
2.64100,4.270128852
2.64150,2.438962406
2.64200,-0.3077872637
2.64250,-7.937647456
2.64300,-14.04153561
2.64350,-11.59998035
2.64400,-3.664925748
2.64450,2.438962406
2.64500,5.185712075
2.64550,7.322072929
2.64600,8.54285056
2.64650,7.322072929
2.64700,6.406489706
2.64750,7.627267336
2.64800,6.101295298
2.64850,-2.13895371
2.64900,-10.68439713
2.64950,-9.768813902
2.65000,-2.749342525
2.65050,-2.749342525
2.65100,-13.12595239
2.65150,-23.50256225
2.65200,-24.41814547
2.65250,-18.61945173
2.65300,-10.68439713
2.65350,-0.002592856037
2.65400,15.25712753
2.65450,27.77009824
2.65500,30.21165351
2.65550,23.80257094
2.65600,15.56232194
2.65650,9.76362819
2.65700,7.627267336
2.65750,8.54285056
2.65800,9.153239375
2.65850,5.490906483
2.65900,-1.223370487
2.65950,-3.970120156
2.66000,-2.13895371
2.66050,-3.359731341
2.66100,-9.158425087
2.66150,-8.853230679
2.66200,3.964934444
2.66250,18.0038772
2.66300,18.30907161
2.66350,8.237656152
2.66400,-0.002592856037
2.66450,-5.496092195
2.66500,-14.65192443
2.66550,-23.50256225
2.66600,-25.3337287
2.66650,-24.72333988
2.66700,-32.35320007
2.66750,-39.98306026
2.66800,-28.69086718
2.66850,0.6077959594
2.66900,26.54932061
2.66950,34.17918081
2.67000,32.95840318
2.67050,35.09476403
2.67100,36.62073607
2.67150,25.9389318
2.67200,4.575323259
2.67250,-15.26231324
2.67300,-25.6389231
2.67350,-25.02853429
2.67400,-14.34673002
2.67450,-0.002592856037
2.67500,8.237656152
2.67550,5.79610089
2.67600,-1.528564895
2.67650,-4.885703379
2.67700,-3.664925748
2.67750,-4.885703379
2.67800,-9.768813902
2.67850,-10.98959153
2.67900,-4.885703379
2.67950,1.218184775
2.68000,1.218184775
2.68050,-2.13895371
2.68100,-1.223370487
2.68150,3.964934444
2.68200,7.627267336
2.68250,7.322072929
2.68300,4.575323259
2.68350,0.3026015517
2.68400,-6.716869825
2.68450,-11.29478594
2.68500,-5.801286602
2.68550,5.79610089
2.68600,11.28960023
2.68650,6.711684113
2.68700,2.438962406
2.68750,3.049351221
2.68800,-0.6129816714
2.68850,-14.34673002
2.68900,-25.94411751
2.68950,-22.89217343
2.69000,-10.37920272
2.69050,-1.223370487
2.69100,3.354545629
2.69150,7.322072929
2.69200,6.406489706
2.69250,-3.359731341
2.69300,-11.90517476
2.69350,-7.632453049
2.69400,3.659740036
2.69450,6.101295298
2.69500,-1.223370487
2.69550,-4.885703379
2.69600,2.438962406
2.69650,11.89998904
2.69700,14.64673871
2.69750,12.51037786
2.69800,10.0688226
2.69850,7.627267336
2.69900,4.575323259
2.69950,3.659740036
2.70000,5.185712075
2.70050,6.711684113
2.70100,6.101295298
2.70150,5.185712075
2.70200,4.575323259
2.70250,2.744156813
2.70300,1.523379182
2.70350,3.354545629
2.70400,5.185712075
2.70450,1.523379182
2.70500,-7.327258641
2.70550,-12.82075798
2.70600,-9.463619495
2.70650,-0.002592856037
2.70700,7.016878521
2.70750,8.237656152
2.70800,3.659740036
2.70850,-3.664925748
2.70900,-11.59998035
2.70950,-17.7038685
2.71000,-21.3662014
2.71050,-20.45061817
2.71100,-13.7363412
2.71150,-2.749342525
2.71200,5.490906483
2.71250,8.848044967
2.71300,12.20518345
2.71350,19.22465483
2.71400,23.80257094
2.71450,17.39348838
2.71500,4.270128852
2.71550,-5.801286602
2.71600,-11.29478594
2.71650,-18.00906291
2.71700,-22.89217343
2.71750,-15.26231324
2.71800,3.354545629
2.71850,19.22465483
2.71900,21.05582128
2.71950,14.0363499
2.72000,6.711684113
2.72050,0.6077959594
2.72100,-1.833759302
2.72150,2.744156813
2.72200,10.98440582
2.72250,11.28960023
2.72300,1.82857359
2.72350,-2.749342525
2.72400,4.270128852
2.72450,8.54285056
2.72500,-3.970120156
2.72550,-21.6713958
2.72600,-21.97659021
2.72650,-4.885703379
2.72700,10.0688226
2.72750,12.20518345
2.72800,7.932461744
2.72850,3.354545629
2.72900,-1.528564895
2.72950,-4.885703379
2.73000,-0.9181760791
2.73050,4.880517667
2.73100,-0.002592856037
2.73150,-16.48309087
2.73200,-25.94411751
2.73250,-15.56750765
2.73300,3.964934444
2.73350,13.12076668
2.73400,8.848044967
2.73450,2.438962406
2.73500,0.9129903671
2.73550,0.3026015517
2.73600,-2.749342525
2.73650,-5.190897787
2.73700,-3.359731341
2.73750,-0.002592856037
2.73800,0.9129903671
2.73850,-1.223370487
2.73900,-3.970120156
2.73950,-5.496092195
2.74000,-8.853230679
2.74050,-14.95711883
2.74100,-18.92464613
2.74150,-16.78828528
2.74200,-7.632453049
2.74250,1.82857359
2.74300,7.016878521
2.74350,7.016878521
2.74400,4.880517667
2.74450,1.82857359
2.74500,-1.833759302
2.74550,-7.022064233
2.74600,-11.29478594
2.74650,-12.82075798
2.74700,-11.29478594
2.74750,-9.768813902
2.74800,-10.98959153
2.74850,-11.29478594
2.74900,-7.022064233
2.74950,-0.002592856037
2.75000,3.659740036
2.75050,2.133767998
2.75100,1.523379182
2.75150,5.79610089
2.75200,8.848044967
2.75250,4.270128852
2.75300,-1.833759302
2.75350,-1.223370487
2.75400,4.575323259
2.75450,6.406489706
2.75500,1.523379182
2.75550,-2.749342525
2.75600,-3.970120156
2.75650,-4.885703379
2.75700,-4.275314564
2.75750,3.049351221
2.75800,15.25712753
2.75850,20.75062687
2.75900,15.25712753
2.75950,9.458433783
2.76000,14.64673871
2.76050,26.54932061
2.76100,32.04281995
2.76150,26.54932061
2.76200,15.86751634
2.76250,7.322072929
2.76300,3.964934444
2.76350,5.79610089
2.76400,9.153239375
2.76450,7.322072929
2.76500,-1.833759302
2.76550,-15.26231324
2.76600,-26.85970073
2.76650,-33.87917211
2.76700,-36.62592178
2.76750,-34.18436652
2.76800,-25.6389231
2.76850,-15.26231324
2.76900,-11.29478594
2.76950,-16.78828528
2.77000,-25.02853429
2.77050,-25.3337287
2.77100,-15.26231324
2.77150,-2.13895371
2.77200,6.101295298
2.77250,8.848044967
2.77300,9.76362819
2.77350,10.67921141
2.77400,9.76362819
2.77450,7.627267336
2.77500,6.711684113
2.77550,7.016878521
2.77600,5.79610089
2.77650,3.659740036
2.77700,3.964934444
2.77750,6.406489706
2.77800,6.101295298
2.77850,2.438962406
2.77900,2.133767998
2.77950,7.627267336
2.78000,12.20518345
2.78050,11.28960023
2.78100,7.627267336
2.78150,5.79610089
2.78200,4.270128852
2.78250,-0.9181760791
2.78300,-6.10648101
2.78350,-6.10648101
2.78400,-3.359731341
2.78450,-3.359731341
2.78500,-6.716869825
2.78550,-10.07400831
2.78600,-12.51556357
2.78650,-14.04153561
2.78700,-11.59998035
2.78750,-3.359731341
2.78800,5.185712075
2.78850,7.627267336
2.78900,4.270128852
2.78950,2.133767998
2.79000,3.354545629
2.79050,7.322072929
2.79100,13.73115549
2.79150,22.88698772
2.79200,30.21165351
2.79250,31.73762554
2.79300,28.38048706
2.79350,22.58179331
2.79400,12.51037786
2.79450,-1.528564895
2.79500,-12.51556357
2.79550,-13.43114679
2.79600,-10.68439713
2.79650,-15.26231324
2.79700,-24.11295106
2.79750,-24.11295106
2.79800,-10.68439713
2.79850,3.354545629
2.79900,4.880517667
2.79950,-3.970120156
2.80000,-12.82075798
2.80050,-14.04153561
2.80100,-10.68439713
2.80150,-8.853230679
2.80200,-10.98959153
2.80250,-14.95711883
2.80300,-17.7038685
2.80350,-16.78828528
2.80400,-13.7363412
2.80450,-9.463619495
2.80500,-4.275314564
2.80550,1.523379182
2.80600,6.101295298
2.80650,6.101295298
2.80700,2.133767998
2.80750,-0.9181760791
2.80800,-1.223370487
2.80850,-0.6129816714
2.80900,-1.223370487
2.80950,-0.002592856037
2.81000,5.79610089
2.81050,14.34154431
2.81100,18.0038772
2.81150,12.81557227
2.81200,3.659740036
2.81250,-1.833759302
2.81300,-2.13895371
2.81350,1.218184775
2.81400,5.185712075
2.81450,6.711684113
2.81500,6.101295298
2.81550,3.659740036
2.81600,3.049351221
2.81650,5.185712075
2.81700,8.54285056
2.81750,10.98440582
2.81800,13.73115549
2.81850,20.75062687
2.81900,29.29607028
2.81950,32.04281995
2.82000,23.19218213
2.82050,6.711684113
2.82100,-8.242841864
2.82150,-16.17789646
2.82200,-19.53503495
2.82250,-20.75581258
2.82300,-21.06100699
2.82350,-20.45061817
2.82400,-20.75581258
2.82450,-22.58697903
2.82500,-22.58697903
2.82550,-16.78828528
2.82600,-6.411675418
2.82650,3.354545629
2.82700,9.153239375
2.82750,11.59479464
2.82800,11.28960023
2.82850,8.54285056
2.82900,5.490906483
2.82950,2.744156813
2.83000,-1.223370487
2.83050,-7.937647456
2.83100,-12.82075798
2.83150,-10.98959153
2.83200,-3.359731341
2.83250,4.270128852
2.83300,10.0688226
2.83350,13.73115549
2.83400,12.81557227
2.83450,5.490906483
2.83500,-4.275314564
2.83550,-9.768813902
2.83600,-9.463619495
2.83650,-7.632453049
2.83700,-4.580508972
2.83750,1.218184775
2.83800,6.406489706
2.83850,4.880517667
2.83900,0.9129903671
2.83950,5.185712075
2.84000,15.56232194
2.84050,19.83504364
2.84100,14.64673871
2.84150,10.37401701
2.84200,11.28960023
2.84250,6.101295298
2.84300,-10.68439713
2.84350,-26.55450633
2.84400,-27.16489514
2.84450,-17.09347969
2.84500,-10.07400831
2.84550,-7.937647456
2.84600,-3.664925748
2.84650,1.218184775
2.84700,1.82857359
2.84750,-1.528564895
2.84800,-2.444148118
2.84850,-0.3077872637
2.84900,-0.3077872637
2.84950,-4.580508972
2.85000,-7.022064233
2.85050,-3.970120156
2.85100,2.438962406
2.85150,10.0688226
2.85200,17.69868279
2.85250,25.02334858
2.85300,29.29607028
2.85350,26.24412621
2.85400,14.95193312
2.85450,1.523379182
2.85500,-7.632453049
2.85550,-12.82075798
2.85600,-16.78828528
2.85650,-17.3986741
2.85700,-9.768813902
2.85750,1.82857359
2.85800,7.932461744
2.85850,7.627267336
2.85900,10.0688226
2.85950,16.17271075
2.86000,12.20518345
2.86050,-4.885703379
2.86100,-17.7038685
2.86150,-15.26231324
2.86200,-12.82075798
2.86250,-25.6389231
2.86300,-37.2363106
2.86350,-22.89217343
2.86400,10.0688226
2.86450,27.15970943
2.86500,16.47790516
2.86550,1.218184775
2.86600,2.133767998
2.86650,11.59479464
2.86700,12.81557227
2.86750,7.322072929
2.86800,7.016878521
2.86850,13.12076668
2.86900,17.08829398
2.86950,15.86751634
2.87000,14.0363499
2.87050,15.25712753
2.87100,19.52984924
2.87150,22.88698772
2.87200,21.66621009
2.87250,14.0363499
2.87300,1.218184775
2.87350,-12.51556357
2.87400,-25.3337287
2.87450,-35.09994974
2.87500,-38.76228263
2.87550,-35.71033856
2.87600,-28.38567277
2.87650,-20.75581258
2.87700,-14.34673002
2.87750,-8.548036272
2.87800,-2.444148118
2.87850,3.659740036
2.87900,8.54285056
2.87950,9.458433783
2.88000,6.101295298
2.88050,4.880517667
2.88100,10.37401701
2.88150,16.78309957
2.88200,13.12076668
2.88250,-1.223370487
2.88300,-15.87270206
2.88350,-22.28178462
2.88400,-21.6713958
2.88450,-16.78828528
2.88500,-4.580508972
2.88550,12.51037786
2.88600,25.02334858
2.88650,27.46490384
2.88700,25.02334858
2.88750,25.32854298
2.88800,24.10776535
2.88850,16.78309957
2.88900,7.016878521
2.88950,1.523379182
2.89000,-2.13895371
2.89050,-10.37920272
2.89100,-16.48309087
2.89150,-11.29478594
2.89200,-1.528564895
2.89250,-4.275314564
2.89300,-22.89217343
2.89350,-37.84669941
2.89400,-32.04800566
2.89450,-12.51556357
2.89500,1.523379182
