type,name,time_units,begin_time,frequency,count,units
signal_3d,"Noraxon MyoMotion-Trajectories-Radial styloid process RT","s",0.0000,200,6172,"mm"

time,x,y,z
0.0000,-147.4283542,181.2910868,914.2969997
0.0050,-147.2696442,181.1462426,914.1812989
0.0100,-147.110642,181.0011647,914.0661065
0.0150,-146.9513478,180.8558532,913.9514228
0.0200,-146.7789303,180.7000867,913.8258126
0.0250,-146.5942985,180.5349611,913.6897091
0.0300,-146.3985568,180.3617272,913.5436961
0.0350,-146.1929609,180.1817405,913.3884848
0.0400,-145.9788748,179.9964245,913.2248923
0.0450,-145.7577294,179.8072383,913.0538195
0.0500,-145.5309861,179.6156431,912.8762316
0.0550,-145.3001123,179.4230753,912.6931393
0.0600,-145.0665646,179.2309291,912.5055847
0.0650,-144.8317819,179.0405431,912.3146286
0.0700,-144.5971836,178.8531885,912.1213418
0.0750,-144.3641668,178.6700637,911.9267965
0.0800,-144.1341028,178.4922972,911.7320581
0.0850,-143.9083366,178.3209568,911.5381771
0.0900,-143.6881858,178.1570549,911.3461827
0.0950,-143.4749293,178.0015498,911.1570759
0.1000,-143.2697873,177.8553455,910.971823
0.1050,-143.0738989,177.7192946,910.7913491
0.1100,-142.8882944,177.5941983,910.6165289
0.1150,-142.7138579,177.4807896,910.4481761
0.1200,-142.5512912,177.3796995,910.2870338
0.1250,-142.4010883,177.2914183,910.1337639
0.1300,-142.2635166,177.216266,909.9889376
0.1350,-142.1386039,177.1543766,909.8530228
0.1400,-142.0261317,177.1056894,909.7263703
0.1450,-141.9256372,177.0699417,909.6091974
0.1500,-141.8364262,177.0466708,909.5015674
0.1550,-141.6262049,177.0073344,909.2557622
0.1600,-141.4304282,176.9849585,909.0225482
0.1650,-141.2481193,176.9793927,908.8014608
0.1700,-141.0787639,176.9894383,908.5919136
0.1750,-140.9221815,177.0152485,908.3932805
0.1800,-140.778031,177.0558005,908.2050992
0.1850,-140.6464553,177.1095165,908.026848
0.1900,-140.5256613,177.1758358,907.8577263
0.1950,-140.4161774,177.2543507,907.6973868
0.2000,-140.3168444,177.3443046,907.5451509
0.2050,-140.227934,177.4444687,907.4006133
0.2100,-140.1479636,177.5544303,907.2631203
0.2150,-140.077249,177.6735225,907.1321703
0.2200,-140.015635,177.8010517,907.0073409
0.2250,-139.9640079,177.9352826,906.8886633
0.2300,-139.9219581,178.0756222,906.7757936
0.2350,-139.889308,178.2212401,906.6685078
0.2400,-139.8672088,178.3721591,906.5665563
0.2450,-139.8562791,178.5270813,906.4700387
0.2500,-139.8554783,178.6861372,906.3785397
0.2550,-139.8650706,178.8481255,906.2919473
0.2600,-139.8863574,179.0127418,906.2104583
0.2650,-139.9185562,179.1813806,906.1336952
0.2700,-139.9619472,179.3533213,906.0615018
0.2750,-140.0160889,179.5286096,905.9937161
0.2800,-140.0817856,179.7063561,905.9303654
0.2850,-140.1588979,179.8850772,905.8713028
0.2900,-140.2479773,180.0658828,905.8165445
0.2950,-140.3491591,180.248463,905.7660828
0.3000,-140.4613296,180.4323941,905.7197003
0.3050,-140.5870182,180.6170358,905.6776777
0.3100,-140.7256719,180.8028858,905.640085
0.3150,-140.8761896,180.9892006,905.6065834
0.3200,-141.0401752,181.1766428,905.5773623
0.3250,-141.2173022,181.3656155,905.5522723
0.3300,-141.4064347,181.5568476,905.5311218
0.3350,-141.6072592,181.7517639,905.5135734
0.3400,-141.8197788,181.9505999,905.4996239
0.3450,-142.0444103,182.1526428,905.4893464
0.3500,-142.2788357,182.3595192,905.4819974
0.3550,-142.5230443,182.5712986,905.477635
0.3600,-142.7774267,182.7873752,905.4761666
0.3650,-143.0405376,183.0067091,905.4774046
0.3700,-143.3118621,183.2298458,905.4811203
0.3750,-143.5899761,183.4571229,905.4870286
0.3800,-143.8735506,183.6889248,905.4947896
0.3850,-144.1616238,183.9245928,905.5042257
0.3900,-144.4537905,184.1643804,905.5151531
0.3950,-144.7488311,184.4073864,905.5272526
0.4000,-145.0465739,184.6542268,905.5403599
0.4050,-145.3482659,184.9052842,905.5544843
0.4100,-145.6533257,185.160191,905.5694894
0.4150,-145.9613467,185.4171692,905.5853704
0.4200,-146.2733504,185.6759842,905.6021075
0.4250,-146.5888782,185.9372012,905.6196894
0.4300,-146.9088312,186.2004525,905.6383765
0.4350,-147.2319994,186.4648322,905.657988
0.4400,-147.5580874,186.7292022,905.6785511
0.4450,-147.8856262,186.9937134,905.69989
0.4500,-148.2159354,187.2577834,905.7222835
0.4550,-148.5461449,187.5211123,905.7453815
0.4600,-148.8775927,187.782741,905.7694491
0.4650,-149.2078769,188.0416589,905.7940012
0.4700,-149.5361858,188.2983339,905.8190206
0.4750,-149.8620476,188.5519556,905.8442834
0.4800,-150.1845212,188.8032931,905.8696256
0.4850,-150.5022117,189.0522217,905.8947065
0.4900,-150.8162794,189.2985064,905.9197429
0.4950,-151.1258616,189.5428887,905.9443056
0.5000,-151.4302961,189.7847117,905.9684015
0.5050,-151.7303819,190.024622,905.9919553
0.5100,-152.0277678,190.2638223,906.0152354
0.5150,-152.321242,190.5015231,906.0379889
0.5200,-152.6123004,190.7389024,906.0605256
0.5250,-152.901344,190.9759557,906.0827578
0.5300,-153.1886847,191.2128828,906.104615
0.5350,-153.475987,191.4483417,906.1264878
0.5400,-153.763517,191.6832869,906.1484383
0.5450,-154.0508995,191.9168179,906.1702672
0.5500,-154.340772,192.148717,906.1924679
0.5550,-154.6332463,192.3774112,906.2152381
0.5600,-154.929475,192.6048613,906.238623
0.5650,-155.2298029,192.8287718,906.2627454
0.5700,-155.5339569,193.0482799,906.2877226
0.5750,-155.8423647,193.2631166,906.3137055
0.5800,-156.1548985,193.4714475,906.3407438
0.5850,-156.4714961,193.6754906,906.3688214
0.5900,-156.7917925,193.8737647,906.3979706
0.5950,-157.1151461,194.0653672,906.4280475
0.6000,-157.441874,194.2506613,906.459103
0.6050,-157.7708258,194.4290748,906.4909792
0.6100,-158.1009434,194.6011339,906.5233824
0.6150,-158.433336,194.7668915,906.5564354
0.6200,-158.7660831,194.9276208,906.5898595
0.6250,-159.0989918,195.0826694,906.6236064
0.6300,-159.4310104,195.2329528,906.6574888
0.6350,-159.7629051,195.3783258,906.6917843
0.6400,-160.0932558,195.5199192,906.726179
0.6450,-160.4210893,195.6582902,906.7605123
0.6500,-160.7458642,195.7930164,906.7948766
0.6550,-161.0674884,195.9252807,906.829221
0.6600,-161.3833525,196.0544533,906.8631712
0.6650,-161.6945653,196.180977,906.8969053
0.6700,-161.999658,196.3059126,906.9301857
0.6750,-162.2985945,196.4275801,906.9630212
0.6800,-162.590051,196.5468892,906.9951901
0.6850,-162.8748119,196.6629256,907.0269271
0.6900,-163.1518959,196.7749326,907.058092
0.6950,-163.4220534,196.8826701,907.0889591
0.7000,-163.6828322,196.9857853,907.1190474
0.7050,-163.9334017,197.083714,907.1482097
0.7100,-164.1741245,197.1772006,907.1765552
0.7150,-164.4046533,197.2675003,907.2039355
0.7200,-164.6246404,197.3543601,907.2303322
0.7250,-164.8332641,197.438644,907.2554946
0.7300,-165.0308031,197.52096,907.2793623
0.7350,-165.2172532,197.6008569,907.3018242
0.7400,-165.3929468,197.6801104,907.3228357
0.7450,-165.5575955,197.7584406,907.3422952
0.7500,-165.7100207,197.8353244,907.3598595
0.7550,-165.8528178,197.9134445,907.3758541
0.7600,-165.9845377,197.9924459,907.3899723
0.7650,-166.106259,198.0736436,907.4023092
0.7700,-166.2178597,198.1562634,907.4127639
0.7750,-166.3189566,198.240626,907.4212941
0.7800,-166.4109618,198.3267721,907.4280726
0.7850,-166.4925263,198.4142524,907.4328124
0.7900,-166.5648616,198.5031137,907.4356963
0.7950,-166.6277265,198.5934308,907.4367398
0.8000,-166.6817441,198.6857266,907.4358561
0.8050,-166.7261879,198.7802123,907.433004
0.8100,-166.760905,198.8762393,907.4280752
0.8150,-166.7868175,198.9732868,907.4213077
0.8200,-166.8047852,199.0721501,907.4127563
0.8250,-166.8147845,199.1717809,907.4025058
0.8300,-166.8174093,199.2729737,907.3906866
0.8350,-166.8125608,199.3774092,907.3773121
0.8400,-166.8009677,199.4842118,907.3625286
0.8450,-166.7837603,199.5934211,907.3466265
0.8500,-166.7609761,199.7057434,907.3296762
0.8550,-166.7329147,199.8222177,907.3116782
0.8600,-166.700245,199.94087,907.2928349
0.8650,-166.6641064,200.0618731,907.2735225
0.8700,-166.6249435,200.1849653,907.2537519
0.8750,-166.5833613,200.3092937,907.2337368
0.8800,-166.5396725,200.4362391,907.2134776
0.8850,-166.4935146,200.563209,907.1930145
0.8900,-166.4451685,200.6905786,907.1723195
0.8950,-166.3953169,200.8173136,907.1516158
0.9000,-166.3436407,200.943584,907.130901
0.9050,-166.2907472,201.0693495,907.1102625
0.9100,-166.238637,201.1946051,907.0901564
0.9150,-166.186923,201.3187045,907.0705088
0.9200,-166.1353031,201.4411778,907.0512459
0.9250,-166.0863132,201.5634003,907.0328277
0.9300,-166.0395658,201.6852201,907.0151258
0.9350,-165.9958993,201.808322,906.9982789
0.9400,-165.9565034,201.9316537,906.9825213
0.9450,-165.9213653,202.0560784,906.9678027
0.9500,-165.8924678,202.1837925,906.9544503
0.9550,-165.8696339,202.3134686,906.9423705
0.9600,-165.8545352,202.4472624,906.9318417
0.9650,-165.846472,202.5853904,906.9226763
0.9700,-165.8471571,202.7275506,906.9152467
0.9750,-165.8562253,202.8754928,906.9094455
0.9800,-165.8749825,203.0283103,906.9055621
0.9850,-165.9037578,203.1864531,906.9036525
0.9900,-165.9423471,203.3503182,906.903648
0.9950,-165.9908561,203.5199489,906.9055683
1.0000,-166.0505744,203.6953649,906.9097031
1.0050,-166.1201289,203.876372,906.9158324
1.0100,-166.1987389,204.0611157,906.9238108
1.0150,-166.2864067,204.2490738,906.9337371
1.0200,-166.3826419,204.4402487,906.9454598
1.0250,-166.4876485,204.6333633,906.9591344
1.0300,-166.6011045,204.826913,906.9747285
1.0350,-166.7217323,205.0220012,906.9920518
1.0400,-166.8494227,205.2178455,907.0111173
1.0450,-166.9829678,205.4155454,907.0316291
1.0500,-167.1234306,205.6156588,907.0538691
1.0550,-167.2700141,205.8173074,907.0777174
1.0600,-167.4223761,206.0214792,907.1030444
1.0650,-167.5796837,206.2269268,907.129763
1.0700,-167.741663,206.435684,907.1578161
1.0750,-167.9091137,206.6477497,907.1873012
1.0800,-168.0804399,206.8632571,907.21789
1.0850,-168.2557231,207.0824124,907.2495923
1.0900,-168.4340863,207.3052256,907.2822006
1.0950,-168.6158166,207.532489,907.3157262
1.1000,-168.8000737,207.7642402,907.3500438
1.1050,-168.9869329,207.9997159,907.3850963
1.1100,-169.176173,208.2378545,907.4208739
1.1150,-169.3665799,208.4804022,907.4570581
1.1200,-169.5570124,208.7255853,907.4934794
1.1250,-169.7471132,208.9745588,907.5300138
1.1300,-169.935822,209.2257118,907.5663882
1.1350,-170.1226286,209.4787215,907.6024822
1.1400,-170.3070709,209.7327405,907.6381886
1.1450,-170.4873322,209.9882085,907.6731516
1.1500,-170.6637344,210.2439062,907.7073869
1.1550,-170.8356555,210.4992149,907.7407917
1.1600,-171.0023176,210.7554271,907.7731902
1.1650,-171.1628669,211.0114745,907.804307
1.1700,-171.3168087,211.2687193,907.8341426
1.1750,-171.4638285,211.5265199,907.8624826
1.1800,-171.6038128,211.7860285,907.8893782
1.1850,-171.7366448,212.0460723,907.9147735
1.1900,-171.8634437,212.306776,907.9388823
1.1950,-171.9845232,212.5692326,907.9617809
1.2000,-172.0999755,212.8326511,907.9834543
1.2050,-172.2099257,213.0963786,908.0039175
1.2100,-172.3135936,213.3594572,908.0229271
1.2150,-172.4109274,213.6229182,908.0405187
1.2200,-172.5031014,213.8852979,908.0568545
1.2250,-172.5886603,214.1465468,908.0717082
1.2300,-172.6689463,214.4055809,908.0853289
1.2350,-172.7427863,214.6617307,908.0974079
1.2400,-172.8104244,214.9152782,908.1079957
1.2450,-172.8721185,215.1644996,908.1171623
1.2500,-172.9272391,215.4075717,908.124713
1.2550,-172.9754432,215.646258,908.1306398
1.2600,-173.0171171,215.8784954,908.1350353
1.2650,-173.0529532,216.1036798,908.1380546
1.2700,-173.0809991,216.321621,908.1392764
1.2750,-173.1021279,216.5304771,908.1388834
1.2800,-173.1166147,216.7310793,908.1369527
1.2850,-173.1231287,216.9226587,908.1332023
1.2900,-173.1222717,217.1052356,908.1278167
1.2950,-173.1130688,217.278084,908.1205681
1.3000,-173.0956219,217.4407592,908.1115
1.3050,-173.0715466,217.5934337,908.1009487
1.3100,-173.0395067,217.7360799,908.0886761
1.3150,-172.999561,217.8692462,908.0747147
1.3200,-172.9515847,217.9920667,908.0590505
1.3250,-172.8951462,218.1049968,908.0415683
1.3300,-172.8287091,218.2086844,908.0219885
1.3350,-172.7535916,218.3017607,908.0005594
1.3400,-172.6687584,218.3847088,907.9770964
1.3450,-172.5757627,218.4560358,907.9519556
1.3500,-172.4733755,218.5161285,907.9248423
1.3550,-172.3614883,218.5649361,907.8957123
1.3600,-172.2395964,218.6038501,907.8645057
1.3650,-172.1089572,218.6334306,907.8314822
1.3700,-171.9685946,218.6526693,907.7964033
1.3750,-171.8184672,218.6614277,907.7592626
1.3800,-171.6595024,218.660358,907.7202586
1.3850,-171.4915195,218.6494691,907.6793354
1.3900,-171.3155916,218.6295373,907.6367394
1.3950,-171.1312432,218.5997864,907.592348
1.4000,-170.9400123,218.5596941,907.5464939
1.4050,-170.7409928,218.5090847,907.4989696
1.4100,-170.5350649,218.4493845,907.4499578
1.4150,-170.3237021,218.379149,907.39977
1.4200,-170.1057498,218.2986842,907.3481546
1.4250,-169.8826655,218.2073874,907.2954325
1.4300,-169.6557714,218.1058533,907.2419221
1.4350,-169.4242217,217.9933575,907.187429
1.4400,-169.1891075,217.8707122,907.1322144
1.4450,-168.9518347,217.7376453,907.0765706
1.4500,-168.7105783,217.5947361,907.0201313
1.4550,-168.4657403,217.4423832,906.9630094
1.4600,-168.2174021,217.2793564,906.9052106
1.4650,-167.9659423,217.1066976,906.846853
1.4700,-167.7111818,216.9239496,906.7878826
1.4750,-167.4527475,216.7325302,906.7282599
1.4800,-167.1918495,216.5313966,906.6682008
1.4850,-166.9281309,216.3215227,906.6076485
1.4900,-166.6608515,216.1034904,906.5464902
1.4950,-166.389492,215.8771161,906.4846421
1.5000,-166.1148214,215.6424624,906.4222459
1.5050,-165.8368748,215.4004468,906.3593506
1.5100,-165.5555981,215.1519041,906.2959774
1.5150,-165.2718282,214.8959297,906.2323037
1.5200,-164.9852125,214.6333105,906.168313
1.5250,-164.6962893,214.3629934,906.1040796
1.5300,-164.4053599,214.085047,906.0397183
1.5350,-164.1124137,213.7987831,905.9752533
1.5400,-163.8176782,213.5050017,905.9107799
1.5450,-163.5205546,213.204566,905.8461584
1.5500,-163.2217096,212.8979098,905.7815844
1.5550,-162.921935,212.582697,905.7172334
1.5600,-162.6206092,212.2602369,905.6529956
1.5650,-162.3175115,211.9313153,905.5888662
1.5700,-162.013872,211.594858,905.525126
1.5750,-161.7098529,211.2511301,905.4618141
1.5800,-161.4051065,210.9006404,905.3989005
1.5850,-161.1009753,210.543175,905.3366677
1.5900,-160.7972741,210.1798793,905.2751037
1.5950,-160.4947497,209.810439,905.2143704
1.6000,-160.1929258,209.4356781,905.1543938
1.6050,-159.8923454,209.0567178,905.0952881
1.6100,-159.5937885,208.6749286,905.0371967
1.6150,-159.2964054,208.2901384,904.9799714
1.6200,-159.0004332,207.9039526,904.9236522
1.6250,-158.7076875,207.5167978,904.8685788
1.6300,-158.4180708,207.1316116,904.8146963
1.6350,-158.1331008,206.7490181,904.7622934
1.6400,-157.8526582,206.3679635,904.7113295
1.6450,-157.5763851,205.9921716,904.661683
1.6500,-157.3066587,205.6233864,904.6137616
1.6550,-157.0444255,205.2622202,904.5677224
1.6600,-156.7907747,204.9099124,904.5237265
1.6650,-156.5446496,204.5684534,904.4815048
1.6700,-156.3067418,204.2385082,904.441119
1.6750,-156.077131,203.9222917,904.4025337
1.6800,-155.8555022,203.6194164,904.3656272
1.6850,-155.6440606,203.3313343,904.3307397
1.6900,-155.4414757,203.0587136,904.2975527
1.6950,-155.2487569,202.8021566,904.2661918
1.7000,-155.0656832,202.5635713,904.2365301
1.7050,-154.893736,202.3429463,904.2087909
1.7100,-154.7313988,202.140569,904.1826374
1.7150,-154.5787007,201.9575904,904.1580145
1.7200,-154.4366367,201.7933725,904.1350414
1.7250,-154.3035108,201.6487236,904.11335
1.7300,-154.1778032,201.522981,904.092636
1.7350,-154.0599586,201.4156092,904.0729453
1.7400,-153.948004,201.3253589,904.0539132
1.7450,-153.8425501,201.2524985,904.0356351
1.7500,-153.7435304,201.1947429,904.0181289
1.7550,-153.6494407,201.1519191,904.0010905
1.7600,-153.5599571,201.1234269,903.9844726
1.7650,-153.4735097,201.1092644,903.9680035
1.7700,-153.3900623,201.1083266,903.9516906
1.7750,-153.3081439,201.1194591,903.935322
1.7800,-153.2261076,201.1418743,903.9186495
1.7850,-153.1439083,201.1759384,903.9016799
1.7900,-153.0605824,201.2188302,903.8843086
1.7950,-152.9767112,201.2706368,903.8666676
1.8000,-152.8917842,201.3304863,903.8487228
1.8050,-152.806106,201.3974295,903.8305548
1.8100,-152.7197176,201.4699356,903.8122314
1.8150,-152.631848,201.5475719,903.7936387
1.8200,-152.5438763,201.6304785,903.7750427
1.8250,-152.4547566,201.7176924,903.7562814
1.8300,-152.3653587,201.8098232,903.7374982
1.8350,-152.2753737,201.9068495,903.7186422
1.8400,-152.1849058,202.007595,903.6997453
1.8450,-152.0950096,202.1109224,903.6810269
1.8500,-152.0047143,202.2173136,903.6622869
1.8550,-151.9142166,202.3273911,903.6435449
1.8600,-151.8238009,202.4396558,903.6248678
1.8650,-151.7330263,202.5551054,903.6061441
1.8700,-151.6416345,202.6734334,903.587341
1.8750,-151.5498398,202.7952971,903.5684673
1.8800,-151.4569672,202.9200401,903.5494141
1.8850,-151.3632967,203.0481324,903.5302214
1.8900,-151.26839,203.1793809,903.510805
1.8950,-151.1732938,203.316215,903.4913209
1.9000,-151.0775615,203.4581635,903.4716987
1.9050,-150.9805012,203.6047336,903.4518148
1.9100,-150.8821497,203.7566351,903.4316781
1.9150,-150.7832056,203.9133369,903.4114134
1.9200,-150.6844443,204.0749448,903.3911634
1.9250,-150.5848471,204.2414423,903.3707575
1.9300,-150.4857014,204.4116373,903.3504497
1.9350,-150.3875095,204.586475,903.3303204
1.9400,-150.2911537,204.7663978,903.3105221
1.9450,-150.1983276,204.9498909,903.2913849
1.9500,-150.1084563,205.1349425,903.2728422
1.9550,-150.0210554,205.3229591,903.2548132
1.9600,-149.9371301,205.5123443,903.2375075
1.9650,-149.8582172,205.7023514,903.2212115
1.9700,-149.7850572,205.8923072,903.2060672
1.9750,-149.7166321,206.0824369,903.1919102
1.9800,-149.6539765,206.2724227,903.1789264
1.9850,-149.5961486,206.4615059,903.166958
1.9900,-149.5435887,206.649317,903.1560883
1.9950,-149.497077,206.8342195,903.1464606
2.0000,-149.4551156,207.0150399,903.1378189
2.0050,-149.417653,207.1914108,903.1301511
2.0100,-149.3841525,207.3625528,903.1233541
2.0150,-149.3548593,207.526968,903.1174738
2.0200,-149.327933,207.6853864,903.1121635
2.0250,-149.3027124,207.8360372,903.1073111
2.0300,-149.2790539,207.9799887,903.1028757
2.0350,-149.2552107,208.1181802,903.0985376
2.0400,-149.2308129,208.2527779,903.0942147
2.0450,-149.2034745,208.384247,903.0894824
2.0500,-149.1737797,208.5120672,903.0844465
2.0550,-149.1406144,208.6385738,903.0788985
2.0600,-149.1022733,208.7632456,903.0725409
2.0650,-149.0591428,208.8862064,903.0654414
2.0700,-149.0104598,209.0075432,903.0574591
2.0750,-148.9564986,209.127868,903.0486453
2.0800,-148.8961686,209.2461247,903.0388183
2.0850,-148.8298621,209.3614701,903.0280478
2.0900,-148.7583301,209.474966,903.0164529
2.0950,-148.68007,209.5847193,903.0037844
2.1000,-148.5956754,209.690059,902.9901392
2.1050,-148.504317,209.7902908,902.975359
2.1100,-148.4068585,209.8837306,902.959588
2.1150,-148.30418,209.9695396,902.9429755
2.1200,-148.1960697,210.0458771,902.9254711
2.1250,-148.0846245,210.1132993,902.9074362
2.1300,-147.969516,210.1688866,902.8888039
2.1350,-147.8514931,210.2121103,902.8696994
2.1400,-147.7319689,210.242291,902.8503437
2.1450,-147.6110738,210.2589559,902.8307427
2.1500,-147.4906974,210.2606609,902.8112258
2.1550,-147.3712778,210.2471925,902.7918562
2.1600,-147.2542381,210.2203299,902.7728658
2.1650,-147.1405096,210.1786802,902.7544161
2.1700,-147.0307542,210.1250996,902.7366373
2.1750,-146.9247329,210.0604671,902.719472
2.1800,-146.8241332,209.9859736,902.7032375
2.1850,-146.7290897,209.9041665,902.6879501
2.1900,-146.6407775,209.815976,902.6738244
2.1950,-146.5570853,209.7219733,902.6605075
2.2000,-146.4795201,209.623416,902.6482647
2.2050,-146.4073734,209.5211937,902.6369709
2.2100,-146.3417597,209.4158423,902.6268272
2.2150,-146.2834807,209.3085841,902.6179604
2.2200,-146.2317642,209.1995892,902.6102503
2.2250,-146.1871742,209.0892525,902.603772
2.2300,-146.1507116,208.9778085,902.5986902
2.2350,-146.1219946,208.8649796,902.5949153
2.2400,-146.1018968,208.7518709,902.5925809
2.2450,-146.0909957,208.6388426,902.5917727
2.2500,-146.0889449,208.5259318,902.5923841
2.2550,-146.0970124,208.4124919,902.5946261
2.2600,-146.1151703,208.2975523,902.5984767
2.2650,-146.1424931,208.1821998,902.6037604
