type,name,time_units,begin_time,frequency,count,units
signal,"Noraxon MyoMotion-Segments-Forearm RT-Course","s",0.0000,200,6172,"deg"

time,value
0.0000,-164.2704084
0.0050,-164.2248675
0.0100,-164.1793556
0.0150,-164.1338729
0.0200,-164.084098
0.0250,-164.0301391
0.0300,-163.9721278
0.0350,-163.9102119
0.0400,-163.8445533
0.0450,-163.7753275
0.0500,-163.7027245
0.0550,-163.626952
0.0600,-163.548241
0.0650,-163.4668509
0.0700,-163.3830759
0.0750,-163.2972482
0.0800,-163.2097409
0.0850,-163.1209714
0.0900,-163.0314049
0.0950,-162.9415555
0.1000,-162.8519851
0.1050,-162.7633013
0.1100,-162.6761537
0.1150,-162.5912263
0.1200,-162.5092271
0.1250,-162.4308746
0.1300,-162.3568809
0.1350,-162.2879301
0.1400,-162.2246565
0.1450,-162.1676221
0.1500,-162.1172928
0.1550,-162.02201
0.1600,-161.9351926
0.1650,-161.8567291
0.1700,-161.7864967
0.1750,-161.7241356
0.1800,-161.669373
0.1850,-161.6215362
0.1900,-161.5803343
0.1950,-161.5454119
0.2000,-161.5161788
0.2050,-161.4920901
0.2100,-161.4723806
0.2150,-161.4564022
0.2200,-161.4434479
0.2250,-161.4329131
0.2300,-161.4240616
0.2350,-161.4162534
0.2400,-161.4090561
0.2450,-161.4023982
0.2500,-161.3956637
0.2550,-161.3885862
0.2600,-161.3809704
0.2650,-161.3730244
0.2700,-161.364277
0.2750,-161.3548274
0.2800,-161.3448027
0.2850,-161.3337445
0.2900,-161.3214846
0.2950,-161.307913
0.3000,-161.292894
0.3050,-161.2761321
0.3100,-161.2574938
0.3150,-161.2370259
0.3200,-161.2146068
0.3250,-161.1901939
0.3300,-161.1635646
0.3350,-161.1347014
0.3400,-161.1034231
0.3450,-161.0696097
0.3500,-161.0333369
0.3550,-160.9945857
0.3600,-160.9534032
0.3650,-160.9098653
0.3700,-160.8640783
0.3750,-160.8163843
0.3800,-160.7673383
0.3850,-160.7173991
0.3900,-160.6667549
0.3950,-160.6156546
0.4000,-160.5645745
0.4050,-160.5134142
0.4100,-160.4623631
0.4150,-160.4115467
0.4200,-160.3608887
0.4250,-160.3103633
0.4300,-160.2601226
0.4350,-160.2102558
0.4400,-160.1610002
0.4450,-160.1122854
0.4500,-160.0645296
0.4550,-160.0177597
0.4600,-159.9721883
0.4650,-159.9281385
0.4700,-159.885764
0.4750,-159.845143
0.4800,-159.8063379
0.4850,-159.769682
0.4900,-159.7352659
0.4950,-159.7028956
0.5000,-159.6725811
0.5050,-159.6441486
0.5100,-159.6178842
0.5150,-159.5935993
0.5200,-159.5711451
0.5250,-159.5504016
0.5300,-159.5311825
0.5350,-159.513127
0.5400,-159.4957632
0.5450,-159.4786522
0.5500,-159.461447
0.5550,-159.4438086
0.5600,-159.4252974
0.5650,-159.405343
0.5700,-159.3836482
0.5750,-159.3597935
0.5800,-159.3334132
0.5850,-159.3044779
0.5900,-159.272693
0.5950,-159.2382654
0.6000,-159.2010053
0.6050,-159.1612014
0.6100,-159.1190056
0.6150,-159.0743996
0.6200,-159.0274823
0.6250,-158.9781573
0.6300,-158.9268925
0.6350,-158.8738698
0.6400,-158.819461
0.6450,-158.7639546
0.6500,-158.707555
0.6550,-158.6507031
0.6600,-158.5937582
0.6650,-158.5370561
0.6700,-158.4808073
0.6750,-158.4255957
0.6800,-158.3712049
0.6850,-158.3179802
0.6900,-158.2662863
0.6950,-158.2163792
0.7000,-158.1682996
0.7050,-158.1225334
0.7100,-158.0793389
0.7150,-158.0389082
0.7200,-158.0015081
0.7250,-157.9671146
0.7300,-157.9357829
0.7350,-157.9074359
0.7400,-157.8815829
0.7450,-157.8581521
0.7500,-157.8370018
0.7550,-157.8177269
0.7600,-157.8001224
0.7650,-157.7837527
0.7700,-157.7685628
0.7750,-157.754416
0.7800,-157.7412533
0.7850,-157.7290079
0.7900,-157.7178042
0.7950,-157.707913
0.8000,-157.6996289
0.8050,-157.6933177
0.8100,-157.6891346
0.8150,-157.6873637
0.8200,-157.688226
0.8250,-157.6914267
0.8300,-157.6965966
0.8350,-157.7035167
0.8400,-157.7116851
0.8450,-157.7207928
0.8500,-157.7303921
0.8550,-157.7402324
0.8600,-157.7500387
0.8650,-157.7596146
0.8700,-157.7688584
0.8750,-157.7777391
0.8800,-157.7863182
0.8850,-157.7947048
0.8900,-157.8030704
0.8950,-157.8111332
0.9000,-157.8192012
0.9050,-157.8271655
0.9100,-157.8351425
0.9150,-157.843216
0.9200,-157.8513051
0.9250,-157.8594535
0.9300,-157.8675184
0.9350,-157.8752907
0.9400,-157.8825385
0.9450,-157.8889606
0.9500,-157.8944125
0.9550,-157.8985987
0.9600,-157.9012087
0.9650,-157.9020595
0.9700,-157.900975
0.9750,-157.8974051
0.9800,-157.8916402
0.9850,-157.8834593
0.9900,-157.873128
0.9950,-157.8606675
1.0000,-157.8465278
1.0050,-157.8311249
1.0100,-157.8146879
1.0150,-157.7976825
1.0200,-157.7805009
1.0250,-157.7634456
1.0300,-157.746554
1.0350,-157.7298293
1.0400,-157.7133983
1.0450,-157.696845
1.0500,-157.6797662
1.0550,-157.6621487
1.0600,-157.6436357
1.0650,-157.6243797
1.0700,-157.6039868
1.0750,-157.5825516
1.0800,-157.5601024
1.0850,-157.5367059
1.0900,-157.5125385
1.0950,-157.4877594
1.1000,-157.4625545
1.1050,-157.4372908
1.1100,-157.4120834
1.1150,-157.3872383
1.1200,-157.3632886
1.1250,-157.3408606
1.1300,-157.3207948
1.1350,-157.3036891
1.1400,-157.2903507
1.1450,-157.2812776
1.1500,-157.2769162
1.1550,-157.2771925
1.1600,-157.2822683
1.1650,-157.2918557
1.1700,-157.3055112
1.1750,-157.3227556
1.1800,-157.3428915
1.1850,-157.3652517
1.1900,-157.3891655
1.1950,-157.4140685
1.2000,-157.4394514
1.2050,-157.4649912
1.2100,-157.4901932
1.2150,-157.5148593
1.2200,-157.5387885
1.2250,-157.5621508
1.2300,-157.5847829
1.2350,-157.6067936
1.2400,-157.6284363
1.2450,-157.6498452
1.2500,-157.6709205
1.2550,-157.6915738
1.2600,-157.711688
1.2650,-157.7311904
1.2700,-157.7500551
1.2750,-157.7684183
1.2800,-157.7863177
1.2850,-157.8038457
1.2900,-157.8210271
1.2950,-157.8381234
1.3000,-157.8550344
1.3050,-157.8716456
1.3100,-157.8882212
1.3150,-157.9047206
1.3200,-157.9209359
1.3250,-157.9369916
1.3300,-157.9528451
1.3350,-157.9688813
1.3400,-157.9849987
1.3450,-158.0013747
1.3500,-158.0184331
1.3550,-158.0358852
1.3600,-158.054094
1.3650,-158.0728632
1.3700,-158.0922968
1.3750,-158.1123753
1.3800,-158.1330673
1.3850,-158.154323
1.3900,-158.1759787
1.3950,-158.1979429
1.4000,-158.2200284
1.4050,-158.2419374
1.4100,-158.2636289
1.4150,-158.2849691
1.4200,-158.305806
1.4250,-158.3259856
1.4300,-158.3452667
1.4350,-158.3636002
1.4400,-158.3808409
1.4450,-158.3967145
1.4500,-158.4110629
1.4550,-158.423622
1.4600,-158.4342345
1.4650,-158.4425512
1.4700,-158.4484869
1.4750,-158.4517435
1.4800,-158.4521233
1.4850,-158.4494676
1.4900,-158.4436695
1.4950,-158.4350476
1.5000,-158.4232696
1.5050,-158.4087118
1.5100,-158.3915003
1.5150,-158.3716584
1.5200,-158.3495784
1.5250,-158.3253795
1.5300,-158.2994526
1.5350,-158.2720469
1.5400,-158.2434538
1.5450,-158.2139662
1.5500,-158.1840793
1.5550,-158.1542516
1.5600,-158.1247299
1.5650,-158.0958683
1.5700,-158.0679272
1.5750,-158.0411992
1.5800,-158.0159454
1.5850,-157.9922933
1.5900,-157.9703238
1.5950,-157.9500509
1.6000,-157.931321
1.6050,-157.9141707
1.6100,-157.8983017
1.6150,-157.8838502
1.6200,-157.8708448
1.6250,-157.859306
1.6300,-157.8494394
1.6350,-157.8411334
1.6400,-157.8347776
1.6450,-157.8305142
1.6500,-157.8279645
1.6550,-157.8274016
1.6600,-157.8284999
1.6650,-157.830881
1.6700,-157.8340731
1.6750,-157.8373364
1.6800,-157.8403477
1.6850,-157.8425033
1.6900,-157.84358
1.6950,-157.842984
1.7000,-157.8407187
1.7050,-157.8363247
1.7100,-157.8294468
1.7150,-157.8198913
1.7200,-157.807196
1.7250,-157.7911535
1.7300,-157.771586
1.7350,-157.7482007
1.7400,-157.7208719
1.7450,-157.6894937
1.7500,-157.6540451
1.7550,-157.6149799
1.7600,-157.5723256
1.7650,-157.5268009
1.7700,-157.4787227
1.7750,-157.4287994
1.7800,-157.3777115
1.7850,-157.325497
1.7900,-157.2726277
1.7950,-157.2190451
1.8000,-157.1652283
1.8050,-157.1108189
1.8100,-157.0558965
1.8150,-157.0004778
1.8200,-156.9442762
1.8250,-156.8868304
1.8300,-156.827866
1.8350,-156.7670322
1.8400,-156.7041557
1.8450,-156.6392592
1.8500,-156.5720636
1.8550,-156.5026292
1.8600,-156.4311621
1.8650,-156.3578668
1.8700,-156.2830959
1.8750,-156.207231
1.8800,-156.1304012
1.8850,-156.0532156
1.8900,-155.9759921
1.8950,-155.8991611
1.9000,-155.8229339
1.9050,-155.7471426
1.9100,-155.6717498
1.9150,-155.5961899
1.9200,-155.5203419
1.9250,-155.4436924
1.9300,-155.3657647
1.9350,-155.2860077
1.9400,-155.2037057
1.9450,-155.1186161
1.9500,-155.0304598
1.9550,-154.939005
1.9600,-154.8442393
1.9650,-154.7463501
1.9700,-154.6456386
1.9750,-154.5426258
1.9800,-154.4374107
1.9850,-154.3303287
1.9900,-154.2215337
1.9950,-154.1116772
2.0000,-154.000918
2.0050,-153.889735
2.0100,-153.7783376
2.0150,-153.6667136
2.0200,-153.5551365
2.0250,-153.4438687
2.0300,-153.3327651
2.0350,-153.2219917
2.0400,-153.1115275
2.0450,-153.0012664
2.0500,-152.8914779
2.0550,-152.782215
2.0600,-152.6736622
2.0650,-152.5657938
2.0700,-152.4588417
2.0750,-152.3527197
2.0800,-152.2474721
2.0850,-152.1436411
2.0900,-152.041178
2.0950,-151.9401617
2.1000,-151.8405642
2.1050,-151.7422105
2.1100,-151.6448345
2.1150,-151.5481005
2.1200,-151.4517836
2.1250,-151.3558598
2.1300,-151.2602174
2.1350,-151.1646682
2.1400,-151.068694
2.1450,-150.9719161
2.1500,-150.8739599
2.1550,-150.774388
2.1600,-150.6729129
2.1650,-150.5689564
2.1700,-150.46198
2.1750,-150.3514511
2.1800,-150.237186
2.1850,-150.1189585
2.1900,-149.9968156
2.1950,-149.8708373
2.2000,-149.7416354
2.2050,-149.6099572
2.2100,-149.4766179
2.2150,-149.3427033
2.2200,-149.2086591
2.2250,-149.0750963
2.2300,-148.9425401
2.2350,-148.8112464
2.2400,-148.6814345
2.2450,-148.5529336
2.2500,-148.4256354
2.2550,-148.2993587
2.2600,-148.1738384
2.2650,-148.0488909
2.2700,-147.9243553
2.2750,-147.8003236
2.2800,-147.6767928
2.2850,-147.5541081
2.2900,-147.4323422
2.2950,-147.3116308
2.3000,-147.1921761
2.3050,-147.0739419
2.3100,-146.9574402
2.3150,-146.8428629
2.3200,-146.7303309
2.3250,-146.620062
2.3300,-146.5121149
2.3350,-146.406956
2.3400,-146.30478
2.3450,-146.2058793
2.3500,-146.110137
2.3550,-146.0178003
2.3600,-145.928762
2.3650,-145.8429247
2.3700,-145.7602386
2.3750,-145.680641
2.3800,-145.6039295
2.3850,-145.5296876
2.3900,-145.4575873
2.3950,-145.3876312
2.4000,-145.3193752
2.4050,-145.2527793
2.4100,-145.1876375
2.4150,-145.1240514
2.4200,-145.0618439
2.4250,-145.0008368
2.4300,-144.9408641
2.4350,-144.8818495
2.4400,-144.8240288
2.4450,-144.7671951
2.4500,-144.7114111
2.4550,-144.6566036
2.4600,-144.6027649
2.4650,-144.5500433
2.4700,-144.4986871
2.4750,-144.449031
2.4800,-144.4011492
2.4850,-144.3553866
2.4900,-144.3116462
2.4950,-144.2703922
2.5000,-144.2315468
2.5050,-144.1950926
2.5100,-144.1609785
2.5150,-144.128834
2.5200,-144.0985466
2.5250,-144.0699546
2.5300,-144.0427771
2.5350,-144.0168901
2.5400,-143.9923759
2.5450,-143.9692426
2.5500,-143.9472596
2.5550,-143.9263742
2.5600,-143.9065913
2.5650,-143.8878975
2.5700,-143.8702675
2.5750,-143.8534521
2.5800,-143.8375671
2.5850,-143.8225341
2.5900,-143.8084755
2.5950,-143.7951724
2.6000,-143.7823865
2.6050,-143.769928
2.6100,-143.7576282
2.6150,-143.7455438
2.6200,-143.7335068
2.6250,-143.721188
2.6300,-143.7088804
2.6350,-143.6962338
2.6400,-143.6831858
2.6450,-143.6699027
2.6500,-143.656503
2.6550,-143.6425708
2.6600,-143.628401
2.6650,-143.6138989
2.6700,-143.5989581
2.6750,-143.5835107
2.6800,-143.5673205
2.6850,-143.5505131
2.6900,-143.5331824
2.6950,-143.5152957
2.7000,-143.4968653
2.7050,-143.4779878
2.7100,-143.4588092
2.7150,-143.4393866
2.7200,-143.4199679
2.7250,-143.4006821
2.7300,-143.3817761
2.7350,-143.3633072
2.7400,-143.3452238
2.7450,-143.3276008
2.7500,-143.3107145
2.7550,-143.2945823
2.7600,-143.2793326
2.7650,-143.2650663
2.7700,-143.2518328
2.7750,-143.2395614
2.7800,-143.2285262
2.7850,-143.2186218
2.7900,-143.2102928
2.7950,-143.2033391
2.8000,-143.1980168
2.8050,-143.1943622
2.8100,-143.1923258
2.8150,-143.192023
2.8200,-143.1934629
2.8250,-143.1967263
2.8300,-143.2017391
2.8350,-143.2085976
2.8400,-143.2172095
2.8450,-143.2273844
2.8500,-143.2393404
2.8550,-143.2530195
2.8600,-143.2681764
2.8650,-143.284873
2.8700,-143.3029193
2.8750,-143.322398
2.8800,-143.343054
2.8850,-143.3647158
2.8900,-143.3872537
2.8950,-143.4105072
2.9000,-143.4345623
2.9050,-143.4594481
2.9100,-143.4850707
2.9150,-143.511238
2.9200,-143.5378421
2.9250,-143.5649231
2.9300,-143.5923039
2.9350,-143.6198139
2.9400,-143.647303
2.9450,-143.6744114
2.9500,-143.700943
2.9550,-143.7268174
2.9600,-143.7517492
2.9650,-143.775761
2.9700,-143.7987909
2.9750,-143.8207335
2.9800,-143.8416771
2.9850,-143.8615277
2.9900,-143.8801903
2.9950,-143.8975131
3.0000,-143.9136635
3.0050,-143.9286234
3.0100,-143.9425224
3.0150,-143.9551604
3.0200,-143.9666889
3.0250,-143.977305
3.0300,-143.9869778
3.0350,-143.9956582
3.0400,-144.0034005
3.0450,-144.0103177
3.0500,-144.0161261
3.0550,-144.0209016
3.0600,-144.0246491
3.0650,-144.0273956
3.0700,-144.0293148
3.0750,-144.030404
3.0800,-144.0308781
3.0850,-144.0308005
3.0900,-144.030173
3.0950,-144.0290076
3.1000,-144.0273819
3.1050,-144.0253403
3.1100,-144.0228786
3.1150,-144.0201018
3.1200,-144.0169561
3.1250,-144.0133919
3.1300,-144.0095144
3.1350,-144.0052786
3.1400,-144.000578
3.1450,-143.9955797
3.1500,-143.9904146
3.1550,-143.9852006
3.1600,-143.9802326
3.1650,-143.9755439
3.1700,-143.9712496
3.1750,-143.9674687
3.1800,-143.9644565
3.1850,-143.9622443
3.1900,-143.9608815
3.1950,-143.9604246
3.2000,-143.9606495
3.2050,-143.9617115
3.2100,-143.9633823
3.2150,-143.9656623
3.2200,-143.968501
3.2250,-143.9717189
3.2300,-143.9751699
3.2350,-143.9787847
3.2400,-143.9824428
3.2450,-143.9860496
3.2500,-143.9896063
3.2550,-143.9930909
3.2600,-143.996629
3.2650,-144.0001891
3.2700,-144.0037901
3.2750,-144.0073163
3.2800,-144.0108092
3.2850,-144.0143329
3.2900,-144.0177824
3.2950,-144.021098
3.3000,-144.0242115
3.3050,-144.026982
3.3100,-144.029323
3.3150,-144.0311767
3.3200,-144.0323613
3.3250,-144.032741
3.3300,-144.0324642
3.3350,-144.0316976
3.3400,-144.0302596
3.3450,-144.028137
3.3500,-144.0254242
3.3550,-144.0218983
3.3600,-144.0172301
3.3650,-144.011232
3.3700,-144.0035307
3.3750,-143.9943452
3.3800,-143.9833289
3.3850,-143.9706049
3.3900,-143.9561714
3.3950,-143.9400388
3.4000,-143.9222034
3.4050,-143.9028772
3.4100,-143.882184
3.4150,-143.8602634
3.4200,-143.8371678
3.4250,-143.8131771
3.4300,-143.7883576
3.4350,-143.7627009
3.4400,-143.73637
3.4450,-143.7093124
3.4500,-143.6814769
3.4550,-143.6528604
3.4600,-143.6233293
3.4650,-143.5928835
3.4700,-143.5615902
3.4750,-143.5295403
3.4800,-143.4966676
3.4850,-143.4630557
3.4900,-143.4288347
3.4950,-143.3941862
3.5000,-143.3592119
3.5050,-143.3241154
3.5100,-143.2888654
3.5150,-143.2534942
3.5200,-143.2181644
3.5250,-143.1830012
3.5300,-143.1480185
3.5350,-143.1132204
3.5400,-143.0787735
3.5450,-143.0448757
3.5500,-143.0116088
3.5550,-142.9790778
3.5600,-142.9472448
3.5650,-142.9163061
3.5700,-142.8863295
3.5750,-142.8575407
3.5800,-142.8299608
3.5850,-142.803435
3.5900,-142.7782573
3.5950,-142.754181
3.6000,-142.7308639
3.6050,-142.7083436
3.6100,-142.68614
3.6150,-142.6640199
3.6200,-142.641566
3.6250,-142.6185248
3.6300,-142.5943583
3.6350,-142.5688643
3.6400,-142.5419568
3.6450,-142.5135087
3.6500,-142.4833217
3.6550,-142.4514433
3.6600,-142.4178205
3.6650,-142.3825261
3.6700,-142.345516
3.6750,-142.3066687
3.6800,-142.2661878
3.6850,-142.2240712
3.6900,-142.1805531
3.6950,-142.1358084
3.7000,-142.0899895
3.7050,-142.0431262
3.7100,-141.9954517
3.7150,-141.9469596
3.7200,-141.8980855
3.7250,-141.8485676
3.7300,-141.7987055
3.7350,-141.7484303
3.7400,-141.6979965
3.7450,-141.6475963
3.7500,-141.5975705
3.7550,-141.5482512
3.7600,-141.5002639
3.7650,-141.4539491
3.7700,-141.4100383
3.7750,-141.3687137
3.7800,-141.3306126
3.7850,-141.2963924
3.7900,-141.2662265
3.7950,-141.2406687
3.8000,-141.2200741
3.8050,-141.204436
3.8100,-141.1942014
3.8150,-141.1896618
3.8200,-141.1910709
3.8250,-141.1983947
3.8300,-141.212024
3.8350,-141.2320905
3.8400,-141.2584193
3.8450,-141.2909135
3.8500,-141.3291214
3.8550,-141.372831
3.8600,-141.421492
3.8650,-141.4744857
3.8700,-141.5313338
3.8750,-141.5917171
3.8800,-141.6551812
3.8850,-141.7214931
3.8900,-141.7905093
3.8950,-141.8620351
3.9000,-141.9363276
3.9050,-142.0133233
3.9100,-142.0930442
3.9150,-142.1755089
3.9200,-142.2609075
3.9250,-142.3491807
3.9300,-142.4402969
3.9350,-142.5341777
3.9400,-142.6306373
3.9450,-142.7293182
3.9500,-142.8303773
3.9550,-142.9336851
3.9600,-143.0393527
3.9650,-143.1474255
3.9700,-143.2577838
3.9750,-143.3702296
3.9800,-143.4847032
3.9850,-143.6010476
3.9900,-143.7191219
3.9950,-143.8387642
4.0000,-143.9597821
4.0050,-144.082439
4.0100,-144.2067028
4.0150,-144.3328382
4.0200,-144.4609285
4.0250,-144.5912534
4.0300,-144.7238796
4.0350,-144.8591026
4.0400,-144.9969481
4.0450,-145.1375144
4.0500,-145.2809256
4.0550,-145.4269635
4.0600,-145.5755289
4.0650,-145.7265096
4.0700,-145.8797083
4.0750,-146.0351626
4.0800,-146.1927808
4.0850,-146.3523885
4.0900,-146.5138685
4.0950,-146.6770404
4.1000,-146.8417396
4.1050,-147.007996
4.1100,-147.1756839
4.1150,-147.3447614
4.1200,-147.5150861
4.1250,-147.6868438
4.1300,-147.8599498
4.1350,-148.0343498
4.1400,-148.2103243
4.1450,-148.3879801
4.1500,-148.5677191
4.1550,-148.7497429
4.1600,-148.9345675
4.1650,-149.1225426
4.1700,-149.3137024
4.1750,-149.5079599
4.1800,-149.7054184
4.1850,-149.9057867
4.1900,-150.108735
4.1950,-150.3141654
4.2000,-150.5218273
4.2050,-150.7314565
4.2100,-150.9428641
4.2150,-151.1561261
4.2200,-151.3709939
4.2250,-151.5875202
4.2300,-151.8056863
4.2350,-152.0256909
4.2400,-152.2474896
4.2450,-152.4712396
4.2500,-152.6970101
4.2550,-152.9245752
4.2600,-153.1539506
4.2650,-153.3850268
4.2700,-153.6179781
4.2750,-153.8528306
4.2800,-154.0895857
4.2850,-154.3285477
4.2900,-154.5697788
4.2950,-154.8134567
4.3000,-155.0600614
4.3050,-155.3092345
4.3100,-155.5610005
4.3150,-155.8153082
4.3200,-156.0719658
4.3250,-156.3308489
4.3300,-156.591769
4.3350,-156.8546041
4.3400,-157.119135
4.3450,-157.3852192
4.3500,-157.6525399
4.3550,-157.9211795
4.3600,-158.1909717
4.3650,-158.4622312
4.3700,-158.7348984
4.3750,-159.0090186
4.3800,-159.2845222
4.3850,-159.5614185
4.3900,-159.8400969
4.3950,-160.1204519
4.4000,-160.4023313
4.4050,-160.6859149
4.4100,-160.9713216
4.4150,-161.2586301
4.4200,-161.5477732
4.4250,-161.8387011
4.4300,-162.1311766
4.4350,-162.4254211
4.4400,-162.7213371
4.4450,-163.018895
4.4500,-163.3179937
4.4550,-163.6184842
4.4600,-163.9200036
4.4650,-164.2223246
4.4700,-164.5255523
4.4750,-164.8294695
4.4800,-165.1336728
4.4850,-165.4383378
4.4900,-165.7432585
4.4950,-166.0485077
4.5000,-166.353875
4.5050,-166.6594136
4.5100,-166.9651462
4.5150,-167.2708659
4.5200,-167.576849
4.5250,-167.8829715
4.5300,-168.1894697
4.5350,-168.496017
4.5400,-168.8026633
4.5450,-169.1094424
4.5500,-169.4158682
4.5550,-169.7223723
4.5600,-170.0287585
4.5650,-170.3350349
4.5700,-170.6413031
4.5750,-170.9474624
4.5800,-171.25361
4.5850,-171.5595605
4.5900,-171.8653238
4.5950,-172.170825
4.6000,-172.4759077
4.6050,-172.7807409
4.6100,-173.0853329
4.6150,-173.389502
4.6200,-173.6930441
4.6250,-173.9960408
4.6300,-174.2984848
4.6350,-174.600366
4.6400,-174.9017793
4.6450,-175.2027178
4.6500,-175.503134
4.6550,-175.8030595
4.6600,-176.1024437
4.6650,-176.401291
4.6700,-176.6995288
4.6750,-176.9972756
4.6800,-177.2941985
4.6850,-177.5902947
4.6900,-177.8855537
4.6950,-178.1798682
4.7000,-178.4734182
4.7050,-178.7659778
4.7100,-179.0574709
4.7150,-179.3478457
4.7200,-179.63693
4.7250,-179.9245467
4.7300,179.7890888
4.7350,179.5041601
4.7400,179.2205339
4.7450,178.9381149
4.7500,178.6567297
4.7550,178.3763562
4.7600,178.0968079
4.7650,177.8181686
4.7700,177.5405373
4.7750,177.2636861
4.7800,176.9875778
4.7850,176.7122621
4.7900,176.43768
4.7950,176.1638929
4.8000,175.8907516
4.8050,175.6183877
4.8100,175.3466188
4.8150,175.0753679
4.8200,174.8047693
4.8250,174.5348339
4.8300,174.2654639
4.8350,173.9964073
4.8400,173.7278514
4.8450,173.4598893
4.8500,173.1923768
4.8550,172.9254683
4.8600,172.6589119
4.8650,172.3928475
4.8700,172.1274458
4.8750,171.862867
4.8800,171.5990515
4.8850,171.3360621
4.8900,171.0738899
4.8950,170.8127737
4.9000,170.5527204
4.9050,170.2938545
4.9100,170.0364434
4.9150,169.7804854
4.9200,169.5259636
4.9250,169.2731852
4.9300,169.022155
4.9350,168.7726944
4.9400,168.5248201
4.9450,168.2783254
4.9500,168.0335178
4.9550,167.7903672
4.9600,167.5487643
4.9650,167.3084584
4.9700,167.0694887
4.9750,166.8318505
4.9800,166.5952127
4.9850,166.3595475
4.9900,166.1249501
4.9950,165.8909548
5.0000,165.6573722
