type,name,time_units,begin_time,frequency,count,units
signal_4d,"Noraxon MyoMotion-Segments-Forearm RT-Orientation","s",0.0000,200,5328,""

time,x,y,z,w
0.0000,0.7312182742,-0.1350729821,-0.1401358604,0.6537867127
0.0050,0.7311476715,-0.1351661249,-0.1402412153,0.6538238315
0.0100,0.7310770498,-0.1352592641,-0.1403465666,0.6538609332
0.0150,0.7310064091,-0.1353523997,-0.1404519141,0.6538980177
0.0200,0.7309288938,-0.1354539703,-0.1405651202,0.65393931
0.0250,0.7308446901,-0.1355636315,-0.1406854775,0.6539848142
0.0300,0.7307540657,-0.1356809665,-0.1408122123,0.6540344728
0.0350,0.7306573591,-0.1358055179,-0.1409445373,0.654088161
0.0400,0.73055497,-0.1359368131,-0.1410816837,0.6541456849
0.0450,0.7304473539,-0.1360743818,-0.1412229074,0.654206784
0.0500,0.7303350212,-0.1362177592,-0.1413674719,0.654271134
0.0550,0.730218541,-0.1363664766,-0.1415146249,0.6543383509
0.0600,0.730098542,-0.136520044,-0.1416635685,0.6544079995
0.0650,0.7299757104,-0.1366779323,-0.1418134339,0.6544796062
0.0700,0.7298507828,-0.1368395529,-0.141963269,0.6545526731
0.0750,0.7297245381,-0.1370042318,-0.1421120417,0.6546266925
0.0800,0.7295977904,-0.1371711936,-0.1422586578,0.6547011549
0.0850,0.729471385,-0.1373395633,-0.1424019854,0.6547755473
0.0900,0.7293461952,-0.1375083778,-0.1425408809,0.6548493498
0.0950,0.7292231129,-0.1376765983,-0.1426742167,0.6549220364
0.1000,0.7291030353,-0.1378431313,-0.1428009088,0.6549930805
0.1050,0.7289868506,-0.1380068586,-0.1429199393,0.6550619585
0.1100,0.7288754279,-0.1381666629,-0.1430303773,0.6551281517
0.1150,0.7287696035,-0.1383214444,-0.1431313997,0.6551911519
0.1200,0.7286701661,-0.1384701294,-0.1432223055,0.6552504738
0.1250,0.7285778404,-0.1386116796,-0.1433025146,0.6553056707
0.1300,0.7284932692,-0.1387451058,-0.1433715628,0.6553563514
0.1350,0.7284169904,-0.1388694854,-0.1434291042,0.6554022018
0.1400,0.7283494096,-0.1389839852,-0.1434749235,0.6554430073
0.1450,0.7282907717,-0.1390879,-0.1435089532,0.6554786711
0.1500,0.7282411267,-0.1391807072,-0.1435312928,0.6555092373
0.1550,0.7280844004,-0.1393944765,-0.1436326818,0.6556156942
0.1600,0.7279354822,-0.1395962284,-0.1437223421,0.6557184725
0.1650,0.7277945205,-0.1397860007,-0.1437989524,0.6558177119
0.1700,0.7276608553,-0.1399621119,-0.1438628315,0.6559144552
0.1750,0.7275321082,-0.1401283397,-0.1439167744,0.6560099405
0.1800,0.7274079112,-0.1402839265,-0.1439622477,0.6561044292
0.1850,0.7272865734,-0.1404306463,-0.1440018617,0.6561988552
0.1900,0.7271675216,-0.140570086,-0.1440378211,0.6562930386
0.1950,0.7270495441,-0.1407025591,-0.1440722549,0.6563877936
0.2000,0.7269324877,-0.1408316705,-0.144107256,0.656482062
0.2050,0.7268149613,-0.1409570005,-0.1441447335,0.656577057
0.2100,0.7266971178,-0.1410790915,-0.1441844908,0.6566725375
0.2150,0.7265777453,-0.1411979981,-0.1442265772,0.6567698225
0.2200,0.7264575915,-0.1413160747,-0.1442703329,0.6568677233
0.2250,0.7263360414,-0.1414309238,-0.1443155819,0.6569674738
0.2300,0.7262126186,-0.141542876,-0.1443617854,0.6570696475
0.2350,0.7260876835,-0.1416499308,-0.1444100052,0.6571740434
0.2400,0.7259618381,-0.1417542259,-0.1444587756,0.6572798577
0.2450,0.7258350225,-0.1418552591,-0.1445087779,0.6573871148
0.2500,0.7257069509,-0.1419519527,-0.144560638,0.6574962255
0.2550,0.7255778958,-0.1420459948,-0.1446142133,0.6576065555
0.2600,0.7254491899,-0.1421368235,-0.1446697502,0.6577167017
0.2650,0.7253202263,-0.1422265078,-0.1447284408,0.6578266248
0.2700,0.7251915425,-0.142315505,-0.1447911446,0.6579354438
0.2750,0.7250631237,-0.1424037201,-0.1448579653,0.6580431727
0.2800,0.7249359205,-0.142491587,-0.1449292421,0.6581485953
0.2850,0.7248101219,-0.1425789626,-0.1450037905,0.6582517963
0.2900,0.7246850926,-0.1426672761,-0.1450824154,0.6583529887
0.2950,0.7245625235,-0.1427566841,-0.1451665109,0.6584499698
0.3000,0.724441882,-0.1428470045,-0.1452547882,0.6585436504
0.3050,0.7243228708,-0.1429386347,-0.1453481394,0.6586340744
0.3100,0.7242058415,-0.1430338243,-0.1454459593,0.6587205
0.3150,0.7240909055,-0.1431305838,-0.145549179,0.6588030305
0.3200,0.7239779762,-0.1432303417,-0.1456561735,0.658881809
0.3250,0.7238666238,-0.143331709,-0.1457688889,0.6589571785
0.3300,0.7237583904,-0.1434355477,-0.1458864466,0.6590274506
0.3350,0.7236540596,-0.1435413539,-0.1460099235,0.6590916355
0.3400,0.7235533842,-0.1436501341,-0.1461384633,0.6591499744
0.3450,0.7234560905,-0.1437599714,-0.14627128,0.6592033589
0.3500,0.7233628765,-0.1438707944,-0.1464076198,0.6592512058
0.3550,0.723275207,-0.1439816344,-0.1465462196,0.6592924005
0.3600,0.7231926602,-0.1440919117,-0.1466861911,0.6593277323
0.3650,0.7231162488,-0.1442000712,-0.1468263631,0.6593566935
0.3700,0.7230464284,-0.1443047435,-0.1469662927,0.659379187
0.3750,0.7229828805,-0.1444068925,-0.1471038795,0.6593958239
0.3800,0.7229257339,-0.1445039453,-0.1472381781,0.6594072429
0.3850,0.7228745656,-0.1445963423,-0.1473687729,0.6594139103
0.3900,0.7228295531,-0.1446837376,-0.1474939903,0.6594160872
0.3950,0.7227900934,-0.1447653381,-0.1476157105,0.6594141945
0.4000,0.722757002,-0.1448428785,-0.1477337817,0.6594069959
0.4050,0.7227295679,-0.1449156311,-0.1478470912,0.6593956848
0.4100,0.7227064872,-0.144985185,-0.1479586575,0.6593806678
0.4150,0.7226893319,-0.1450517899,-0.148066292,0.6593606607
0.4200,0.7226770998,-0.1451156208,-0.1481716533,0.6593363536
0.4250,0.7226687386,-0.1451776074,-0.1482749171,0.6593086572
0.4300,0.7226638315,-0.1452378831,-0.1483750096,0.6592782421
0.4350,0.7226614745,-0.1452988568,-0.1484729183,0.6592453473
0.4400,0.7226610528,-0.1453600957,-0.1485684764,0.6592107805
0.4450,0.7226620906,-0.1454218779,-0.1486608575,0.6591751889
0.4500,0.7226656251,-0.1454814019,-0.1487505834,0.6591379369
0.4550,0.7226708088,-0.1455398352,-0.1488369407,0.6590998586
0.4600,0.7226771242,-0.1455976362,-0.1489194429,0.6590615313
0.4650,0.7226844136,-0.1456538474,-0.148999356,0.6590230549
0.4700,0.7226923386,-0.1457104075,-0.1490770931,0.6589842799
0.4750,0.7227011921,-0.1457663159,-0.1491504843,0.658945598
0.4800,0.722711482,-0.1458212882,-0.1492196385,0.658906492
0.4850,0.7227225673,-0.1458766865,-0.1492850739,0.6588672475
0.4900,0.7227348511,-0.1459315578,-0.1493476675,0.6588274354
0.4950,0.7227468842,-0.1459874135,-0.1494070454,0.6587883964
0.5000,0.7227576104,-0.14604355,-0.1494629903,0.6587514954
0.5050,0.7227669844,-0.1461004307,-0.1495169502,0.6587163516
0.5100,0.7227741928,-0.1461593715,-0.1495708064,0.6586831394
0.5150,0.7227797545,-0.1462206625,-0.1496252841,0.6586510599
0.5200,0.7227817482,-0.1462843726,-0.1496827759,0.6586216618
0.5250,0.7227810912,-0.1463541458,-0.1497438231,0.6585930045
0.5300,0.7227776556,-0.1464281789,-0.1498096851,0.6585653401
0.5350,0.7227705331,-0.1465096962,-0.1498818397,0.658538609
0.5400,0.7227605542,-0.14659654,-0.1499593441,0.6585125898
0.5450,0.722746824,-0.1466889596,-0.1500428107,0.6584880656
0.5500,0.7227308519,-0.1467879934,-0.1501316363,0.6584632811
0.5550,0.7227122677,-0.1468914509,-0.1502262462,0.6584390289
0.5600,0.7226910664,-0.1470011331,-0.1503251993,0.6584152366
0.5650,0.7226694861,-0.1471147081,-0.1504267934,0.6583903526
0.5700,0.7226468292,-0.1472317306,-0.1505298284,0.6583655128
0.5750,0.7226236371,-0.1473506717,-0.1506339641,0.6583405407
0.5800,0.7226000765,-0.147471348,-0.150737141,0.6583157642
0.5850,0.7225773977,-0.1475940225,-0.1508403485,0.6582895245
0.5900,0.7225546454,-0.1477158687,-0.1509420349,0.6582638595
0.5950,0.7225312834,-0.147836128,-0.1510414845,0.6582396932
0.6000,0.7225080924,-0.1479538731,-0.1511383223,0.6582164654
0.6050,0.7224839314,-0.1480701113,-0.1512325643,0.6581952009
0.6100,0.7224584451,-0.1481830324,-0.1513254781,0.6581764077
0.6150,0.722430634,-0.1482932072,-0.1514175686,0.6581609406
0.6200,0.722401437,-0.1483995611,-0.1515100468,0.6581477341
0.6250,0.7223704586,-0.1485035258,-0.151603237,0.6581368261
0.6300,0.7223369209,-0.1486053542,-0.1516991031,0.6581285615
0.6350,0.7223010806,-0.1487058658,-0.1517977677,0.6581224446
0.6400,0.7222626414,-0.1488053993,-0.151901655,0.6581181635
0.6450,0.7222219872,-0.1489041612,-0.1520083084,0.6581158152
0.6500,0.7221793648,-0.1490003474,-0.1521191121,0.6581152159
0.6550,0.7221333801,-0.1490960014,-0.1522327416,0.6581177373
0.6600,0.7220839313,-0.1491886647,-0.1523484537,0.6581242186
0.6650,0.7220296831,-0.1492796143,-0.1524672553,0.6581356011
0.6700,0.7219701999,-0.1493684503,-0.1525889926,0.6581524867
0.6750,0.7219040755,-0.1494549154,-0.1527156642,0.6581760098
0.6800,0.7218310009,-0.1495398566,-0.1528486789,0.6582059851
0.6850,0.7217496885,-0.1496235773,-0.1529901986,0.6582432464
0.6900,0.7216588719,-0.1497070356,-0.1531418076,0.6582885863
0.6950,0.7215570222,-0.1497933485,-0.1533058195,0.6583424201
0.7000,0.7214420342,-0.1498829627,-0.1534855495,0.6584061626
0.7050,0.7213114871,-0.1499778084,-0.15368371,0.6584813686
0.7100,0.7211642613,-0.15007959,-0.153903487,0.6585680994
0.7150,0.7209988238,-0.1501873285,-0.1541469455,0.6586677323
0.7200,0.7208129128,-0.1503023449,-0.154414599,0.6587822717
0.7250,0.7206080207,-0.150423851,-0.1547064866,0.6589101977
0.7300,0.7203819067,-0.1505497913,-0.1550242099,0.6590539911
0.7350,0.7201352823,-0.1506789359,-0.1553676828,0.6592131041
0.7400,0.7198675185,-0.1508103615,-0.1557356565,0.6593886532
0.7450,0.7195786236,-0.1509444893,-0.1561311069,0.6595797473
0.7500,0.7192672839,-0.1510812852,-0.1565542909,0.6597876731
0.7550,0.7189344826,-0.1512195302,-0.1570041123,0.6600117969
0.7600,0.7185818227,-0.1513586048,-0.1574821008,0.6602500471
0.7650,0.7182085243,-0.1514997271,-0.1579865753,0.6605032856
0.7700,0.7178144587,-0.1516425798,-0.1585199709,0.6607710267
0.7750,0.7174008898,-0.1517871913,-0.1590832338,0.6610515386
0.7800,0.7169678978,-0.1519351738,-0.1596764899,0.6613442032
0.7850,0.7165166791,-0.1520864279,-0.1602964116,0.6616484168
0.7900,0.716047565,-0.1522410669,-0.1609436599,0.661963504
0.7950,0.715562245,-0.1523996483,-0.1616176151,0.6622875261
0.8000,0.7150618639,-0.1525621743,-0.162316953,0.6626194387
0.8050,0.7145481884,-0.1527299823,-0.1630395293,0.6629574277
0.8100,0.7140216941,-0.1529026141,-0.163784543,0.6633011642
0.8150,0.7134835237,-0.153080172,-0.1645498424,0.6636498111
0.8200,0.7129353898,-0.1532625919,-0.1653344907,0.6640016672
0.8250,0.7123780934,-0.1534484358,-0.1661356813,0.6643568055
0.8300,0.711812725,-0.153637373,-0.1669509628,0.6647146592
0.8350,0.711242119,-0.153829088,-0.1677769148,0.6650730536
0.8400,0.7106669224,-0.1540226155,-0.1686121179,0.6654318245
0.8450,0.7100893404,-0.1542169285,-0.169453372,0.6657896232
0.8500,0.7095121208,-0.1544090489,-0.1702956221,0.6661454775
0.8550,0.7089377646,-0.1545963909,-0.1711363039,0.6664979875
0.8600,0.7083688513,-0.1547760726,-0.1719695858,0.6668466086
0.8650,0.7078065863,-0.1549474689,-0.1727905864,0.6671915254
0.8700,0.7072537399,-0.1551068398,-0.173596646,0.6675314376
0.8750,0.7067130469,-0.1552520159,-0.1743831766,0.6678652473
0.8800,0.7061871412,-0.1553804488,-0.1751454714,0.6681921143
0.8850,0.7056772962,-0.155489573,-0.1758793353,0.6685125322
0.8900,0.7051853422,-0.1555792977,-0.1765835194,0.6688250712
0.8950,0.7047121819,-0.155648834,-0.1772553791,0.6691298168
0.9000,0.7042592535,-0.1556985176,-0.1778953449,0.6694252174
0.9050,0.7038267061,-0.1557294616,-0.1785027511,0.6697111843
0.9100,0.7034160689,-0.155742245,-0.1790780264,0.6699860055
0.9150,0.7030265977,-0.1557404005,-0.1796199974,0.6702500929
0.9200,0.7026575688,-0.1557235306,-0.1801288447,0.670504379
0.9250,0.7023105206,-0.1556930693,-0.1806053875,0.6707468187
0.9300,0.7019829388,-0.1556506855,-0.1810490435,0.6709799264
0.9350,0.701675119,-0.1555960966,-0.1814608388,0.6712032822
0.9400,0.7013864581,-0.1555319957,-0.1818407227,0.6714169988
0.9450,0.7011147018,-0.1554606407,-0.1821921273,0.671622061
0.9500,0.7008602149,-0.1553836721,-0.1825152736,0.6718177197
0.9550,0.7006217953,-0.155302242,-0.1828137571,0.6720040504
0.9600,0.7003987391,-0.1552201089,-0.1830903779,0.6721802121
0.9650,0.7001898953,-0.15513892,-0.183347117,0.6723465332
0.9700,0.6999940954,-0.1550602241,-0.1835859744,0.6725033705
0.9750,0.6998105232,-0.1549861019,-0.1838079608,0.6726508555
0.9800,0.6996386484,-0.1549184567,-0.1840157021,0.6727884175
0.9850,0.6994775923,-0.1548570371,-0.1842079214,0.6729174077
0.9900,0.6993270266,-0.154803442,-0.1843869194,0.6730371967
0.9950,0.6991875854,-0.1547561253,-0.1845529775,0.6731474286
1.0000,0.699058818,-0.1547143113,-0.1847051087,0.6732490428
1.0050,0.6989420648,-0.1546766878,-0.1848410709,0.6733415855
1.0100,0.6988364961,-0.1546435832,-0.1849600893,0.6734260756
1.0150,0.698741605,-0.1546143421,-0.185063409,0.6735028651
1.0200,0.6986576174,-0.1545886553,-0.1851507862,0.6735718727
1.0250,0.6985825004,-0.1545650666,-0.1852227253,0.673635415
1.0300,0.6985163177,-0.1545464137,-0.1852812306,0.6736922335
1.0350,0.6984588894,-0.1545311728,-0.1853268316,0.6737427268
1.0400,0.6984091536,-0.1545199054,-0.1853623663,0.6737870926
1.0450,0.6983668654,-0.154512829,-0.1853876594,0.6738255878
1.0500,0.6983311816,-0.1545108153,-0.1854036283,0.6738586375
1.0550,0.6983021768,-0.1545130249,-0.185412092,0.6738858591
1.0600,0.6982781832,-0.1545196143,-0.1854134674,0.6739088319
1.0650,0.6982610295,-0.1545293446,-0.1854074778,0.6739260223
1.0700,0.6982507609,-0.1545414202,-0.1853921522,0.6739381086
1.0750,0.6982480408,-0.1545557684,-0.1853662702,0.6739447558
1.0800,0.6982525191,-0.1545691954,-0.1853296862,0.6739470979
1.0850,0.698264251,-0.154581457,-0.1852836409,0.673944791
1.0900,0.6982835431,-0.15459249,-0.1852262958,0.6739380349
1.0950,0.6983103439,-0.1546004323,-0.1851589399,0.6739269522
1.1000,0.6983440289,-0.1546051684,-0.1850806291,0.673912472
1.1050,0.6983837778,-0.1546068198,-0.1849936879,0.6738947734
1.1100,0.6984306027,-0.1546053135,-0.1848973148,0.6738730394
1.1150,0.6984847558,-0.1545994623,-0.1847926848,0.6738469528
1.1200,0.6985462331,-0.1545903334,-0.1846797033,0.6738162927
1.1250,0.6986144315,-0.154578474,-0.1845594673,0.6737812512
1.1300,0.6986897952,-0.1545628442,-0.1844318383,0.6737416377
1.1350,0.6987714553,-0.1545440704,-0.1842971173,0.6736981194
1.1400,0.6988593804,-0.1545240077,-0.1841563794,0.6736500022
1.1450,0.6989532175,-0.1545017581,-0.1840092278,0.6735979591
1.1500,0.6990521882,-0.1544772098,-0.1838581399,0.6735421399
1.1550,0.6991552144,-0.1544538291,-0.1837022629,0.6734830952
1.1600,0.6992608252,-0.1544316618,-0.1835438974,0.6734217088
1.1650,0.6993695375,-0.154409681,-0.1833844885,0.6733572824
1.1700,0.6994812171,-0.1543891341,-0.1832236784,0.6732897637
1.1750,0.6995951286,-0.1543714223,-0.1830618529,0.6732194873
1.1800,0.6997108843,-0.1543564942,-0.1829010301,0.6731463171
1.1850,0.6998271979,-0.1543458774,-0.1827422487,0.6730709575
1.1900,0.6999446444,-0.154338579,-0.182584918,0.6729931987
1.1950,0.7000621942,-0.1543359715,-0.1824306843,0.6729133507
1.2000,0.7001803628,-0.154336911,-0.1822779697,0.6728315682
1.2050,0.700298666,-0.154341746,-0.1821262642,0.6727484134
1.2100,0.7004161113,-0.1543508016,-0.1819746219,0.672665101
1.2150,0.7005336351,-0.1543624869,-0.181824735,0.6725805636
1.2200,0.7006505066,-0.1543789206,-0.1816775869,0.6724948111
1.2250,0.7007661375,-0.1543999612,-0.1815326177,0.6724086415
1.2300,0.7008823508,-0.1544241993,-0.1813898318,0.6723204786
1.2350,0.7009966485,-0.1544524206,-0.18124943,0.6722326924
1.2400,0.7011093001,-0.1544855284,-0.1811106938,0.6721449898
1.2450,0.7012215241,-0.1545221443,-0.1809753579,0.6720559507
1.2500,0.7013322119,-0.1545634899,-0.1808424838,0.6719667047
1.2550,0.7014423957,-0.1546090268,-0.1807116134,0.6718764225
1.2600,0.7015515166,-0.1546586475,-0.1805842652,0.6717853046
1.2650,0.7016602727,-0.1547114119,-0.1804580978,0.6716934685
1.2700,0.7017686745,-0.1547680624,-0.1803335378,0.6716006176
1.2750,0.7018773195,-0.1548272405,-0.1802100482,0.6715065842
1.2800,0.7019853853,-0.154890798,-0.1800867439,0.6714120376
1.2850,0.7020925718,-0.1549598573,-0.1799666453,0.671316222
1.2900,0.7021987586,-0.1550327377,-0.179847886,0.6712201514
1.2950,0.7023032881,-0.1551121068,-0.1797319426,0.6711235018
1.3000,0.7024062507,-0.1551969541,-0.1796191244,0.6710263292
1.3050,0.7025077699,-0.1552883315,-0.1795110033,0.6709278404
1.3100,0.7026079837,-0.1553851128,-0.1794077592,0.6708281031
1.3150,0.7027074983,-0.155488818,-0.1793087546,0.6707263002
1.3200,0.702805934,-0.1555983028,-0.1792146678,0.6706229121
1.3250,0.70290332,-0.155716487,-0.1791253274,0.6705172746
1.3300,0.7029995041,-0.1558399804,-0.1790416665,0.670410083
1.3350,0.7030938005,-0.1559703656,-0.1789634087,0.6703017612
1.3400,0.7031865049,-0.1561082908,-0.1788905987,0.6701918342
1.3450,0.7032773494,-0.1562509751,-0.1788227504,0.6700813582
1.3500,0.7033674545,-0.1563981278,-0.1787594723,0.6699693282
1.3550,0.7034555608,-0.1565505945,-0.1786997908,0.6698571267
1.3600,0.7035430867,-0.1567072458,-0.1786435355,0.6697435714
1.3650,0.7036296035,-0.156867299,-0.1785908076,0.6696292668
1.3700,0.7037155996,-0.1570311605,-0.1785424357,0.6695133816
1.3750,0.7037999401,-0.1571981505,-0.1784983857,0.6693972752
1.3800,0.7038840875,-0.1573691678,-0.1784567942,0.6692796941
1.3850,0.7039672688,-0.15754273,-0.1784177481,0.6691617741
1.3900,0.7040501535,-0.1577177718,-0.1783829828,0.6690425975
1.3950,0.7041317763,-0.1578956299,-0.178351661,0.6689230872
1.4000,0.7042128952,-0.1580751768,-0.1783234617,0.6688027959
1.4050,0.7042930611,-0.1582555355,-0.1782985574,0.6686823565
1.4100,0.704372229,-0.1584364285,-0.1782770544,0.6685618543
1.4150,0.7044488353,-0.1586200182,-0.178260312,0.6684420614
1.4200,0.7045224114,-0.1588047045,-0.1782490713,0.6683236538
1.4250,0.7045943193,-0.1589898922,-0.1782437268,0.6682052329
1.4300,0.7046632021,-0.1591775928,-0.1782453594,0.6680874624
1.4350,0.7047300626,-0.159366483,-0.1782533275,0.6679697705
1.4400,0.70479468,-0.1595540284,-0.1782665442,0.667853285
1.4450,0.704858458,-0.1597415795,-0.1782855303,0.6677360643
1.4500,0.704920836,-0.159928788,-0.1783088508,0.6676191665
1.4550,0.7049829963,-0.1601142863,-0.1783353926,0.6675019685
1.4600,0.7050456343,-0.1602968678,-0.1783645874,0.6673841786
1.4650,0.7051089396,-0.1604748182,-0.1783950449,0.6672663815
1.4700,0.7051735521,-0.1606478285,-0.1784247241,0.667148525
1.4750,0.7052386963,-0.1608160236,-0.178454317,0.667031217
1.4800,0.7053040908,-0.1609788479,-0.1784825061,0.6669152458
1.4850,0.705370407,-0.1611371045,-0.1785096947,0.6667996036
1.4900,0.7054372557,-0.1612912183,-0.1785361782,0.6666845237
1.4950,0.7055055415,-0.1614400668,-0.1785598494,0.6665698882
1.5000,0.7055742518,-0.1615857837,-0.1785817258,0.6664559828
1.5050,0.705644363,-0.1617266433,-0.1786021793,0.6663420949
1.5100,0.7057153982,-0.1618639972,-0.1786211715,0.6662284145
1.5150,0.7057875444,-0.1619990254,-0.1786388305,0.6661144242
1.5200,0.7058608138,-0.1621307666,-0.1786531992,0.6660008712
1.5250,0.7059344485,-0.1622597412,-0.1786651361,0.6658882038
1.5300,0.7060082769,-0.1623876573,-0.1786746704,0.6657761815
1.5350,0.70608311,-0.1625138625,-0.1786822947,0.6656639722
1.5400,0.7061578736,-0.1626380428,-0.1786888617,0.6655525639
1.5450,0.7062327822,-0.16276163,-0.1786929945,0.6654417501
1.5500,0.7063065358,-0.1628842458,-0.1786968487,0.6653324254
1.5550,0.7063793494,-0.1630051697,-0.1787007699,0.6652244465
1.5600,0.7064513426,-0.1631250452,-0.1787041182,0.6651177026
1.5650,0.7065224765,-0.1632438335,-0.1787070003,0.6650122173
1.5700,0.7065927242,-0.1633621582,-0.1787109006,0.6649074684
1.5750,0.7066613307,-0.1634807791,-0.178714262,0.6648044909
1.5800,0.7067290117,-0.1635973144,-0.1787188237,0.6647026438
1.5850,0.7067962211,-0.1637108173,-0.1787226195,0.6646022084
1.5900,0.7068632664,-0.1638217471,-0.1787257,0.6645027329
1.5950,0.7069299853,-0.1639285361,-0.1787273701,0.6644049655
1.6000,0.7069973559,-0.1640314805,-0.1787278335,0.6643077402
1.6050,0.7070638852,-0.1641292714,-0.1787260393,0.6642132545
1.6100,0.7071302179,-0.1642230125,-0.1787220624,0.6641205323
1.6150,0.7071965833,-0.1643118111,-0.1787151745,0.6640297492
1.6200,0.7072631791,-0.1643955505,-0.178706151,0.6639405169
1.6250,0.707329219,-0.1644736433,-0.1786955674,0.6638536667
1.6300,0.7073945709,-0.1645489114,-0.1786824606,0.6637689019
