type,name,time_units,begin_time,frequency,count,units
signal,"Noraxon MyoMotion-Joints-Elbow RT-Flexion","s",0.0000,200,5092,"deg"

time,value
0.0000,7.606939646
0.0050,7.622210073
0.0100,7.637483822
0.0150,7.652760888
0.0200,7.6694936
0.0250,7.687647915
0.0300,7.707181511
0.0350,7.728048332
0.0400,7.750202355
0.0450,7.773600485
0.0500,7.798204298
0.0550,7.823980761
0.0600,7.850902741
0.0650,7.878949116
0.0700,7.908103101
0.0750,7.93834798
0.0800,7.969661211
0.0850,8.002008504
0.0900,8.035338956
0.0950,8.069581751
0.1000,8.10464405
0.1050,8.140409582
0.1100,8.176737703
0.1150,8.213462912
0.1200,8.250395219
0.1250,8.28732171
0.1300,8.324009195
0.1350,8.360207552
0.1400,8.395653429
0.1450,8.430074672
0.1500,8.463196686
0.1550,8.525576151
0.1600,8.586030681
0.1650,8.644319742
0.1700,8.700310978
0.1750,8.753998697
0.1800,8.805119509
0.1850,8.853617426
0.1900,8.899401673
0.1950,8.942442069
0.2000,8.982693179
0.2050,9.020194494
0.2100,9.05488786
0.2150,9.086727034
0.2200,9.116094094
0.2250,9.142966204
0.2300,9.167361851
0.2350,9.189573647
0.2400,9.209596924
0.2450,9.227717361
0.2500,9.244244851
0.2550,9.259542899
0.2600,9.273921531
0.2650,9.287805761
0.2700,9.301512608
0.2750,9.315560786
0.2800,9.330196375
0.2850,9.345796343
0.2900,9.362852271
0.2950,9.381672897
0.3000,9.402483337
0.3050,9.425511159
0.3100,9.451220597
0.3150,9.479802701
0.3200,9.511594791
0.3250,9.547047103
0.3300,9.586428919
0.3350,9.630407571
0.3400,9.679394261
0.3450,9.733909167
0.3500,9.794028589
0.3550,9.860333624
0.3600,9.932952447
0.3650,10.01218555
0.3700,10.09843692
0.3750,10.19210897
0.3800,10.29357962
0.3850,10.40352005
0.3900,10.52226225
0.3950,10.65075101
0.4000,10.78934293
0.4050,10.93850691
0.4100,11.09900421
0.4150,11.27080779
0.4200,11.45460691
0.4250,11.65057828
0.4300,11.85907779
0.4350,12.08008601
0.4400,12.31402486
0.4450,12.56090007
0.4500,12.8204992
0.4550,13.09267399
0.4600,13.3778589
0.4650,13.67570513
0.4700,13.98638848
0.4750,14.30951871
0.4800,14.64524561
0.4850,14.99343714
0.4900,15.35402096
0.4950,15.72684855
0.5000,16.11191901
0.5050,16.50917842
0.5100,16.91845895
0.5150,17.33974645
0.5200,17.7728829
0.5250,18.21756333
0.5300,18.67388413
0.5350,19.14115102
0.5400,19.61885164
0.5450,20.10644118
0.5500,20.60321642
0.5550,21.10801099
0.5600,21.61990879
0.5650,22.13759026
0.5700,22.6600925
0.5750,23.1860606
0.5800,23.71433649
0.5850,24.24387286
0.5900,24.77347464
0.5950,25.30240626
0.6000,25.82983563
0.6050,26.35455088
0.6100,26.87518999
0.6150,27.39072036
0.6200,27.89983439
0.6250,28.40139542
0.6300,28.89424475
0.6350,29.37718339
0.6400,29.84970368
0.6450,30.31168488
0.6500,30.76313753
0.6550,31.20374103
0.6600,31.63354352
0.6650,32.05242822
0.6700,32.45991968
0.6750,32.85590959
0.6800,33.23984749
0.6850,33.61123753
0.6900,33.96949374
0.6950,34.31375848
0.7000,34.64338241
0.7050,34.95771623
0.7100,35.25592235
0.7150,35.53754967
0.7200,35.80177395
0.7250,36.04777314
0.7300,36.27492378
0.7350,36.48227508
0.7400,36.66859411
0.7450,36.83270453
0.7500,36.97387293
0.7550,37.09134457
0.7600,37.18408681
0.7650,37.25226249
0.7700,37.2959691
0.7750,37.31575976
0.7800,37.31235741
0.7850,37.28736835
0.7900,37.24205062
0.7950,37.17831586
0.8000,37.09815134
0.8050,37.00329243
0.8100,36.89602014
0.8150,36.77797423
0.8200,36.65122408
0.8250,36.51773741
0.8300,36.37898624
0.8350,36.23639523
0.8400,36.09199013
0.8450,35.94653885
0.8500,35.80171547
0.8550,35.65858746
0.8600,35.5181206
0.8650,35.38126119
0.8700,35.2483298
0.8750,35.11988546
0.8800,34.99645821
0.8850,34.87830097
0.8900,34.76539894
0.8950,34.65755075
0.9000,34.55456282
0.9050,34.45670683
0.9100,34.36426515
0.9150,34.27756886
0.9200,34.19723699
0.9250,34.12422938
0.9300,34.05913237
0.9350,34.00268854
0.9400,33.95504212
0.9450,33.91586332
0.9500,33.8845337
0.9550,33.86070486
0.9600,33.84404953
0.9650,33.83406533
0.9700,33.83018141
0.9750,33.83172768
0.9800,33.8380225
0.9850,33.84827332
0.9900,33.86147614
0.9950,33.87698019
1.0000,33.89394467
1.0050,33.9117118
1.0100,33.92933194
1.0150,33.94598958
1.0200,33.96086186
1.0250,33.97319378
1.0300,33.98211693
1.0350,33.98732293
1.0400,33.98866627
1.0450,33.98624131
1.0500,33.98003714
1.0550,33.97054097
1.0600,33.95809902
1.0650,33.94303238
1.0700,33.92563839
1.0750,33.90654334
1.0800,33.88624689
1.0850,33.864864
1.0900,33.84305039
1.0950,33.8207774
1.1000,33.7983834
1.1050,33.77610338
1.1100,33.75387733
1.1150,33.73220848
1.1200,33.71095869
1.1250,33.69063524
1.1300,33.67130427
1.1350,33.6538408
1.1400,33.63802671
1.1450,33.62462119
1.1500,33.61328351
1.1550,33.60408203
1.1600,33.59706299
1.1650,33.59184166
1.1700,33.5883142
1.1750,33.58597252
1.1800,33.58457297
1.1850,33.58362144
1.1900,33.58309291
1.1950,33.58290377
1.2000,33.58324748
1.2050,33.58432921
1.2100,33.58641402
1.2150,33.5898585
1.2200,33.59488356
1.2250,33.60167702
1.2300,33.61022717
1.2350,33.62060494
1.2400,33.63252366
1.2450,33.64588549
1.2500,33.66058525
1.2550,33.67647012
1.2600,33.69301656
1.2650,33.70982661
1.2700,33.72652334
1.2750,33.74277974
1.2800,33.75803891
1.2850,33.7717018
1.2900,33.78343247
1.2950,33.79232995
1.3000,33.79766589
1.3050,33.79836085
1.3100,33.7935573
1.3150,33.78260569
1.3200,33.76460178
1.3250,33.73908078
1.3300,33.70550124
1.3350,33.66306132
1.3400,33.61149054
1.3450,33.55043049
1.3500,33.47981785
1.3550,33.39962828
1.3600,33.30988309
1.3650,33.21084606
1.3700,33.10298888
1.3750,32.98672884
1.3800,32.86267383
1.3850,32.73159984
1.3900,32.5941339
1.3950,32.4515935
1.4000,32.30469972
1.4050,32.15444347
1.4100,32.00225061
1.4150,31.84905852
1.4200,31.69613674
1.4250,31.54433043
1.4300,31.39481627
1.4350,31.24794151
1.4400,31.10463772
1.4450,30.9651895
1.4500,30.82990773
1.4550,30.69923037
1.4600,30.57322886
1.4650,30.4520472
1.4700,30.33583179
1.4750,30.22475766
1.4800,30.11860112
1.4850,30.01740148
1.4900,29.92114114
1.4950,29.82955813
1.5000,29.74260875
1.5050,29.66002355
1.5100,29.58200633
1.5150,29.50838597
1.5200,29.4389624
1.5250,29.37338405
1.5300,29.31140798
1.5350,29.25291818
1.5400,29.19748933
1.5450,29.14492017
1.5500,29.09512635
1.5550,29.04736295
1.5600,29.0015838
1.5650,28.95739865
1.5700,28.9146422
1.5750,28.87262282
1.5800,28.83124854
1.5850,28.79036464
1.5900,28.74939123
1.5950,28.7081833
1.6000,28.66635147
1.6050,28.6239839
1.6100,28.58080537
1.6150,28.53640643
1.6200,28.49076162
1.6250,28.44355662
1.6300,28.39480641
1.6350,28.34456456
1.6400,28.29271873
1.6450,28.2391392
1.6500,28.18365836
1.6550,28.12612167
1.6600,28.06662566
1.6650,28.00490399
1.6700,27.94077826
1.6750,27.87406805
1.6800,27.8044754
1.6850,27.73186775
1.6900,27.65615202
1.6950,27.57716436
1.7000,27.49485208
1.7050,27.40933612
1.7100,27.32017482
1.7150,27.22769003
1.7200,27.13168257
1.7250,27.03199401
1.7300,26.92851727
1.7350,26.82152418
1.7400,26.71072328
1.7450,26.59610983
1.7500,26.47782912
1.7550,26.35546369
1.7600,26.22912169
1.7650,26.09881244
1.7700,25.96454761
1.7750,25.82618023
1.7800,25.68371904
1.7850,25.53700346
1.7900,25.38581372
1.7950,25.2300376
1.8000,25.0696162
1.8050,24.90438143
1.8100,24.73389378
1.8150,24.5582517
1.8200,24.37753586
1.8250,24.19150731
1.8300,24.00019667
1.8350,23.80306341
1.8400,23.60033919
1.8450,23.39164304
1.8500,23.17707135
1.8550,22.95660591
1.8600,22.72997728
1.8650,22.49715483
1.8700,22.25813388
1.8750,22.01289767
1.8800,21.76153987
1.8850,21.50353089
1.8900,21.23897239
1.8950,20.96796702
1.9000,20.69040145
1.9050,20.40603155
1.9100,20.11497716
1.9150,19.81722755
1.9200,19.51261221
1.9250,19.20100403
1.9300,18.88261379
1.9350,18.55719655
1.9400,18.22513524
1.9450,17.8866315
1.9500,17.54249293
1.9550,17.19297563
1.9600,16.83865431
1.9650,16.48007099
1.9700,16.11782325
1.9750,15.75282796
1.9800,15.38577068
1.9850,15.01748146
1.9900,14.64865346
1.9950,14.28006084
2.0000,13.91233162
2.0050,13.54607398
2.0100,13.18248999
2.0150,12.82198374
2.0200,12.46539746
2.0250,12.11309834
2.0300,11.76598215
2.0350,11.42442285
2.0400,11.08889617
2.0450,10.75992595
2.0500,10.437927
2.0550,10.12333746
2.0600,9.816257414
2.0650,9.516735028
2.0700,9.225102396
2.0750,8.941477585
2.0800,8.666467645
2.0850,8.400232347
2.0900,8.142879981
2.0950,7.894613868
2.1000,7.655488446
2.1050,7.425619032
2.1100,7.205597846
2.1150,6.994923392
2.1200,6.793694722
2.1250,6.601965303
2.1300,6.419662228
2.1350,6.24655988
2.1400,6.082734838
2.1450,5.928039897
2.1500,5.782095159
2.1550,5.645059599
2.1600,5.516643501
2.1650,5.396864384
2.1700,5.28545795
2.1750,5.182310778
2.1800,5.087021369
2.1850,4.99946229
2.1900,4.919287692
2.1950,4.846209227
2.2000,4.780124876
2.2050,4.720540455
2.2100,4.667261205
2.2150,4.620122105
2.2200,4.579280064
2.2250,4.544788309
2.2300,4.516358778
2.2350,4.49421646
2.2400,4.478400288
2.2450,4.46906536
2.2500,4.465814814
2.2550,4.468738352
2.2600,4.477555869
2.2650,4.492468317
2.2700,4.513136001
2.2750,4.539105792
2.2800,4.570337245
2.2850,4.606196327
2.2900,4.646650897
2.2950,4.691286667
2.3000,4.739929692
2.3050,4.792250616
2.3100,4.847738455
2.3150,4.906410988
2.3200,4.967951755
2.3250,5.03250518
2.3300,5.099619612
2.3350,5.169090244
2.3400,5.240988537
2.3450,5.315229028
2.3500,5.391890145
2.3550,5.471036585
2.3600,5.5528699
2.3650,5.637813656
2.3700,5.725750366
2.3750,5.81689797
2.3800,5.910883432
2.3850,6.00762332
2.3900,6.107349183
2.3950,6.209773836
2.4000,6.31480268
2.4050,6.422229964
2.4100,6.531477795
2.4150,6.642532112
2.4200,6.754908928
2.4250,6.868324635
2.4300,6.982484111
2.4350,7.097393187
2.4400,7.212769956
2.4450,7.328771703
2.4500,7.445206406
2.4550,7.561958529
2.4600,7.679119162
2.4650,7.796642647
2.4700,7.914746883
2.4750,8.033391795
2.4800,8.152892485
2.4850,8.273573794
2.4900,8.395893293
2.4950,8.519770873
2.5000,8.645631187
2.5050,8.774035325
2.5100,8.905078971
2.5150,9.039053548
2.5200,9.175982431
2.5250,9.316019215
2.5300,9.459158611
2.5350,9.605378539
2.5400,9.75459187
2.5450,9.906676702
2.5500,10.06176472
2.5550,10.21981922
2.5600,10.38077743
2.5650,10.54486689
2.5700,10.71201047
2.5750,10.88256081
2.5800,11.05600674
2.5850,11.23290801
2.5900,11.41291867
2.5950,11.59632642
2.6000,11.78324812
2.6050,11.97363705
2.6100,12.16797466
2.6150,12.36588702
2.6200,12.56754077
2.6250,12.77319233
2.6300,12.98248892
2.6350,13.19577176
2.6400,13.41303074
2.6450,13.63414243
2.6500,13.85879177
2.6550,14.08727708
2.6600,14.31956361
2.6650,14.55554464
2.6700,14.79532242
2.6750,15.03851117
2.6800,15.28539739
2.6850,15.53619893
2.6900,15.79050498
2.6950,16.04848087
2.7000,16.30993517
2.7050,16.57492423
2.7100,16.84335436
2.7150,17.11529434
2.7200,17.39063675
2.7250,17.66925293
2.7300,17.95110361
2.7350,18.23648672
2.7400,18.52507089
2.7450,18.8168093
2.7500,19.11186048
2.7550,19.41001886
2.7600,19.71148007
2.7650,20.0162788
2.7700,20.32427274
2.7750,20.63589875
2.7800,20.95083637
2.7850,21.26913014
2.7900,21.59085895
2.7950,21.9161252
2.8000,22.24502429
2.8050,22.57759613
2.8100,22.91394862
2.8150,23.25431756
2.8200,23.59861294
2.8250,23.94669171
2.8300,24.29871897
2.8350,24.65501655
2.8400,25.01515251
2.8450,25.37952088
2.8500,25.74771321
2.8550,26.11997281
2.8600,26.49626774
2.8650,26.87625278
2.8700,27.26026489
2.8750,27.64800597
2.8800,28.03993863
2.8850,28.43574846
2.8900,28.83573188
2.8950,29.23988827
2.9000,29.64799391
2.9050,30.06047977
2.9100,30.47674931
2.9150,30.89713853
2.9200,31.32147816
2.9250,31.7497581
2.9300,32.1820389
2.9350,32.6180639
2.9400,33.05761759
2.9450,33.50110287
2.9500,33.94847011
2.9550,34.39976543
2.9600,34.85478082
2.9650,35.31382686
2.9700,35.77672867
2.9750,36.24416245
2.9800,36.71568305
2.9850,37.19129388
2.9900,37.6712856
2.9950,38.15563012
3.0000,38.64458885
3.0050,39.13815575
3.0100,39.63669972
3.0150,40.14002466
3.0200,40.64832718
3.0250,41.16222102
3.0300,41.6813047
3.0350,42.20578691
3.0400,42.7357192
3.0450,43.27099247
3.0500,43.81149277
3.0550,44.35761887
3.0600,44.90920638
3.0650,45.46669705
3.0700,46.02966854
3.0750,46.59817567
3.0800,47.17260609
3.0850,47.75301545
3.0900,48.33978754
3.0950,48.93332946
3.1000,49.53381752
3.1050,50.14128643
3.1100,50.75588414
3.1150,51.37751208
3.1200,52.00629166
3.1250,52.64235351
3.1300,53.28547432
3.1350,53.93556816
3.1400,54.59253794
3.1450,55.25582212
3.1500,55.92535006
3.1550,56.60063552
3.1600,57.28147905
3.1650,57.96751536
3.1700,58.65800762
3.1750,59.3528429
3.1800,60.0511153
3.1850,60.75259163
3.1900,61.45654975
3.1950,62.16220104
3.2000,62.86942773
3.2050,63.57711587
3.2100,64.28517323
3.2150,64.99287325
3.2200,65.70000233
3.2250,66.4057673
3.2300,67.10972284
3.2350,67.81153311
3.2400,68.51061752
3.2450,69.20627661
3.2500,69.89804192
3.2550,70.58576468
3.2600,71.26855521
3.2650,71.94618202
3.2700,72.61788177
3.2750,73.28304943
3.2800,73.94127578
3.2850,74.59228658
3.2900,75.23619753
3.2950,75.87268396
3.3000,76.50128147
3.3050,77.12245073
3.3100,77.73580224
3.3150,78.34178386
3.3200,78.94024559
3.3250,79.53125423
3.3300,80.11495001
3.3350,80.69138335
3.3400,81.2610394
3.3450,81.82463175
3.3500,82.38171692
3.3550,82.93239181
3.3600,83.47715956
3.3650,84.01602839
3.3700,84.54974583
3.3750,85.0786063
3.3800,85.60294801
3.3850,86.1232566
3.3900,86.63979999
3.3950,87.15286257
3.4000,87.66310904
3.4050,88.17096308
3.4100,88.67671276
3.4150,89.18037975
3.4200,89.68271696
3.4250,90.1837823
3.4300,90.68412997
3.4350,91.18431468
3.4400,91.68440238
3.4450,92.18478466
3.4500,92.68638523
3.4550,93.18909624
3.4600,93.6931016
3.4650,94.1984929
3.4700,94.70562939
3.4750,95.21406235
3.4800,95.7242314
3.4850,96.23576832
3.4900,96.74836506
3.4950,97.26176409
3.5000,97.7758559
3.5050,98.29046295
3.5100,98.80531056
3.5150,99.32040276
3.5200,99.83546973
3.5250,100.3506095
3.5300,100.8655998
3.5350,101.3800322
3.5400,101.8941588
3.5450,102.407198
3.5500,102.919161
3.5550,103.4293071
3.5600,103.9376093
3.5650,104.4433529
3.5700,104.946722
3.5750,105.4474056
3.5800,105.9450916
3.5850,106.4396359
3.5900,106.9309601
3.5950,107.4188927
3.6000,107.9030388
3.6050,108.3829043
3.6100,108.8583589
3.6150,109.3291106
3.6200,109.7951723
3.6250,110.256035
3.6300,110.7119557
3.6350,111.1629167
3.6400,111.6086473
3.6450,112.0487654
3.6500,112.4834512
3.6550,112.9133146
3.6600,113.338314
3.6650,113.7582464
3.6700,114.1732536
3.6750,114.5832027
3.6800,114.9884315
3.6850,115.3887188
3.6900,115.7842044
3.6950,116.1748004
3.7000,116.5600434
3.7050,116.9406855
3.7100,117.3168327
3.7150,117.6890366
3.7200,118.0569373
3.7250,118.4209172
3.7300,118.7810453
3.7350,119.1374663
3.7400,119.4904401
3.7450,119.8402392
3.7500,120.1866246
3.7550,120.5296836
3.7600,120.8694171
3.7650,121.205666
3.7700,121.5384474
3.7750,121.8675972
3.7800,122.1931138
3.7850,122.5148693
3.7900,122.8331256
3.7950,123.1480982
3.8000,123.4596579
3.8050,123.7680382
3.8100,124.0733458
3.8150,124.3752989
3.8200,124.6739459
3.8250,124.9694322
3.8300,125.2614794
3.8350,125.5502917
3.8400,125.8356445
3.8450,126.1179493
3.8500,126.3973723
3.8550,126.6738067
3.8600,126.9475765
3.8650,127.2186975
3.8700,127.4872586
3.8750,127.7532432
3.8800,128.0170855
3.8850,128.2786411
3.8900,128.5374812
3.8950,128.7939262
3.9000,129.0480803
3.9050,129.3001132
3.9100,129.5494738
3.9150,129.7961061
3.9200,130.0399152
3.9250,130.2810897
3.9300,130.5196189
3.9350,130.7553936
3.9400,130.9885359
3.9450,131.2189115
3.9500,131.4471374
3.9550,131.6726612
3.9600,131.8955591
3.9650,132.1161416
3.9700,132.3346204
3.9750,132.5507969
3.9800,132.7648308
3.9850,132.9768035
3.9900,133.1865034
3.9950,133.3942522
4.0000,133.6001444
4.0050,133.8037277
4.0100,134.0052317
4.0150,134.2043309
4.0200,134.4013061
4.0250,134.5959871
4.0300,134.7886584
4.0350,134.9788725
4.0400,135.1668128
4.0450,135.3523925
4.0500,135.535455
4.0550,135.7162312
4.0600,135.8947163
4.0650,136.070844
4.0700,136.2451496
4.0750,136.4178863
4.0800,136.5887728
4.0850,136.7581829
4.0900,136.9260639
4.0950,137.0922976
4.1000,137.2568794
4.1050,137.4196035
4.1100,137.580604
4.1150,137.7399593
4.1200,137.8978732
4.1250,138.0540814
4.1300,138.2089051
4.1350,138.3624329
4.1400,138.5145129
4.1450,138.66525
4.1500,138.8144857
4.1550,138.9622611
4.1600,139.1087574
4.1650,139.2538387
4.1700,139.3975905
4.1750,139.540292
4.1800,139.68139
4.1850,139.8211741
4.1900,139.9599683
4.1950,140.0974012
4.2000,140.2337784
4.2050,140.3690368
4.2100,140.5033934
4.2150,140.6368445
4.2200,140.7695609
4.2250,140.9013548
4.2300,141.0318
4.2350,141.1611867
4.2400,141.2894242
4.2450,141.4166725
4.2500,141.5428441
4.2550,141.6679596
4.2600,141.7923307
4.2650,141.9156787
4.2700,142.0378474
4.2750,142.1592104
4.2800,142.2793378
4.2850,142.3984576
4.2900,142.5164354
4.2950,142.6333026
4.3000,142.7487395
4.3050,142.863003
4.3100,142.9757776
4.3150,143.0868804
4.3200,143.196418
4.3250,143.3041003
4.3300,143.4099659
4.3350,143.5137795
4.3400,143.6155683
4.3450,143.7151207
4.3500,143.8125957
4.3550,143.9080647
4.3600,144.0012195
4.3650,144.0925273
4.3700,144.1813574
4.3750,144.2678397
4.3800,144.3522807
4.3850,144.4348734
4.3900,144.5156632
4.3950,144.5948026
4.4000,144.6723626
4.4050,144.7485584
4.4100,144.82345
4.4150,144.8970073
4.4200,144.969054
4.4250,145.0400037
4.4300,145.109895
4.4350,145.1787862
4.4400,145.2470757
4.4450,145.3144455
4.4500,145.3811022
4.4550,145.4473547
4.4600,145.5130006
4.4650,145.57836
4.4700,145.6432728
4.4750,145.7078181
4.4800,145.7722343
4.4850,145.8366157
4.4900,145.9008832
4.4950,145.9655805
4.5000,146.0303621
4.5050,146.0957097
4.5100,146.161577
4.5150,146.2281268
4.5200,146.2953667
4.5250,146.3636191
4.5300,146.4330734
4.5350,146.5032769
4.5400,146.5742797
4.5450,146.6460003
4.5500,146.7183987
4.5550,146.7914961
4.5600,146.8648006
4.5650,146.9384601
4.5700,147.0123843
4.5750,147.0862585
4.5800,147.1600562
4.5850,147.2335979
4.5900,147.3065679
4.5950,147.3787935
4.6000,147.4503504
4.6050,147.5207584
4.6100,147.5901822
4.6150,147.6585109
4.6200,147.725302
4.6250,147.7907231
4.6300,147.8546449
4.6350,147.91719
4.6400,147.9784604
4.6450,148.0385214
4.6500,148.0971325
4.6550,148.1544179
4.6600,148.2103845
4.6650,148.2648057
4.6700,148.3181303
4.6750,148.3702366
4.6800,148.4209473
4.6850,148.4703574
4.6900,148.5183491
4.6950,148.5651876
4.7000,148.6109292
4.7050,148.6558409
4.7100,148.699593
4.7150,148.7425375
4.7200,148.78466
4.7250,148.8257194
4.7300,148.8660022
4.7350,148.9052102
4.7400,148.9434711
4.7450,148.9808181
4.7500,149.017168
4.7550,149.0524664
4.7600,149.0867586
4.7650,149.1198118
4.7700,149.1519911
4.7750,149.1829644
4.7800,149.2129162
4.7850,149.2417736
4.7900,149.2692964
4.7950,149.2953557
4.8000,149.3199187
4.8050,149.3425777
4.8100,149.3636303
4.8150,149.3829468
4.8200,149.4005851
4.8250,149.4163274
4.8300,149.4305943
4.8350,149.4431947
4.8400,149.4542072
4.8450,149.4637095
4.8500,149.4715061
4.8550,149.4776792
4.8600,149.4822233
4.8650,149.4850636
4.8700,149.4862932
4.8750,149.4857083
4.8800,149.483552
4.8850,149.4796941
4.8900,149.4744014
4.8950,149.4673336
4.9000,149.458749
4.9050,149.4487497
4.9100,149.4368708
4.9150,149.4230975
4.9200,149.4077518
4.9250,149.3907048
4.9300,149.3719748
4.9350,149.3515925
4.9400,149.3294547
4.9450,149.3057003
4.9500,149.2805099
4.9550,149.2539908
4.9600,149.226059
4.9650,149.1968655
4.9700,149.166543
4.9750,149.1351147
4.9800,149.102807
4.9850,149.0695287
4.9900,149.0355873
4.9950,149.0007374
5.0000,148.9651211
5.0050,148.9287716
5.0100,148.8918855
5.0150,148.8542738
5.0200,148.8162447
5.0250,148.7779006
5.0300,148.7389242
5.0350,148.6995547
5.0400,148.6595456
5.0450,148.6190458
5.0500,148.5778599
5.0550,148.5359978
5.0600,148.4934019
5.0650,148.4503331
5.0700,148.4063486
5.0750,148.3616873
5.0800,148.3160915
5.0850,148.2693439
5.0900,148.2218254
5.0950,148.1732035
5.1000,148.1236091
5.1050,148.0731505
5.1100,148.0215993
5.1150,147.9691071
5.1200,147.9152304
5.1250,147.8597245
5.1300,147.8022915
5.1350,147.7430356
5.1400,147.6820353
5.1450,147.6190855
5.1500,147.5541938
5.1550,147.4872143
5.1600,147.4182316
5.1650,147.3469646
5.1700,147.2732058
5.1750,147.1971659
5.1800,147.1184181
5.1850,147.0372157
5.1900,146.9534496
5.1950,146.8672397
5.2000,146.7782162
5.2050,146.686631
5.2100,146.59251
5.2150,146.4955828
5.2200,146.3958071
5.2250,146.2931868
5.2300,146.18744
5.2350,146.0784437
5.2400,145.9661811
5.2450,145.8507198
5.2500,145.7317311
