type,name,time_units,begin_time,frequency,count,units
signal,"Noraxon MyoMotion-Segments-Forearm RT-Pitch","s",0.0000,200,5092,"deg"

time,value
0.0000,3.976435695
0.0050,3.978235169
0.0100,3.980037487
0.0150,3.981842649
0.0200,3.984057968
0.0250,3.986734825
0.0300,3.989929771
0.0350,3.993704598
0.0400,3.998126259
0.0450,4.003266384
0.0500,4.009200124
0.0550,4.016004211
0.0600,4.023754699
0.0650,4.032524689
0.0700,4.04238119
0.0750,4.053380495
0.0800,4.065562514
0.0850,4.078944978
0.0900,4.093519012
0.0950,4.109246784
0.1000,4.126060428
0.1050,4.143861605
0.1100,4.162522264
0.1150,4.181887203
0.1200,4.201777973
0.1250,4.221997466
0.1300,4.242335646
0.1350,4.262576223
0.1400,4.282502814
0.1450,4.301904147
0.1500,4.320579428
0.1550,4.352643584
0.1600,4.383727709
0.1650,4.413528491
0.1700,4.442087463
0.1750,4.469259472
0.1800,4.495283524
0.1850,4.519784735
0.1900,4.543110272
0.1950,4.565225424
0.2000,4.586174453
0.2050,4.605986564
0.2100,4.624627323
0.2150,4.642025625
0.2200,4.658505204
0.2250,4.673914825
0.2300,4.688389996
0.2350,4.701955276
0.2400,4.714506021
0.2450,4.726271726
0.2500,4.737181609
0.2550,4.747393703
0.2600,4.756967171
0.2650,4.765963096
0.2700,4.774705188
0.2750,4.783376364
0.2800,4.791901745
0.2850,4.800677609
0.2900,4.809963823
0.2950,4.819983772
0.3000,4.83085327
0.3050,4.842793752
0.3100,4.856131774
0.3150,4.870882561
0.3200,4.88721601
0.3250,4.905241204
0.3300,4.925247248
0.3350,4.94725337
0.3400,4.971446956
0.3450,4.998055122
0.3500,5.027228085
0.3550,5.059015149
0.3600,5.093395387
0.3650,5.13036034
0.3700,5.170018268
0.3750,5.212529523
0.3800,5.258321436
0.3850,5.307981202
0.3900,5.361592761
0.3950,5.419920421
0.4000,5.48303094
0.4050,5.55121458
0.4100,5.625029639
0.4150,5.704386684
0.4200,5.789684706
0.4250,5.881129486
0.4300,5.978928855
0.4350,6.083225812
0.4400,6.194136277
0.4450,6.311724327
0.4500,6.435991307
0.4550,6.567109702
0.4600,6.705341522
0.4650,6.850836319
0.4700,7.003984003
0.4750,7.165097702
0.4800,7.334493682
0.4850,7.512988914
0.4900,7.700918944
0.4950,7.898858991
0.5000,8.107599776
0.5050,8.327897227
0.5100,8.560277507
0.5150,8.805684757
0.5200,9.064526912
0.5250,9.337324831
0.5300,9.624745983
0.5350,9.926846029
0.5400,10.24374297
0.5450,10.57507487
0.5500,10.92055752
0.5550,11.27945646
0.5600,11.65094045
0.5650,12.03400516
0.5700,12.4275044
0.5750,12.83021481
0.5800,13.2410079
0.5850,13.65878034
0.5900,14.08216793
0.5950,14.51030474
0.6000,14.94191958
0.6050,15.37540181
0.6100,15.80898901
0.6150,16.24131515
0.6200,16.67079896
0.6250,17.09663092
0.6300,17.51793442
0.6350,17.93395883
0.6400,18.34444247
0.6450,18.74899058
0.6500,19.14713426
0.6550,19.53813935
0.6600,19.92117154
0.6650,20.29533338
0.6700,20.65973612
0.6750,21.01378026
0.6800,21.3566949
0.6850,21.68798048
0.6900,22.00726943
0.6950,22.31416829
0.7000,22.60838864
0.7050,22.88979802
0.7100,23.15789755
0.7150,23.412706
0.7200,23.65368144
0.7250,23.8804598
0.7300,24.09272829
0.7350,24.28999194
0.7400,24.47201394
0.7450,24.63857229
0.7500,24.78976615
0.7550,24.92582493
0.7600,25.04723543
0.7650,25.15531944
0.7700,25.25135965
0.7750,25.33705425
0.7800,25.41407054
0.7850,25.48429894
0.7900,25.54953238
0.7950,25.6114812
0.8000,25.6717595
0.8050,25.73177435
0.8100,25.79302786
0.8150,25.85623206
0.8200,25.92223374
0.8250,25.99160392
0.8300,26.06421982
0.8350,26.13987815
0.8400,26.21845527
0.8450,26.29935329
0.8500,26.38224291
0.8550,26.46625089
0.8600,26.55057815
0.8650,26.63451289
0.8700,26.71719916
0.8750,26.79805186
0.8800,26.87664702
0.8850,26.95241378
0.8900,27.02491473
0.8950,27.09367109
0.9000,27.15887701
0.9050,27.22091326
0.9100,27.28048324
0.9150,27.33827177
0.9200,27.39489935
0.9250,27.4507563
0.9300,27.50600644
0.9350,27.56072246
0.9400,27.61454086
0.9450,27.66658274
0.9500,27.71611007
0.9550,27.76286811
0.9600,27.80686039
0.9650,27.84858169
0.9700,27.88834293
0.9750,27.92639209
0.9800,27.96300295
0.9850,27.99842587
0.9900,28.03290912
0.9950,28.06675167
1.0000,28.10057891
1.0050,28.1350131
1.0100,28.17058008
1.0150,28.20766692
1.0200,28.24672543
1.0250,28.28783846
1.0300,28.33133907
1.0350,28.37721538
1.0400,28.42543176
1.0450,28.47587454
1.0500,28.52817203
1.0550,28.58188199
1.0600,28.6361186
1.0650,28.69011652
1.0700,28.74277012
1.0750,28.79307426
1.0800,28.83978373
1.0850,28.88163363
1.0900,28.91781928
1.0950,28.94736984
1.1000,28.96974856
1.1050,28.98454801
1.1100,28.99138759
1.1150,28.99028453
1.1200,28.98138015
1.1250,28.96526414
1.1300,28.94260319
1.1350,28.91448256
1.1400,28.88116584
1.1450,28.8434847
1.1500,28.80158135
1.1550,28.75584832
1.1600,28.70693893
1.1650,28.65481671
1.1700,28.59950005
1.1750,28.54089744
1.1800,28.47904295
1.1850,28.41373483
1.1900,28.34551702
1.1950,28.27481045
1.2000,28.20214726
1.2050,28.12815056
1.2100,28.05370908
1.2150,27.97975553
1.2200,27.90723987
1.2250,27.83698071
1.2300,27.76968934
1.2350,27.70617886
1.2400,27.64687281
1.2450,27.59286433
1.2500,27.54500407
1.2550,27.50382813
1.2600,27.4697682
1.2650,27.44273376
1.2700,27.42258187
1.2750,27.40919543
1.2800,27.40214072
1.2850,27.40101957
1.2900,27.40531327
1.2950,27.41421637
1.3000,27.42697521
1.3050,27.44253336
1.3100,27.46010089
1.3150,27.47897302
1.3200,27.49848484
1.3250,27.51823512
1.3300,27.53764724
1.3350,27.55621507
1.3400,27.57368812
1.3450,27.58966828
1.3500,27.60395778
1.3550,27.6164785
1.3600,27.62723062
1.3650,27.63580887
1.3700,27.64211172
1.3750,27.64577952
1.3800,27.64676107
1.3850,27.64480672
1.3900,27.63963862
1.3950,27.63120374
1.4000,27.61931282
1.4050,27.60394834
1.4100,27.58562375
1.4150,27.56475675
1.4200,27.54179182
1.4250,27.51714277
1.4300,27.49113742
1.4350,27.46391412
1.4400,27.43617148
1.4450,27.40813133
1.4500,27.3801652
1.4550,27.35272748
1.4600,27.32576409
1.4650,27.29962028
1.4700,27.27458379
1.4750,27.25082569
1.4800,27.22823459
1.4850,27.20700373
1.4900,27.18703093
1.4950,27.16818952
1.5000,27.15027721
1.5050,27.13328315
1.5100,27.11713845
1.5150,27.10168772
1.5200,27.08668786
1.5250,27.07184123
1.5300,27.05675927
1.5350,27.0412719
1.5400,27.02531437
1.5450,27.00854597
1.5500,26.99101678
1.5550,26.9725585
1.5600,26.95332455
1.5650,26.93327214
1.5700,26.91259678
1.5750,26.89107385
1.5800,26.86863057
1.5850,26.84517567
1.5900,26.82050954
1.5950,26.79449584
1.6000,26.76681623
1.6050,26.73748837
1.6100,26.70640934
1.6150,26.67327859
1.6200,26.63799159
1.6250,26.60035602
1.6300,26.56017276
1.6350,26.51747953
1.6400,26.47225506
1.6450,26.42454279
1.6500,26.37424017
1.6550,26.32135228
1.6600,26.26581369
1.6650,26.20761199
1.6700,26.14663366
1.6750,26.08290865
1.6800,26.01637847
1.6850,25.94723784
1.6900,25.8754654
1.6950,25.80129851
1.7000,25.72500148
1.7050,25.64682005
1.7100,25.56673072
1.7150,25.48495595
1.7200,25.40173088
1.7250,25.31700874
1.7300,25.23087899
1.7350,25.1437961
1.7400,25.0554187
1.7450,24.96575286
1.7500,24.87485955
1.7550,24.78242135
1.7600,24.68838775
1.7650,24.59275002
1.7700,24.49526904
1.7750,24.3959627
1.7800,24.29470215
1.7850,24.19149102
1.7900,24.08616099
1.7950,23.97852236
1.8000,23.86842325
1.8050,23.75579592
1.8100,23.64053548
1.8150,23.52249183
1.8200,23.40185445
1.8250,23.27829586
1.8300,23.15209267
1.8350,23.02304976
1.8400,22.89114287
1.8450,22.75642462
1.8500,22.61886616
1.8550,22.47849209
1.8600,22.33502997
1.8650,22.18854011
1.8700,22.03879255
1.8750,21.88562959
1.8800,21.72920227
1.8850,21.56883619
1.8900,21.40439423
1.8950,21.23577341
1.9000,21.06270491
1.9050,20.88477686
1.9100,20.70191417
1.9150,20.51418832
1.9200,20.32133363
1.9250,20.12332131
1.9300,19.92032568
1.9350,19.71222021
1.9400,19.4991077
1.9450,19.28085586
1.9500,19.05779118
1.9550,18.82990307
1.9600,18.59748608
1.9650,18.36046008
1.9700,18.11923247
1.9750,17.87421789
1.9800,17.62580365
1.9850,17.37425717
1.9900,17.12002705
1.9950,16.86340378
2.0000,16.60468547
2.0050,16.34420271
2.0100,16.08249933
2.0150,15.8198499
2.0200,15.55655619
2.0250,15.29281617
2.0300,15.02936311
2.0350,14.76610768
2.0400,14.50362992
2.0450,14.24230857
2.0500,13.98261182
2.0550,13.72515862
2.0600,13.47037587
2.0650,13.21855847
2.0700,12.97019231
2.0750,12.72550359
2.0800,12.485125
2.0850,12.24932633
2.0900,12.01835256
2.0950,11.79248652
2.1000,11.57208212
2.1050,11.35737646
2.1100,11.14883483
2.1150,10.94655197
2.1200,10.75079998
2.1250,10.56207728
2.1300,10.38060435
2.1350,10.20649015
2.1400,10.04014879
2.1450,9.881776901
2.1500,9.731462884
2.1550,9.589485217
2.1600,9.456036519
2.1650,9.331174272
2.1700,9.215122633
2.1750,9.108038147
2.1800,9.009754438
2.1850,8.920544722
2.1900,8.840361894
2.1950,8.769253235
2.2000,8.707171739
2.2050,8.653957698
2.2100,8.609503177
2.2150,8.573489924
2.2200,8.546102787
2.2250,8.527149931
2.2300,8.516354542
2.2350,8.513702669
2.2400,8.51917203
2.2450,8.532799235
2.2500,8.554376161
2.2550,8.583951072
2.2600,8.621361914
2.2650,8.666645455
2.2700,8.719550282
2.2750,8.779666398
2.2800,8.846868446
2.2850,8.920569009
2.2900,9.000532912
2.2950,9.086285179
2.3000,9.177501539
2.3050,9.273766705
2.3100,9.374614818
2.3150,9.479947589
2.3200,9.589403542
2.3250,9.702906225
2.3300,9.820017886
2.3350,9.940570985
2.3400,10.06454896
2.3450,10.19188105
2.3500,10.32248855
2.3550,10.45629265
2.3600,10.59318806
2.3650,10.73330546
2.3700,10.87667696
2.3750,11.02326438
2.3800,11.17294464
2.3850,11.32547076
2.3900,11.48087651
2.3950,11.63909392
2.4000,11.79996882
2.4050,11.96319609
2.4100,12.12840797
2.4150,12.29539341
2.4200,12.4638285
2.4250,12.63322798
2.4300,12.80315322
2.4350,12.97347762
2.4400,13.14387901
2.4450,13.31440004
2.4500,13.48483391
2.4550,13.6551112
2.4600,13.82525363
2.4650,13.995444
2.4700,14.16572686
2.4750,14.33615101
2.4800,14.50704408
2.4850,14.67860919
2.4900,14.85118051
2.4950,15.02465501
2.5000,15.19940998
2.5050,15.37590952
2.5100,15.55427904
2.5150,15.73485181
2.5200,15.91757896
2.5250,16.10267969
2.5300,16.29011782
2.5350,16.47986053
2.5400,16.6718047
2.5450,16.86582949
2.5500,17.06190835
2.5550,17.25983357
2.5600,17.45941281
2.5650,17.6607378
2.5700,17.86365852
2.5750,18.06809804
2.5800,18.27370717
2.5850,18.48073889
2.5900,18.68888966
2.5950,18.89810622
2.6000,19.10833072
2.6050,19.31930701
2.6100,19.53110627
2.6150,19.74330705
2.6200,19.95584678
2.6250,20.16890034
2.6300,20.38206695
2.6350,20.59546616
2.6400,20.80891207
2.6450,21.02239747
2.6500,21.23570079
2.6550,21.44882964
2.6600,21.66174625
2.6650,21.87441882
2.6700,22.08697984
2.6750,22.29937673
2.6800,22.51181637
2.6850,22.72451162
2.6900,22.93740667
2.6950,23.15056704
2.7000,23.36396735
2.7050,23.57785681
2.7100,23.79215442
2.7150,24.00705385
2.7200,24.22246811
2.7250,24.43845688
2.7300,24.65511988
2.7350,24.87258743
2.7400,25.09069881
2.7450,25.30937846
2.7500,25.52866817
2.7550,25.74861348
2.7600,25.96922626
2.7650,26.19032883
2.7700,26.41191276
2.7750,26.63405126
2.7800,26.85643282
2.7850,27.079093
2.7900,27.30200532
2.7950,27.52520087
2.8000,27.74864306
2.8050,27.97218755
2.8100,28.19600021
2.8150,28.42001832
2.8200,28.6441106
2.8250,28.8681554
2.8300,29.09218938
2.8350,29.31625579
2.8400,29.54014037
2.8450,29.76371241
2.8500,29.98675348
2.8550,30.20900134
2.8600,30.43031006
2.8650,30.65059537
2.8700,30.86974952
2.8750,31.08772971
2.8800,31.30446029
2.8850,31.5195859
2.8900,31.73315748
2.8950,31.94527796
2.9000,32.15564217
2.9050,32.36447982
2.9100,32.5714168
2.9150,32.77647183
2.9200,32.97940361
2.9250,33.17964388
2.9300,33.3772312
2.9350,33.57176555
2.9400,33.76311062
2.9450,33.95109029
2.9500,34.1353948
2.9550,34.31620993
2.9600,34.49339026
2.9650,34.66676316
2.9700,34.83598082
2.9750,35.00132668
2.9800,35.16233065
2.9850,35.31907152
2.9900,35.47166683
2.9950,35.6200718
3.0000,35.76410494
3.0050,35.90362855
3.0100,36.03876618
3.0150,36.16951868
3.0200,36.29579877
3.0250,36.41771527
3.0300,36.53538564
3.0350,36.64879745
3.0400,36.7580048
3.0450,36.86288326
3.0500,36.96350158
3.0550,37.05978771
3.0600,37.15199721
3.0650,37.24044215
3.0700,37.32508589
3.0750,37.40579916
3.0800,37.48264601
3.0850,37.55573256
3.0900,37.62534162
3.0950,37.69149095
3.1000,37.75436215
3.1050,37.81426753
3.1100,37.8711726
3.1150,37.92536459
3.1200,37.97682279
3.1250,38.02588229
3.1300,38.07253489
3.1350,38.11674557
3.1400,38.1585247
3.1450,38.19802774
3.1500,38.23550093
3.1550,38.27100753
3.1600,38.30450139
3.1650,38.33550479
3.1700,38.36426315
3.1750,38.3906497
3.1800,38.41458272
3.1850,38.43596889
3.1900,38.4545386
3.1950,38.47010106
3.2000,38.48274815
3.2050,38.49213372
3.2100,38.49825815
3.2150,38.50104882
3.2200,38.5005853
3.2250,38.49692503
3.2300,38.49015138
3.2350,38.48024452
3.2400,38.46687136
3.2450,38.45003666
3.2500,38.43023112
3.2550,38.40709479
3.2600,38.38066124
3.2650,38.3508068
3.2700,38.31764535
3.2750,38.28087542
3.2800,38.24068443
3.2850,38.19677142
3.2900,38.14908587
3.2950,38.09723391
3.3000,38.04163825
3.3050,37.98228101
3.3100,37.91909597
3.3150,37.8519279
3.3200,37.78082055
3.3250,37.70574052
3.3300,37.62683776
3.3350,37.54425109
3.3400,37.45844546
3.3450,37.36962401
3.3500,37.27800827
3.3550,37.18393179
3.3600,37.08731106
3.3650,36.98813116
3.3700,36.88637966
3.3750,36.78255974
3.3800,36.67691286
3.3850,36.56949019
3.3900,36.46037727
3.3950,36.35011474
3.4000,36.23889416
3.4050,36.12718364
3.4100,36.01488923
3.4150,35.90210714
3.4200,35.7890021
3.4250,35.67528045
3.4300,35.56111471
3.4350,35.44680327
3.4400,35.33196963
3.4450,35.21683183
3.4500,35.1012127
3.4550,34.98546828
3.4600,34.86975483
3.4650,34.75463922
3.4700,34.63994539
3.4750,34.52575589
3.4800,34.41223773
3.4850,34.29955278
3.4900,34.18786252
3.4950,34.07710975
3.5000,33.96700715
3.5050,33.85736275
3.5100,33.74768235
3.5150,33.63782929
3.5200,33.52754281
3.5250,33.41664217
3.5300,33.3048627
3.5350,33.19263872
3.5400,33.07997582
3.5450,32.96695828
3.5500,32.85316842
3.5550,32.73871045
3.5600,32.62328421
3.5650,32.5068975
3.5700,32.38913806
3.5750,32.26975423
3.5800,32.14849168
3.5850,32.02541607
3.5900,31.90034054
3.5950,31.77356262
3.6000,31.644879
3.6050,31.51435306
3.6100,31.38196354
3.6150,31.24775291
3.6200,31.11176728
3.6250,30.97406012
3.6300,30.8343778
3.6350,30.69249165
3.6400,30.54828569
3.6450,30.40180138
3.6500,30.2531776
3.6550,30.10233942
3.6600,29.9495257
3.6650,29.79495281
3.6700,29.63894299
3.6750,29.48174324
3.6800,29.32354328
3.6850,29.16463664
3.6900,29.00498862
3.6950,28.84464059
3.7000,28.68346906
3.7050,28.52133204
3.7100,28.35799963
3.7150,28.19339834
3.7200,28.02802394
3.7250,27.86198018
3.7300,27.69521361
3.7350,27.52803222
3.7400,27.3609138
3.7450,27.19389717
3.7500,27.02727646
3.7550,26.86074971
3.7600,26.6946611
3.7650,26.52890764
3.7700,26.36360158
3.7750,26.19873936
3.7800,26.03458402
3.7850,25.87111861
3.7900,25.70847125
3.7950,25.54670622
3.8000,25.38601039
3.8050,25.22666555
3.8100,25.06896955
3.8150,24.91281166
3.8200,24.75845854
3.8250,24.60575978
3.8300,24.45481181
3.8350,24.30510528
3.8400,24.15670735
3.8450,24.00950906
3.8500,23.86336391
3.8550,23.71825108
3.8600,23.57400643
3.8650,23.43067734
3.8700,23.28827838
3.8750,23.14703345
3.8800,23.00693107
3.8850,22.86774821
3.8900,22.7296229
3.8950,22.59234535
3.9000,22.45596373
3.9050,22.32047349
3.9100,22.18575837
3.9150,22.05184506
3.9200,21.91884746
3.9250,21.78665591
3.9300,21.65533826
3.9350,21.52476042
3.9400,21.3949396
3.9450,21.26563082
3.9500,21.136813
3.9550,21.00846744
3.9600,20.88055611
3.9650,20.75300488
3.9700,20.62590653
3.9750,20.49906544
3.9800,20.37269536
3.9850,20.2466513
3.9900,20.12110243
3.9950,19.99593214
4.0000,19.87118194
4.0050,19.74663358
4.0100,19.62269596
4.0150,19.49952122
4.0200,19.37681634
4.0250,19.25463231
4.0300,19.13308498
4.0350,19.0120969
4.0400,18.89166079
4.0450,18.77177756
4.0500,18.652387
4.0550,18.53379222
4.0600,18.41599458
4.0650,18.29913453
4.0700,18.18308541
4.0750,18.06792785
4.0800,17.95360788
4.0850,17.8401191
4.0900,17.72758089
4.0950,17.61575375
4.1000,17.50466654
4.1050,17.39426406
4.1100,17.28471205
4.1150,17.17608178
4.1200,17.06805185
4.1250,16.96086137
4.1300,16.85436365
4.1350,16.74871286
4.1400,16.6439119
4.1450,16.53983535
4.1500,16.4365855
4.1550,16.33404438
4.1600,16.23227059
4.1650,16.131313
4.1700,16.03132124
4.1750,15.93214026
4.1800,15.83355054
4.1850,15.73583401
4.1900,15.63878523
4.1950,15.54237054
4.2000,15.44656737
4.2050,15.35119068
4.2100,15.25635706
4.2150,15.16203443
4.2200,15.06816092
4.2250,14.97470127
4.2300,14.88168419
4.2350,14.78915803
4.2400,14.69687431
4.2450,14.60505964
4.2500,14.51366213
4.2550,14.42268321
4.2600,14.33221694
4.2650,14.24229921
4.2700,14.15277799
4.2750,14.0638038
4.2800,13.97527028
4.2850,13.88731487
4.2900,13.80003119
4.2950,13.71366246
4.3000,13.62823624
4.3050,13.54377758
4.3100,13.46035408
4.3150,13.37796003
4.3200,13.29674548
4.3250,13.21658125
4.3300,13.13760012
4.3350,13.05947754
4.3400,12.98255418
4.3450,12.90672253
4.3500,12.83217476
4.3550,12.75878632
4.3600,12.68653601
4.3650,12.61559796
4.3700,12.54596049
4.3750,12.47773338
4.3800,12.41088877
4.3850,12.34562041
4.3900,12.28153573
4.3950,12.21893246
4.4000,12.15765107
4.4050,12.09756578
4.4100,12.03880223
4.4150,11.98123869
4.4200,11.92495411
4.4250,11.86980156
4.4300,11.81593851
4.4350,11.76319942
4.4400,11.71140431
4.4450,11.66066513
4.4500,11.61088294
4.4550,11.56208265
4.4600,11.51421424
4.4650,11.46707446
4.4700,11.42048879
4.4750,11.37441956
4.4800,11.32887333
4.4850,11.28374322
4.4900,11.238864
4.4950,11.1942226
4.5000,11.14986101
4.5050,11.10572543
4.5100,11.06176935
4.5150,11.0179103
4.5200,10.97384099
4.5250,10.92978119
4.5300,10.88546407
4.5350,10.84094386
4.5400,10.79649051
4.5450,10.75182496
4.5500,10.70721254
4.5550,10.66260805
4.5600,10.61808939
4.5650,10.5736979
4.5700,10.52952157
4.5750,10.48575039
4.5800,10.44258607
4.5850,10.40015937
4.5900,10.35851449
4.5950,10.31760751
4.6000,10.27751457
4.6050,10.23865058
4.6100,10.20099164
4.6150,10.16444051
4.6200,10.12911967
4.6250,10.09531515
4.6300,10.06300482
4.6350,10.03247255
4.6400,10.00371572
4.6450,9.976887837
4.6500,9.951774554
4.6550,9.928661802
4.6600,9.9077867
4.6650,9.889015258
4.6700,9.872348998
4.6750,9.857930222
4.6800,9.845711944
4.6850,9.835870579
4.6900,9.828483136
4.6950,9.823542529
4.7000,9.821084221
4.7050,9.821214685
4.7100,9.823438117
4.7150,9.828051766
4.7200,9.834655238
4.7250,9.843370438
4.7300,9.853990717
4.7350,9.866491004
4.7400,9.880847529
4.7450,9.896891052
4.7500,9.914431802
4.7550,9.933347246
4.7600,9.953530036
4.7650,9.974846587
4.7700,9.997248643
4.7750,10.02053378
4.7800,10.04479017
4.7850,10.07002436
4.7900,10.09612162
4.7950,10.12312884
4.8000,10.15078983
4.8050,10.17924488
4.8100,10.20837857
4.8150,10.23822893
4.8200,10.26895197
4.8250,10.30023209
4.8300,10.33228069
4.8350,10.36493666
4.8400,10.39812226
4.8450,10.4319071
4.8500,10.4658988
4.8550,10.50038424
4.8600,10.53513335
4.8650,10.57033575
4.8700,10.60597898
4.8750,10.64205819
4.8800,10.67829672
4.8850,10.71484473
4.8900,10.7517586
4.8950,10.78907882
4.9000,10.8269431
4.9050,10.86507205
4.9100,10.90370564
4.9150,10.94291371
4.9200,10.98269395
4.9250,11.02282548
4.9300,11.06343077
4.9350,11.1045021
4.9400,11.14588137
4.9450,11.18758137
4.9500,11.22964217
4.9550,11.27200874
4.9600,11.31437394
4.9650,11.35697308
4.9700,11.3997863
4.9750,11.44281756
4.9800,11.48597825
4.9850,11.5291378
4.9900,11.5724082
4.9950,11.61565134
5.0000,11.6589508
5.0050,11.70208025
5.0100,11.74547761
5.0150,11.7886844
5.0200,11.8321695
5.0250,11.87566877
5.0300,11.91920793
5.0350,11.96277984
5.0400,12.00641724
5.0450,12.05018574
5.0500,12.0940104
5.0550,12.13790853
5.0600,12.1819091
5.0650,12.22616031
5.0700,12.27059814
5.0750,12.31542961
5.0800,12.36041692
5.0850,12.40563911
5.0900,12.45142312
5.0950,12.49767495
5.1000,12.54462346
5.1050,12.59234159
5.1100,12.64102715
5.1150,12.69089888
5.1200,12.7419422
5.1250,12.79443176
5.1300,12.84815646
5.1350,12.90332995
5.1400,12.96001618
5.1450,13.01856615
5.1500,13.07922607
5.1550,13.14197327
5.1600,13.2072248
5.1650,13.27491808
5.1700,13.34538226
5.1750,13.41855271
5.1800,13.49468301
5.1850,13.57399696
5.1900,13.65652438
5.1950,13.74228664
5.2000,13.83131453
5.2050,13.92373524
5.2100,14.01943947
5.2150,14.11861442
5.2200,14.22131515
5.2250,14.32755382
5.2300,14.43719175
5.2350,14.55033534
5.2400,14.66696475
5.2450,14.78715453
