ch1,ch2,ch3,angle
0.007239735,0.003238494,0.026936488,1.195211009
0.083861043,0.043178314,0.06671916,1.190141904
0.187648209,0.148192709,0.415532075,1.185074454
0.221900561,0.116172571,0.350890981,1.180008659
0.158749044,0.221200046,0.350398922,1.174926381
0.045756025,1.507632475,1.081966553,1.169915066
0.149118139,2.925201346,1.498927796,1.165056049
0.259928084,2.57812682,1.060192073,1.160419948
0.160121141,1.227947146,0.25111375,1.156063442
0.085167285,0.662548377,0.685164031,1.152027841
0.259881848,0.613943165,1.304740699,1.14833864
0.693110096,0.646482635,1.621967524,1.145005576
0.970807146,3.412356048,1.698032441,1.142024322
0.74568021,7.351677093,1.576770139,1.13937991
0.211355216,8.040669854,1.394794145,1.137050424
0.832430139,6.495500523,0.677223759,1.135009985
1.475727235,3.004239361,0.68672215,1.133230058
1.565590695,1.271107862,2.177989097,1.131678729
1.19736613,4.977118045,2.923461334,1.130319736
0.889013316,7.788254334,2.531911717,1.129113091
0.744448483,8.68274905,1.662192195,1.128017189
0.42135855,8.793671448,0.959309231,1.126991293
1.777745007,8.163984176,0.280927961,1.125997666
2.70131389,5.061456836,0.933646555,1.12500297
2.523450118,1.586971465,2.797258026,1.123978671
1.516214049,6.488254664,4.186721309,1.122901382
0.384382936,9.743316761,4.34685185,1.121754055
1.378743378,8.484527377,2.869990659,1.120526854
2.290217091,6.171101539,0.79334626,1.119216362
2.405817958,5.696445089,2.953067227,1.117823984
1.8021953,4.533657513,4.74667577,1.116355213
0.877240103,2.119360486,5.095726433,1.108931372
0.231956998,1.131395706,4.529152078,1.101584431
0.911566954,3.964140972,3.204968533,1.094420949
1.43058101,5.728944533,1.349571404,1.087336117
1.597451752,7.126178478,0.947155347,1.080315835
1.52518392,7.104970207,3.223930465,1.073298499
1.123843544,5.425013504,4.924973352,1.066330331
0.438656322,2.830061916,5.508823109,1.059539312
0.287145378,0.722339678,4.924906425,1.052698505
0.852340983,1.643928154,3.300157638,1.0459035
1.237536035,3.403398931,1.099564221,1.039182019
1.373688495,4.87831365,1.030866338,1.032393233
1.413364044,4.400530087,2.911454822,1.025458538
0.985710077,4.04442735,4.195773251,1.018493023
0.329962011,2.7883538,4.593040367,1.011465598
1.3732885,0.328323818,3.854626012,1.004446396
2.213653315,0.503456446,2.081844849,0.997424144
1.982232719,0.902929781,0.535950995,0.990226578
0.941498265,0.576075335,2.093588721,0.982737922
0.397987856,1.981903053,3.378547399,0.97486645
1.476883989,2.463477738,3.428336075,0.966751691
2.11524327,3.802515008,2.133845424,0.958232151
1.966958332,3.91403836,0.528846767,0.949595763
1.278103485,3.025394555,1.296417889,0.94072437
0.434589709,2.050792434,2.28075991,0.931550565
0.461282796,1.224208858,2.42533869,0.922179172
1.137212671,0.528212106,1.801625433,0.912849434
1.389868017,2.008085388,0.672246378,0.903591316
1.342816321,3.511870239,0.249423427,0.894334605
1.09926946,3.920675543,0.673763424,0.885075413
0.634817826,3.171183737,0.92446369,0.875944885
0.151307544,2.428027736,1.116663481,0.867301508
0.250760835,2.093908277,1.198350982,0.858851124
0.473218204,1.127724155,1.21725935,0.850616421
0.55137277,1.187403786,1.029239321,0.842557932
0.438750728,2.467405166,0.707857888,0.834772841
0.282274902,1.84280294,0.241465636,0.827377274
0.26727068,3.188262616,0.213814822,0.820416628
0.378358681,3.566282967,0.448852119,0.813606336
0.433430376,1.474895993,0.727752142,0.807253822
0.317306653,0.821727556,1.06168271,0.800966172
0.069403428,2.725211303,1.051869132,0.794985598
0.047410792,3.900419422,0.758455846,0.789149083
0.408463441,3.533207127,0.610606511,0.783747533
0.767145188,0.860156708,0.470897636,0.778648256
0.90880101,1.778374973,0.161580097,0.773624077
0.789336674,1.183359639,0.307030643,0.768583346
0.267633262,0.660357087,0.797661395,0.763478118
0.414511758,1.395499597,1.082553167,0.75838679
0.966663159,3.204342407,0.987046616,0.753385438
1.335422789,3.731840345,0.460455673,0.748485948
1.289263979,3.339285381,0.224027922,0.743545611
0.808720304,3.31017726,0.751903291,0.738873506
0.227936605,2.246576851,0.977271001,0.7342025
0.354370069,1.460640637,0.766311652,0.729535156
0.925589832,5.008975969,0.325440322,0.725265883
1.223523733,6.236501584,0.164498286,0.720809902
1.000867721,6.559104281,0.508110921,0.716259673
0.718537427,5.306609898,0.643669724,0.711587056
0.585351507,1.982044703,0.382156789,0.706861617
0.729268729,0.826065917,0.25530975,0.701804928
0.809212805,1.202467092,0.378712345,0.696582483
0.523187677,1.421085634,0.217292343,0.690934979
0.266129104,1.412044938,0.915416223,0.684971833
1.110832693,1.490023714,1.260535545,0.678581654
1.772506009,3.207508822,0.868667464,0.671820922
2.007508414,3.855677162,0.236609492,0.664728048
1.802669857,2.868907864,0.838304324,0.657282978
1.184145715,1.760613172,1.533448581,0.649322973
0.365296761,1.410860906,1.748015509,0.641054566
0.107875269,0.390828096,1.453878592,0.632434753
0.47069973,0.902769925,0.844651726,0.623443137
1.489927371,1.483889403,0.277705587,0.614380142
2.497223428,2.767327976,0.251998805,0.604841397
2.912269718,4.426580956,0.212993351,0.595019774
2.287333471,4.068928169,1.570676929,0.585059289
0.844060869,1.439962067,3.608476268,0.574751626
0.744851718,0.163036071,4.612846368,0.564236901
1.996052286,1.50374328,3.573873188,0.553739055
2.6470138,3.600750664,1.064494206,0.543030086
2.466840421,4.113535199,1.643384221,0.532197172
1.644227528,3.482311675,3.608610197,0.521234175
0.610687595,1.369278524,4.779489369,0.509917973
0.383207292,1.458833357,4.589758964,0.498620022
1.092744959,2.58563562,3.093677902,0.487272307
1.351511038,3.723339079,1.075969678,0.47588604
1.118511171,3.785847827,1.043189756,0.464374954
0.515927533,1.383602443,2.542852915,0.452799333
0.150019381,1.379216979,2.964514879,0.441285212
0.233489762,3.093880648,2.63700055,0.430026041
0.56768092,1.938217361,1.946697427,0.418875571
1.043227087,0.30852699,1.076074548,0.407818628
0.818550794,0.249235684,0.243792887,0.397158764
0.354873061,0.400275184,0.598557971,0.386893424
0.212821907,1.133354089,0.959190814,0.377024211
1.007584761,0.382933833,0.46316094,0.367597274
1.696399735,0.419863503,1.774475983,0.358461829
1.909717446,0.287380471,2.259955973,0.349659636
1.644662486,0.579016166,1.053802037,0.341501658
1.095132698,0.513899117,1.150861922,0.33384034
0.362060523,0.546416835,3.352783679,0.326771245
0.376582068,0.92488235,5.044289641,0.320128024
0.979257473,0.528611328,5.580086103,0.314104615
1.314672397,0.742088949,4.719139238,0.308574357
1.393611495,0.796378752,2.58761419,0.303577246
1.242905932,0.396413324,0.707487615,0.299231026
0.850518509,2.451104272,2.895023548,0.295419742
0.41296865,4.587608457,4.950110558,0.292154564
0.167830996,4.469113563,5.555060279,0.289638096
0.164303173,1.858434962,4.991658657,0.287867767
0.07276529,1.029322467,4.098639704,0.286649802
0.278762585,3.012587052,2.896193464,0.286118407
0.495230036,5.291219769,1.118670693,0.286096308
0.60404487,5.77855582,0.645359087,0.286577582
0.671168272,3.647870358,1.774787378,0.287738865
0.759467439,1.849430378,2.458422044,0.289080701
0.700014649,6.480157368,2.688986234,0.290983188
0.506738092,8.330450178,2.258266817,0.293226144
0.337721995,6.475405358,1.614707836,0.295693495
0.172082687,2.131712373,1.139661969,0.298335751
0.04810545,3.495051146,0.887998879,0.301179949
0.188496665,7.588672608,1.040782962,0.304197697
0.34608732,8.47600149,1.458251783,0.307285294
0.519902196,7.073715928,1.679753159,0.310248388
0.669697616,3.716387636,1.484851826,0.313271033
0.73919795,0.820542493,0.800899179,0.31624894
0.6972168,2.36671811,0.433298322,0.319063468
0.569227841,2.577881185,1.759170812,0.321671302
0.29868713,2.299840989,3.007927908,0.324468962
0.143657962,3.866410333,3.461072158,0.327281996
0.429392168,5.526572007,2.919667958,0.330148949
0.520946258,5.982292944,1.829230962,0.333184918
0.513207074,5.478851466,0.781441503,0.336293544
0.495489497,2.728665604,0.156078781,0.339783927
0.448495455,2.129584282,0.465567623,0.343433848
0.317562482,6.293165397,0.88757551,0.347327976
0.204890213,7.705286617,0.941596368,0.351532732
0.15830848,5.392156716,0.732239757,0.355972457
0.097290681,1.346406725,0.613582302,0.360519624
0.032447193,0.92925327,0.786577147,0.365475156
0.15988011,0.870099844,1.455117813,0.370721621
0.320632333,0.638722169,2.049451435,0.376038445
0.381844732,0.566699046,2.083624683,0.381878199
0.398063904,0.351770515,1.403936443,0.387814245
0.325502428,1.183236221,0.419944542,0.393954063
0.220439056,0.909997986,0.453764079,0.400037246
0.386480644,0.642037437,0.936266243,0.406472635
0.585598305,2.147279439,1.091749372,0.413053079
0.521944149,3.415012139,1.331864226,0.419785026
0.164474371,3.33150236,1.750168627,0.426441616
0.365068881,2.790480023,2.080503344,0.433014601
0.811112072,1.734611901,2.132349941,0.439746054
1.067463028,0.673170847,1.647574482,0.446391322
1.089702132,0.749036278,0.849202062,0.453277206
0.86228822,1.410070089,0.212223769,0.460272227
0.523727317,4.303330256,0.937852912,0.467324177
0.199217415,5.440606707,2.137877674,0.474597403
0.140943811,4.996532504,3.429931819,0.482173356
0.757012896,4.261870183,4.007961907,0.490005265
2.207646632,2.561839261,3.214611939,0.497802695
2.854698486,0.749377229,0.971899843,0.505752628
2.128422327,3.195917058,2.8234545,0.513822335
0.570913962,5.696679167,4.899394103,0.521871456
1.349353668,7.169113355,4.628462012,0.529719699
2.486656074,8.178164674,2.561503856,0.537406983
2.836353659,6.913354795,0.662195584,0.544916118
2.411758316,2.88476778,2.492591182,0.552225464
1.326542238,2.620059953,3.941906888,0.559345931
0.308677106,7.398807286,4.122336849,0.566079598
1.064508555,9.221269051,3.120181949,0.572344975
1.802016805,9.098481851,1.315721817,0.57828132
2.005459725,7.667328026,0.651942733,0.583861593
1.609797103,5.272511526,2.129295945,0.589072014
0.873713048,1.688709633,2.738300582,0.594095015
0.240307597,4.011371644,2.341031409,0.598700178
0.307241667,8.634797026,1.564847631,0.60324872
0.468687258,10.44962478,1.016024554,0.607405095
0.216631919,8.850169891,1.219914552,0.61118917
0.594713142,5.67335646,1.64665251,0.614837792
0.30784376,1.931376726,1.757368042,0.618089085
0.468077598,2.376499104,1.194595515,0.621094124
1.339271028,6.618989883,0.364752286,0.623646965
1.88311345,7.783695888,1.655806541,0.625965672
1.917857295,6.314215042,3.306026887,0.628036665
1.469151136,4.002554997,4.23766255,0.629536718
0.701438538,1.171164669,4.064136331,0.630755554
0.272986099,3.20477224,2.875830369,0.631761271
1.048169655,5.812639738,1.13859297,0.632468612
1.632177327,6.327402676,0.728347562,0.632922228
1.8592842,4.275607144,2.205575616,0.633325243
1.739647764,1.082891165,3.015088945,0.633605207
1.232934458,3.455136232,3.245149322,0.633960522
0.352057488,7.353142898,2.617563957,0.634195993
0.616485324,7.098561265,1.029559438,0.634561303
0.959717395,3.164142434,0.725897373,0.635159427
0.362125456,0.687645796,1.81400319,0.636161322
0.672579656,2.926767931,1.275397366,0.637648458
1.243267414,5.733581618,0.382790886,0.639826083
0.788014629,7.447904676,1.468152825,0.642615253
0.483115651,4.758875255,2.738513702,0.645970908
1.701410013,1.193804339,3.10247998,0.650038135
2.569677028,3.077609206,1.965867694,0.655149158
2.718673554,2.906412004,0.672752959,0.660820456
2.082071525,1.822482961,2.80729385,0.667377771
0.918183957,0.825456894,4.789400859,0.674700929
0.463735044,0.765363212,5.619995759,0.682782396
1.575498062,1.620857138,5.067661756,0.691225527
2.291012739,3.473248432,3.395830362,0.700183798
2.477923677,4.650436041,0.975761105,0.709549204
2.164190354,2.571058254,1.731396163,0.719252697
1.434781723,1.7797334,3.759508426,0.729342862
0.500868812,5.513481776,4.917287949,0.739535216
0.376100394,7.059546539,4.952408003,0.749749431
0.958736962,5.621640931,3.937811691,0.75976288
1.221648302,3.041168656,2.30223017,0.769717045
1.169930772,1.840414365,0.631275341,0.779290585
0.866412984,0.991491151,0.929064752,0.788719537
0.451900754,1.676602115,1.789807339,0.797787052
0.136009608,6.407851072,1.907450871,0.806303329
0.066546634,8.216213715,1.721351985,0.8144712
0.150223289,5.729412828,1.416966536,0.822168524
0.093142466,1.580923956,1.05004045,0.829387484
0.087107557,1.938374243,0.501411107,0.836051939
0.428664791,2.370487822,0.195159788,0.842268315
0.322859459,1.488600283,0.487561122,0.848054185
0.192729979,2.25160313,1.113709272,0.853576573
0.565335449,3.173605798,1.322683707,0.858597571
0.529573559,1.966271446,0.465888287,0.863375013
0.267355836,0.330932302,0.606817195,0.867803105
0.156642803,1.113514985,0.926373078,0.872088791
0.194921996,2.559384286,0.976354816,0.876121163
0.269622597,2.373751674,1.1861692,0.879967687
0.313921452,2.576172771,1.451121996,0.883977748
0.213002928,1.244712284,1.233111301,0.887698754
0.102441126,2.508412738,0.610081452,0.891516812
0.448153245,6.07762498,0.194373521,0.895067099
0.728890564,6.912448442,0.705349988,0.898683545
0.816396672,4.217862988,1.028238643,0.902211326
0.637596116,1.057159587,0.977019748,0.905807747
0.247723728,4.063652284,0.613411025,0.909342073
0.166812373,6.463056066,0.164917275,0.9130631
0.437370515,5.5114352,0.170296231,0.916653504
0.400248487,4.116273705,0.298613418,0.920282126
0.437401849,2.470280087,0.145685897,0.924019642
0.644553167,2.069419616,0.685898086,0.927851698
0.705709852,2.987957513,0.964402022,0.931819898
0.5847659,1.90053862,0.380342342,0.935618659
0.336405417,2.25225153,1.119511595,0.939556593
0.085271169,7.502127313,2.434983272,0.943471574
0.295840267,9.637130036,2.887872992,0.947327188
0.687776603,9.6849779,2.702230467,0.951126924
1.062578451,8.563213734,1.68711797,0.954723262
1.134056858,3.516362614,0.558945232,0.958451079
0.903386204,2.458958479,2.46700924,0.962133142
0.571168417,8.294398562,4.351496873,0.965799756
0.196040276,12.47821626,5.108313176,0.969265839
0.215326406,12.41940116,4.650631808,0.97256163
0.470619579,9.073727986,3.277520005,0.975627819
0.555451447,3.669637435,1.377871198,0.978622681
0.85621255,2.501173817,0.687410546,0.981491205
1.261220217,6.621629499,2.48985435,0.984205947
1.379783221,8.679575831,4.417254143,0.986566605
1.04985734,7.905578268,6.084773121,0.988800739
0.392833295,5.406333408,6.4392673,0.990620576
0.327430002,3.923469384,5.125682397,0.992224218
0.889150356,1.695459879,2.672856278,0.993588838
1.25185495,0.74268061,0.72853216,0.994856721
1.407537557,3.460201972,2.894553193,0.995650297
1.293385887,4.31499189,4.867477433,0.996114786
0.821367285,4.106140797,5.688977625,0.996290028
0.210892376,4.356225365,5.343987592,0.996123744
0.513138031,4.125271807,4.19229131,0.995666809
1.108696347,2.632623719,2.506528859,0.994943887
1.278886127,1.497185807,0.659498687,0.994063218
0.89086551,4.770169985,2.320629906,0.993101334
0.270703195,6.313035824,3.88243491,0.992437367
0.921464978,4.959014149,3.530455124,0.991817024
0.860535489,1.991755411,1.771118583,0.991490268
0.425184088,1.337427084,0.48767134,0.991487847
1.265969502,3.44664872,1.32353356,0.99205704
1.044543872,2.850053014,2.798336246,0.99321812
0.269003823,2.051475293,3.152530187,0.995173907
0.684673566,2.829679831,1.576132563,0.998014765
0.689827942,3.331059453,1.030990759,1.001830927
0.526672799,1.845364465,2.948626091,1.006656039
0.486618366,1.320229709,3.8270444,1.012443628
0.528725933,4.267749105,3.789981531,1.019412356
0.80048885,4.659787584,3.188739787,1.027633547
1.248998966,3.309714736,2.726423001,1.037121048
0.632742553,1.140510458,2.461835898,1.047853489
0.763143181,5.359450304,1.903001985,1.059938771
1.592637206,8.130120549,1.000190304,1.073406895
1.892116982,4.653079419,0.954562693,1.088043121
2.351221549,2.825869327,3.793461572,1.104122623
2.083427355,8.41058333,7.764227806,1.121459212
1.189977788,10.03756747,10.71119515,1.140179421
0.479917686,10.40750189,10.42424139,1.159906224
1.938987116,6.199561582,6.206535163,1.180724402
2.980597805,2.383572662,1.763129679,1.202577699
3.30146357,8.350366909,6.902145078,1.22508374
2.867472817,12.60096615,11.489441,1.248184238
1.636175265,15.13864351,13.15753509,1.271815666
0.400252343,14.2318933,11.76180881,1.295806707
0.657144468,6.582026065,8.154640029,1.319854196
1.880789472,5.14885929,3.269749447,1.344167605
3.107897932,12.64108174,2.183673153,1.368430853
3.393088835,14.00982362,7.414144838,1.392705309
2.627005913,11.47788142,10.95378212,1.416731428
1.034432944,6.470569278,11.21651528,1.440460399
0.401355892,1.952878291,8.234181344,1.463616997
0.655982029,4.693010406,4.145475406,1.486310189
0.537369885,1.70566015,1.334385434,1.508510837
0.787253492,5.373815617,0.240808358,1.530144952
1.379043394,4.268944936,0.901306959,1.55119975
1.791525946,2.029470124,2.150454835,1.571692806
1.779088883,7.912952939,3.93344144,1.591583292
1.567508787,11.37443981,5.46995112,1.6108117
1.084457916,11.48585592,6.216871652,1.629338305
0.393249863,10.14798352,5.863226855,1.647123075
0.053124069,4.776183835,4.774163247,1.664090604
0.42531718,1.572312114,3.672063742,1.680314037
1.582018041,6.728766935,2.551685287,1.695714776
2.968460268,12.70031432,0.858917652,1.710123089
3.106555977,15.1456232,3.610729766,1.723856395
2.171776658,12.31399649,7.751596458,1.736639308
0.857562609,6.740476575,10.97393756,1.748711448
0.670186293,1.644783798,11.31198878,1.759999102
1.868079601,5.978697422,8.508524507,1.770980894
2.079090791,10.26815536,3.151908186,1.781795731
1.946344455,11.51978574,3.16504774,1.792474854
1.709165864,10.83535404,8.352901541,1.803207295
1.350883839,7.48357724,11.23059298,1.814040275
0.863039318,3.544387364,11.57750913,1.825620149
0.212353755,0.697782934,9.542080743,1.838165156
0.128953452,1.607741363,5.668273788,1.85160881
0.353710723,3.171887111,1.531178712,1.86596567
0.352881903,3.917167201,1.427087948,1.881570106
2.173371346,5.970804334,3.338689048,1.898534326
4.034296077,11.57339898,5.209569731,1.916947919
4.125385306,16.12362275,7.346183909,1.936930255
2.760352754,14.40309631,8.559334964,1.958634708
0.653124341,5.813499609,9.737415512,1.981836968
0.830105383,7.675637754,9.965122769,2.006893407
1.718605715,12.78786492,8.771599508,2.033728891
2.956408235,7.175880586,5.320527347,2.062383967
3.950456638,2.371304014,1.580901605,2.09299873
4.227958491,2.916056137,6.739214749,2.125685934
3.669700074,7.848526379,12.76727019,2.160304089
2.208387651,13.8048476,16.5638358,2.196781326
0.525858002,16.80602988,17.02760393,2.235348577
1.390576461,15.20997232,14.17694945,2.276170325
2.037793727,6.019387561,9.111718889,2.319058463
2.533585006,5.069060959,3.395558552,2.364016445
3.546143836,11.0107598,2.064385879,2.410868848
4.761765365,16.29832597,7.21660378,2.459766712
4.830940989,22.19204606,12.6470495,2.510347367
3.834999864,23.70446103,18.49964275,2.562715526
1.363791198,17.27049244,22.9157998,2.616714709
1.288701376,8.994559318,22.40179521,2.672017952
3.469697694,4.713368877,16.22920227,2.728867204
4.330616215,2.210009766,5.505617805,2.786695599
4.022640893,7.455528591,7.067793977,2.845635324
3.41099355,16.46063356,17.57361486,2.905249851
3.021883914,18.73500455,23.39919204,2.965677633
2.480992895,18.20875086,24.20602408,3.026560499
1.395514714,19.21165309,20.84034412,3.087775049
0.325914502,19.45223446,14.03552087,3.149194403
1.233360855,16.87047253,5.552865224,3.210595681
2.439354463,10.02304355,2.840007624,3.271779245
2.745733713,2.707592517,9.188116722,3.333107427
2.535364951,10.63032558,12.63810874,3.394254462
2.975425028,18.82681635,12.69778472,3.455293498
3.5698079,23.70589406,11.03759282,3.516358083
2.63598272,25.03381943,10.13103822,3.577427251
0.589754404,22.02540371,9.241324016,3.638723395
1.002409422,14.13308946,7.381445356,3.700370954
1.602067414,3.047224726,4.929708264,3.762566684
1.742144301,7.141590799,2.473369028,3.82545398
1.71623583,9.225706445,1.064051089,3.889099745
1.328899613,4.197589485,3.755907377,3.953869666
1.2898542,1.033740994,5.961960629,4.019777656
0.927905438,5.31777066,7.963387574,4.08707982
0.765309309,6.800195493,9.960096068,4.15591423
1.627804934,5.386409849,10.97868132,4.226250628
2.261563288,20.67810821,10.42958664,4.298278335
2.06098625,26.12442047,7.940057628,4.37217074
1.331347708,22.71623958,4.720305958,4.447877388
0.675468386,14.80436799,1.48948158,4.525565806
3.261437409,9.065479938,1.966925773,4.60513142
6.388969217,6.626405859,6.609414409,4.686932779
6.894353475,3.713571752,11.76249304,4.771056933
4.305150477,12.21928681,14.63108747,4.857693517
1.108964763,33.36046963,11.97708176,4.946718131
3.143506837,36.04312327,5.080282652,5.038121767
3.820014835,24.10278258,0.935011258,5.132060418
4.228783755,18.3984285,2.570469797,5.228755261
4.211032552,13.17898853,3.694033884,5.328292861
3.706118295,8.053279872,6.198271309,5.430600559
1.601269277,36.70928613,9.28390362,5.535884208
2.885643021,40.33618223,8.460382891,5.644124641
6.103335217,12.56716882,2.676102225,5.755178617
5.32895062,10.43759661,4.373782485,5.869178326
2.089718579,12.86723501,7.526515886,5.98601027
1.139274934,2.434191343,5.704283475,6.105772435
2.756759854,2.876498294,2.099441727,6.228343709
3.269789949,13.57430395,0.78025234,6.353354796
3.133125993,17.75504326,2.660506886,6.480883037
2.803037146,12.27620327,4.840400764,6.610778409
2.311989808,9.190941635,6.491482709,6.742958499
0.840002824,32.85367122,6.437388082,6.877249682
2.564168148,36.73952594,3.724201421,7.013147267
5.336441361,24.23277723,1.455905827,7.150572262
6.054454225,12.66762339,5.805645099,7.289333688
4.219944843,6.264571193,8.968308792,7.429637542
1.872153381,14.70131137,10.20205257,7.570956303
0.509901485,15.490059,10.02728267,7.713386223
1.333047362,35.14857401,9.33894664,7.856837205
3.257027309,52.78396467,6.313972071,8.001056293
4.968503618,44.41882053,1.962683035,8.146012414
5.577803537,16.54046357,8.657907283,8.291405504
4.854813605,8.62656088,16.55973832,8.437188321
3.282494241,27.39157629,20.71009019,8.583000992
1.263994128,44.7879792,19.46365948,8.728785444
0.716227292,51.48685199,13.95103444,8.874347274
2.357527115,44.73109355,5.628866823,9.019395093
4.0628381,34.28307262,4.310997358,9.163789883
6.135462562,13.70186476,15.05346269,9.307424533
7.149954476,15.29716379,25.91941131,9.450260565
6.322991567,46.05945816,30.62970467,9.59230798
3.120898683,72.17030458,25.74377214,9.733101276
1.193236095,66.7667642,12.95473217,9.872694593
4.488488172,35.27200845,4.600580362,10.01088349
7.222186577,8.702725444,17.26204903,10.1477001
7.504062994,30.97212789,26.52836189,10.28284809
5.890247963,49.64367787,28.73539827,10.41657046
4.591983997,55.33454573,23.75473526,10.54861684
1.555950926,56.21831003,14.15497496,10.67900448
3.568725098,37.18791944,3.628602512,10.80799425
6.943045682,11.3658309,12.13004821,10.93577022
6.557214996,37.01006823,20.72159318,11.06211648
4.251853058,39.89813676,20.61082283,11.18729407
1.724323336,30.02044276,14.550363,11.31130689
0.462650988,23.52469592,7.632889318,11.4343527
1.687221718,20.37174901,1.721139591,11.55676471
2.932718117,12.53532846,4.411163973,11.67876101
2.991485211,3.523096744,6.834188528,11.80023092
1.866733471,15.08536553,6.955261184,11.92177936
1.476496325,22.77370174,6.149558632,12.04333378
0.635039068,18.46674222,4.522924103,12.16545067
0.574744584,12.74363804,3.167190889,12.28803161
1.868840057,12.17403916,2.217674531,12.41141149
2.184977491,11.91345582,0.969913078,12.53584455
2.719348879,4.724540198,2.221272241,12.66162095
2.227054174,10.18326485,4.87417849,12.78891861
1.216998884,18.69836925,5.568525142,12.91829954
3.523842361,19.39907765,3.833189115,13.04992897
3.329267917,6.172451781,1.150520995,13.18372601
1.823432542,16.23582784,4.038328404,13.32035947
0.462657589,11.7904773,4.397653257,13.45990292
0.195737374,11.88445624,1.428083198,13.60272964
0.398102634,24.00541408,1.30878368,13.74904
2.965819419,6.333809406,2.120585004,13.8990765
4.536056898,5.883355931,1.584076802,14.05287703
2.81315999,11.62601409,0.705901124,14.21076806
0.538356435,31.30349258,0.306700471,14.37268029
1.304397635,24.1644365,1.577009813,14.53885068
1.872522485,12.51779496,3.054520549,14.70917729
2.323275708,41.22096108,3.124912083,14.88347448
2.582044445,50.06609899,1.984954994,15.06217794
3.168967962,42.06899758,1.004614921,15.24529345
0.946974565,28.52543028,3.728723303,15.43270373
1.857453249,11.31833693,5.157838037,15.62473993
0.36378379,5.724439258,3.498162357,15.82148193
1.75960714,7.750771993,0.974210861,16.02253546
2.0440518,18.02245398,1.651533113,16.22807173
1.065274288,45.43661678,2.059337086,16.43820106
0.522842883,53.05943606,0.728111645,16.65278365
1.060250921,52.16656378,2.79696254,16.87186666
1.404421986,35.22325977,5.397492147,17.09538994
1.314175421,8.388558,4.48580615,17.32337635
5.056534275,22.65319576,1.538073693,17.55579618
6.384686533,52.6864345,6.260919584,17.79272834
1.624261854,64.40320827,9.965540458,18.03418061
2.384112907,42.84235695,8.300442854,18.28010377
3.901094051,9.564804802,4.191716814,18.53036074
2.999598135,23.68174373,1.206624531,18.78499155
4.838831038,19.29208247,0.963048144,19.04398205
6.380599063,9.928721667,4.576579981,19.30726553
3.534928078,13.42655417,8.520076884,19.57470019
2.305869279,17.66627473,8.945062903,19.84629693
8.355513117,8.430835977,5.014537162,20.12213087
10.54802949,14.179574,1.62213363,20.40183883
8.618660272,31.72963249,5.729307616,20.68525237
5.657986274,32.09864129,8.242818316,20.97219363
1.504978754,28.57261686,8.341101188,21.26253214
6.376844363,18.08117435,4.934428449,21.55606799
12.3372879,6.156512024,2.206905259,21.85274818
13.55621664,20.3694703,8.610710167,22.15241333
8.547152366,45.87084248,12.81389096,22.45488163
2.187019589,71.72911009,12.41532131,22.76042177
6.384738697,75.12696388,7.906097467,23.06864062
8.232914332,52.17575614,2.123732277,23.37986016
7.607253044,13.88181277,7.720515742,23.6937765
4.987648263,38.14229381,13.38275757,24.01033286
1.968610921,54.65098792,14.24394154,24.32921485
0.629110422,65.09909729,11.71652469,24.650657
0.977983958,74.76814521,7.607928188,24.97428406
2.77784179,77.23004109,2.602991918,25.30010426
4.539549129,55.87109087,3.634476784,25.62755418
4.102031837,13.80601153,10.13409878,25.95683763
3.299603526,39.59796018,13.27340264,26.28765722
1.937699144,59.62566461,12.02953944,26.61951261
0.740158089,62.00147503,7.336439653,26.95230982
2.515070886,47.16401603,2.087303923,27.28585632
3.107348226,33.39370663,2.057447977,27.61975425
2.68937646,18.84886103,3.84353747,27.95366198
4.048728867,4.340694669,4.368916511,28.28721527
5.012010943,7.518367769,5.405973712,28.62006557
1.335910275,12.62085066,6.782986728,28.95199207
4.874335415,12.6549223,5.953724593,29.28263563
8.680323398,7.778720311,1.856134525,29.6118098
7.811921709,12.56708424,2.426452505,29.93938365
4.399062102,20.70871191,4.453384421,30.26505206
1.529430731,15.74844947,3.970409187,30.58884765
6.336152657,7.035775275,1.564601327,30.91056893
10.01391111,8.239370548,0.885313726,31.23001113
8.303962405,11.78518828,1.432622489,31.54702667
4.201493076,4.406701165,0.590715255,31.86182561
1.311724992,3.139017478,2.469314587,32.17420824
4.999025741,11.76910559,2.952754773,32.48392332
6.543282152,20.69365033,1.037000734,32.79156529
6.33318973,10.38153705,1.279632952,33.09679886
4.420200751,9.130559658,1.892559723,33.39953598
1.004618305,6.100514187,1.187814433,33.69973876
2.964991416,14.9218352,0.388616657,33.99750492
4.219607092,22.19521595,0.581252001,34.29256027
3.597515372,8.614836871,1.353090699,34.58508397
2.413324662,1.353089818,2.12018807,34.87510936
1.442725396,1.091468912,2.488070657,35.16267124
0.937959385,10.15700128,1.024092234,35.44773745
2.787419087,18.77659509,0.723517232,35.73070654
1.798226593,22.40865875,1.387401127,36.0118974
0.499268619,21.94590359,1.647345711,36.29119821
1.496722959,7.276194839,2.220464951,36.56875767
3.313232873,13.52428244,3.286378761,36.84486992
2.697886298,30.75035581,4.087053791,37.11986266
1.056613827,33.14683208,3.469639487,37.39368676
3.275362343,10.4501967,1.873164743,37.66670805
3.943808024,7.451939354,1.111483089,37.93917758
4.278875267,19.8171247,4.633324761,38.2111656
3.559591059,28.37240415,6.145665349,38.4829524
0.784198305,28.83507572,4.415847226,38.75476093
0.659289033,15.84218096,2.112618386,39.0267717
1.557381749,2.945469196,1.19503308,39.29959731
4.242704666,6.355241247,1.219783601,39.57301419
5.895649061,25.48153769,0.698547283,39.84739633
4.922852198,41.30792969,3.228275909,40.12288591
1.608898671,36.72639047,5.335154915,40.39954545
4.281650018,16.96261261,4.401921585,40.67753283
3.655356339,4.699633359,1.551297736,40.95661243
0.781419199,8.866531678,0.600374946,41.23723868
0.358125448,13.80729349,1.162212938,41.51924503
0.263570048,20.61803177,1.241437383,41.8026898
0.726638656,32.66902247,1.099790564,42.08743702
2.062376128,40.10080112,0.290567072,42.37386335
1.29972428,13.9725374,0.440916274,42.66199778
1.5138692,32.95330916,1.412240314,42.95151134
1.684137472,49.7377268,2.673528563,43.24240844
0.971237311,41.7364599,3.933575142,43.53463558
1.899078721,15.28255896,4.133101377,43.82815967
3.047067025,24.94994542,1.926140876,44.1230324
5.520098375,60.7086521,2.677193833,44.4195395
4.549493068,71.86975326,7.853567056,44.71719329
1.136391974,49.80527779,10.19394264,45.01602779
4.037553529,12.74064088,7.808133348,45.31612321
5.745890339,15.21503127,1.967701575,45.6173451
4.004576433,41.19676854,3.275348192,45.91977989
1.50519317,74.0067027,5.603615667,46.22328381
0.199176247,84.83282498,5.685861246,46.52766891
0.521320903,70.2986174,5.109671716,46.83271474
0.515799918,34.98507113,4.518720195,47.13835101
0.358022454,11.00776948,3.512839004,47.44441834
0.685539887,44.9159785,1.150318294,47.75101637
2.624215684,69.79512968,1.609159303,48.05748378
2.098301857,68.28104194,3.784433839,48.3643036
2.10237653,49.39971585,3.993225092,48.67129559
1.323851042,33.01196217,2.585302407,48.97851078
1.755158607,24.28141045,1.792242482,49.28578473
2.797454641,7.926147002,2.902099116,49.59278102
1.254909644,21.18788427,4.278045226,49.89981424
3.423295509,30.9590885,2.949480085,50.20618714
5.722569405,22.86815098,1.541460643,50.51203225
6.456055517,28.79895481,5.234856234,50.81738055
4.35803925,47.29905111,7.930453515,51.12219741
0.757781154,56.91982749,8.01253601,51.42668072
1.580784494,44.35023228,5.339870087,51.73068378
3.221647329,13.41423716,1.559635321,52.03419284
3.483737913,24.29850511,2.459723934,52.33724338
1.149662209,52.4586055,7.016425981,52.6398762
1.841142903,68.25555283,9.236696898,52.94241909
2.331150529,60.81867391,8.554284723,53.2445938
1.566488522,31.06062698,5.00733081,53.54623669
0.714497992,6.477844961,1.138090345,53.84769749
0.553973056,13.32706197,3.784757051,54.1491657
3.139467241,14.53094901,6.765637192,54.45071825
3.653501422,16.3024173,6.831105875,54.75221195
0.614847631,25.22999119,4.738574089,55.05412552
0.15600347,32.59186129,1.982432634,55.35651814
0.096586815,27.52352235,0.404327879,55.65965448
1.24148006,19.3225167,1.65473487,55.96356423
2.010744992,7.553625674,3.720748424,56.2683892
1.096141061,8.500879758,4.84270105,56.57425839
2.908554599,20.99524392,4.648435976,56.8812496
2.192066604,16.56369003,2.492414322,57.18940373
0.947687469,10.39535673,1.120857043,57.49879023
1.543127593,20.1534023,3.473342928,57.80981171
0.314840725,25.51749622,4.238710176,58.12255514
0.375101656,18.48115892,4.731204694,58.43675406
1.781707027,14.69831894,4.94134743,58.75246414
2.559519657,57.91421777,3.267640826,59.07022606
1.730188449,80.31108067,1.376818791,59.38978167
1.466852789,72.34005303,5.466242926,59.71108809
1.784452073,48.70271771,7.477879892,60.03463016
1.233628299,14.24729228,6.851738248,60.36026438
1.579002029,53.28438875,4.640367684,60.68762707
2.313914071,82.45570167,1.101320633,61.01647908
2.701578961,84.05135359,2.551913828,61.34700733
0.81999265,65.71363324,3.949655836,61.67909278
1.730669539,32.23421878,3.463157353,62.01298195
1.773422417,6.261070927,2.597173057,62.34815549
2.121681431,21.86717945,2.004198607,62.68468918
2.665080965,33.81853779,1.479941751,63.02224837
1.034177126,29.9369253,1.870446801,63.36089043
0.615761087,15.85844818,2.181655776,63.70046639
0.988058975,13.49768709,0.903734116,64.04083542
0.914676792,30.18202659,1.109168447,64.38169785
0.313426033,48.62472643,3.143284577,64.72312986
1.338226247,35.51247449,4.55148092,65.0651869
2.308022253,10.44466235,4.007950265,65.40746101
0.752201549,40.25390105,1.930058341,65.74979372
1.347301831,52.79281689,0.799960103,66.09197243
2.296168336,43.67647542,2.007686403,66.43388596
2.540924702,20.65201409,1.94478179,66.77520106
3.190374063,20.07010168,0.638206804,67.1163307
2.823764629,47.50061679,0.625025451,67.45687378
0.529293834,23.34058659,0.381308842,67.79679306
0.993341865,12.60895658,2.1326048,68.13584427
2.627444852,22.64457662,3.693496225,68.47410699
4.116238933,20.69991905,2.820083852,68.81154905
2.804385028,18.24880642,0.900069882,69.14803952
3.043103549,5.639385965,0.327829028,69.48394288
3.368070976,20.12959229,1.952208622,69.81907069
1.420482079,37.38726463,4.405681524,70.15339489
0.549006873,43.5645364,5.885271307,70.48668411
2.567136325,14.4982495,4.62111332,70.81891525
4.865895549,28.10748969,1.944309993,71.15024209
5.882771935,38.86993863,1.005367231,71.48082319
5.130142797,38.32886311,4.307784343,71.81067291
3.640554202,32.65980482,7.268434553,72.13981269
1.07617288,11.07933161,7.908379021,72.46811088
2.550290113,29.29554572,5.154224089,72.79601852
4.713753356,60.4720765,1.127624559,73.1236316
5.845763965,54.35863525,3.569078414,73.45099201
4.193812188,21.30056478,5.617199446,73.77800957
3.17600157,15.87922175,6.007054543,74.10507767
2.069173203,42.4395471,4.965487767,74.43240731
0.819911208,39.07022189,2.855754262,74.75999217
1.735511299,17.63436189,0.654293396,75.08785207
2.221408267,3.399984383,0.296966025,75.4164182
3.012437273,2.888324224,0.16699147,75.74606201
4.034306517,19.22493072,0.515894392,76.07690286
4.276870599,20.67490182,2.696588351,76.40920311
3.221917125,14.64240272,5.147285609,76.74308755
1.095764445,6.688164705,4.622553597,77.0788905
2.420739341,28.27398834,3.155184005,77.41692373
3.683330234,37.41184272,2.116523994,77.75720769
3.83960507,22.08781813,1.746717385,78.09990593
4.247452436,7.724782819,1.024965329,78.44544023
3.575280064,22.1966073,1.890617259,78.79408781
2.99147502,35.05877514,5.730218986,79.1456799
1.040239892,21.85174794,7.560900566,79.50058637
3.943645516,2.673654867,5.485546442,79.85863138
6.256914684,1.16620781,1.550304521,80.21978911
5.066311591,12.56757321,0.774502341,80.58391907
3.266826434,24.3273724,2.058143186,80.95133851
1.141126083,19.62461129,2.169193457,81.32155693
1.173474267,7.504674656,1.932804172,81.69451737
2.161179753,36.61161054,2.61951779,82.06996916
3.078044586,62.09401069,1.698731945,82.44772452
4.003862866,61.33752559,0.32664079,82.82761495
2.403967861,25.03519392,0.754842534,83.20928378
0.529675504,29.96022638,0.324176106,83.59271971
0.278407029,76.92807243,1.242905773,83.97760235
0.595013326,97.40909645,1.388402824,84.36392552
0.944182318,80.1235401,0.703219786,84.75151345
2.491487467,47.36106519,0.165003154,85.14043332
1.059124625,12.364358,0.535681124,85.53037119
0.445931399,42.46623838,1.351287835,85.92074123
0.802849655,73.89967878,2.078447666,86.3118506
1.168723882,82.09431605,2.492372228,86.70339635
0.449251579,68.02510003,2.542083331,87.09511307
0.684022096,42.15470001,1.841984773,87.48661504
1.025534354,10.48413056,0.651029532,87.87751229
0.737504555,35.88152092,2.628802494,88.26726013
1.191987351,47.3944107,4.797979362,88.65547661
1.372778187,50.29690583,5.746408682,89.04212989
0.428966782,50.21346571,4.640392188,89.42696052
1.154391146,34.26773873,1.479572102,89.8097361
1.290330349,9.30020797,1.968679374,90.19023166
0.943899086,13.38980392,4.511515128,90.56820253
0.854910278,41.14248215,6.178951792,90.94332135
0.74872932,66.62407317,6.187423479,91.315469
0.20186386,66.92292167,3.840564816,91.68398829
0.24498069,37.97895304,0.771127578,92.04911693
0.590909772,16.73465541,1.457560538,92.41063936
0.292006239,5.343221544,1.393517732,92.7688315
0.196309097,24.17992506,0.97290887,93.12358664
0.118914741,71.67472096,2.382695319,93.47480107
0.85612159,115.8413112,4.677371783,93.82303522
1.543896663,122.958032,6.896974907,94.16837083
1.693398422,72.89284196,7.251138569,94.51093773
0.60833975,24.92009597,4.67047825,94.85137694
1.423048084,78.51168878,1.495314423,95.19000609
1.798932326,90.99119116,5.56203839,95.52725686
1.288099642,83.24615757,8.618339562,95.86314869
0.347454037,65.28320554,9.369545055,96.19813238
0.819978986,47.03890728,7.436288936,96.53245012
1.15750812,43.65673334,4.921517256,96.86622208
0.808934556,34.04266326,2.326913308,97.19922627
0.509788821,9.53396998,1.904824085,97.53137939
0.526154233,30.61253164,6.191333127,97.86325956
1.029001954,59.42287144,8.211949151,98.1948866
0.722173398,72.48410331,7.903282787,98.52679865
0.403747997,87.52883427,5.927080271,98.85908825
0.569397633,82.18588715,2.886410352,99.19232839
1.015007186,57.87492563,0.817849409,99.52705929
1.215125969,23.65029195,1.057965363,99.86384354
0.781295332,26.86063979,3.255307748,100.2028136
0.978913989,70.45990891,4.735793857,100.5444136
1.710141159,94.92399662,5.319845449,100.8885335
2.23646693,104.3321057,4.720769899,101.2356391
1.990612842,86.65001951,3.689571737,101.5860367
1.158771997,34.75351351,2.976829727,101.9398776
1.098383881,41.92401463,0.97245858,102.2973182
3.261232102,116.2301988,4.434710413,102.6585492
4.01001153,143.2226145,8.695180304,103.0238563
3.135362382,106.9213339,10.03507886,103.3931648
1.393054481,48.13079531,7.433678042,103.7666544
0.871587483,21.37224171,2.31837138,104.1437854
2.806954869,92.20305769,4.092291425,104.5242335
3.133437894,147.261758,9.167264676,104.907489
3.163666977,166.1288614,11.81001918,105.29338
2.984079874,135.9689483,12.5708268,105.6815851
1.274248931,56.23274149,10.29682719,106.071175
0.889044892,37.39664066,4.608572364,106.4616422
2.391012899,102.2583807,2.737684764,106.8524621
2.616272396,133.5499816,9.479088827,107.2431498
2.376796304,135.0989471,13.05789545,107.6336447
2.364581501,119.4084272,14.14750015,108.0231575
0.53477266,89.97025166,11.92450541,108.4114299
0.813908234,42.47207822,6.586732839,108.7981197
0.919064862,16.34402593,1.545882595,109.1827339
1.205082484,53.10765874,2.912342275,109.565178
0.986047495,69.59546537,6.262392824,109.9451592
0.317370948,61.20715487,7.534553391,110.3223575
0.868068434,57.37768896,7.74065284,110.6962149
0.653922943,80.78983716,7.119439117,111.066077
0.566429702,97.91752283,6.041164875,111.4317621
1.209261463,73.38684398,4.381953521,111.7925891
0.980989356,29.76950692,1.811957539,112.1483108
0.188473083,20.32008756,1.046057687,112.4984527
0.55896758,50.1144631,2.901998724,112.8428635
0.448496746,52.05553305,3.358537627,113.1816757
0.598814245,53.14591673,3.196986542,113.5147262
1.434089928,62.81451974,3.161756189,113.8417383
0.72902945,62.44805117,3.418064917,114.1627816
1.36424149,39.78845911,3.894907801,114.4778324
1.546587836,11.2975861,2.51170628,114.7870737
0.913900489,22.05815436,0.51864324,115.09017
0.670484456,21.58681252,1.017484754,115.3875268
1.070928256,10.15949602,0.394551112,115.6792492
1.048199377,30.4861227,1.390890937,115.9653819
0.378748601,16.04484624,0.786423381,116.2463087
0.914868119,31.61239683,2.452507192,116.5224476
2.289693622,62.75048915,3.60298726,116.7942635
2.377247173,45.94594707,2.396175636,117.0620785
1.742163593,22.26169208,0.609005858,117.3264322
0.429618894,15.60360272,0.419372181,117.5877836
0.217029786,19.49884754,0.750148734,117.8464364
0.483647561,24.38272163,2.702589999,118.1031951
1.447224714,9.692899286,2.26616508,118.3578243
1.924295354,31.1802149,0.509779519,118.6108173
1.906749671,41.50566525,1.344989336,118.862743
1.389881654,27.14577374,2.102582577,119.1133785
0.889296298,10.3201065,1.667417245,119.3630434
2.371855954,24.45524369,0.598883801,119.6115263
2.520877829,9.87511794,0.91153311,119.8588795
1.630683618,39.57016275,0.98595726,120.1054614
0.380998533,71.880413,3.137047977,120.3512685
1.812191918,66.0016068,4.103340943,120.5966656
2.226774088,29.96815017,3.371586028,120.8409517
1.753570461,13.86560479,1.066250449,121.0848416
0.645495696,50.59689451,2.665672094,121.3280738
1.150155203,76.07316583,4.632594355,121.570775
1.946709413,81.11326572,5.320647615,121.8128102
1.486112491,72.33100525,4.579159878,122.0543214
0.5838638,48.73819928,2.6554962,122.295359
0.176118597,13.33999389,1.141003603,122.5359494
0.335076842,36.23126531,2.172715214,122.7761392
0.178030283,83.88544241,6.167204477,123.0160658
0.956438812,104.7777862,7.872191275,123.2559085
1.092877668,79.36903512,6.033662786,123.4957135
0.765116557,29.05181254,2.386058457,123.7354093
0.31064585,8.308322338,1.287664883,123.9752814
0.205700126,32.34613363,4.676450281,124.2149092
0.428512197,50.36621406,6.547750656,124.4541654
0.855731217,51.43267562,5.403513622,124.6928071
1.661889555,40.55717634,2.795700081,124.9303745
1.767627378,28.49510685,0.822536487,125.1668054
1.555868376,11.039768,2.57082154,125.4015236
0.88283191,17.27549926,3.007811288,125.6348198
0.644790043,44.71068551,2.774157279,125.8663052
2.220226125,45.04171215,2.025375315,126.0960923
1.933787866,16.88692251,0.46620512,126.3240428
0.473841822,21.70585901,1.011327224,126.5502289
1.035098561,37.36981807,1.890694659,126.7745268
1.540948924,35.94479882,1.482278041,126.9971254
1.280226119,25.9027084,0.468935041,127.2180145
0.316427882,10.30003164,0.12188427,127.4372042
0.652413915,14.95491891,0.696920141,127.6547846
1.144209223,48.73651786,1.194607969,127.8703417
2.558417641,63.96711184,1.209087716,128.0840116
2.959594282,56.11286565,0.48797619,128.295629
1.834943384,28.5849682,0.442452053,128.5051689
1.044990455,9.506669024,1.183679219,128.7123616
0.688280521,47.86408479,1.673235103,128.9170117
0.710501518,82.83754441,2.198636804,129.1190261
0.961140527,78.64298491,2.391828619,129.318416
1.422388853,44.11264705,0.778088406,129.515289
1.002074462,14.00867553,1.807111317,129.7095329
0.352535877,39.1833562,3.113872373,129.9012471
0.360610667,46.53747617,3.290039185,130.0904467
0.847447207,43.43512143,1.464583761,130.2768817
0.778065994,28.69212009,0.446450245,130.4604802
0.653470172,6.945883066,0.680281352,130.6413344
0.360921247,5.347412847,0.320791876,130.8193376
0.324832714,33.32707921,1.970320489,130.9944415
0.962006186,54.15127152,4.91278976,131.1669122
1.206073564,23.32400716,3.652780198,131.3364982
0.448875447,33.08229551,1.400515478,131.5033063
0.962096001,72.18648688,5.549560397,131.6677339
1.767392207,79.19463401,7.065596814,131.8300886
1.834313482,53.06107781,5.368053726,131.9903894
1.670161813,14.60661228,2.279071713,132.1490558
0.703268332,37.86339002,1.364192837,132.3058003
0.174550362,79.11562015,4.662314755,132.460891
0.815173303,103.8263096,7.008285558,132.6141911
2.129561285,116.7573165,7.568644814,132.7660721
2.776033913,100.045164,6.143907419,132.9165357
2.351722556,41.58289016,2.697201374,133.0649548
1.163932893,37.40911123,1.564603188,133.2115717
0.270467368,102.9854943,4.547205245,133.3562719
0.651413025,131.6157165,5.342146079,133.498861
1.067109825,113.7117883,4.641300514,133.6393343
1.35132203,68.74858777,3.7206812,133.7775272
1.638539218,24.87517472,3.532742362,133.9133991
1.197588141,5.444054136,3.240998338,134.0466961
0.576943374,21.90634676,1.545845919,134.1776817
0.627188959,31.9563218,0.263941266,134.3064118
0.932989584,36.78282866,1.197564841,134.4329643
0.69741551,48.99087816,2.948150049,134.5575179
1.091301687,57.56240276,4.183099577,134.6800347
1.243996207,41.11775717,3.923886997,134.8007054
0.52809829,15.36124737,2.477143182,134.9192863
0.649410865,1.136842551,0.908357157,135.0360534
0.883477514,13.77467688,1.061056731,135.1512954
0.687978428,24.36991201,1.54701177,135.2650672
0.458276782,11.07930246,0.562343931,135.3772732
0.358662047,49.36152284,1.642685754,135.4882463
0.950728355,77.83899553,2.924088455,135.598207
1.368273629,66.40346911,2.849374861,135.7069465
0.970793289,22.60814153,2.221859563,135.8150537
0.359977922,11.83361024,1.927486896,135.921865
0.873862446,29.15146027,1.123953652,136.0277792
0.852902296,29.73155075,0.450710107,136.1325705
0.950649422,35.3511319,2.458975365,136.2364518
1.022313951,46.56511994,4.222310525,136.3393804
0.822060806,44.92940981,4.37908764,136.4411135
0.193072395,26.44117794,3.763298682,136.5419496
0.412726963,18.15383949,1.379027927,136.6416
0.244919051,58.58908338,2.4267188,136.7408838
0.943712317,65.13485766,4.893440179,136.8392769
1.571256183,44.29093759,5.299364006,136.9368768
1.259416324,24.52938497,4.490659731,137.0336056
0.916419134,13.18629458,2.216366516,137.1299267
0.668738492,3.543425368,0.916586496,137.225736
0.092841588,0.872474944,0.391383764,137.3208596
0.076429599,11.90228532,1.857465717,137.4150174
0.502523343,36.80811395,3.402030479,137.5080648
0.582675674,66.05845308,4.959142789,137.6000949
0.355501811,84.79741298,5.009982996,137.6907444
1.744628706,73.56706567,3.200294704,137.7797692
1.757987233,34.92162346,1.222431533,137.867341
0.998572895,18.46477918,1.268752153,137.9536164
0.173491355,57.65927366,3.091928916,138.0384783
0.866135521,79.41081275,3.708959499,138.1224161
1.556696365,75.83051734,2.851505801,138.2053192
2.186661268,60.7960822,1.704973753,138.2873212
2.674775742,46.94392249,2.427936448,138.3691159
2.341944309,27.4510135,1.750361865,138.4505102
1.087779194,21.57858348,1.109601026,138.531815
1.343646506,61.34959457,3.370337839,138.613069
2.807461775,60.38396524,3.095545267,138.6940247
2.468306129,16.90764159,1.127638474,138.7750133
1.551964221,45.185075,4.237830389,138.8558922
0.39566138,45.39456669,5.423105761,138.9368017
0.107884277,14.21070424,3.285403201,139.0180489
0.304817429,53.14253313,1.58817015,139.0992173
0.243003955,93.05791955,6.168247409,139.1800072
0.074860258,111.9027841,9.568998261,139.2607533
0.286461553,99.28860933,9.742180113,139.3415646
0.168717719,46.03130617,6.394881706,139.4220742
0.806862316,21.83225405,1.914285429,139.5022145
1.532248918,60.01624779,1.464177374,139.5818712
1.650677585,90.24350644,5.058998434,139.661215
1.390935657,98.37573045,6.611569445,139.7400887
0.26839527,74.22034139,6.306255731,139.8188381
1.186070555,54.96124042,5.547928413,139.8974597
2.867912443,40.52256703,3.796424734,139.9761827
2.377090522,37.94376275,3.993275671,140.0549979
1.769362706,38.95650504,4.743938445,140.1341622
0.670127685,47.42087376,6.317198741,140.2138133
0.122955378,59.52529483,8.825688044,140.2942563
0.339681643,52.2256465,8.441892051,140.3761859
0.603864038,21.09049486,2.809638105,140.4594584
0.68958496,102.6010113,7.740473328,140.5444465
1.568711758,202.1178558,17.62363832,140.6310805
2.112726138,259.4757242,23.99564904,140.7195183
1.377705535,255.497537,24.55037136,140.8094395
0.579299212,188.9601266,18.78709981,140.9006959
0.549662631,66.31329832,8.55781338,140.9927538
0.151774068,74.30794345,3.228568161,141.0851642
0.494933419,184.1521579,11.88292779,141.1776345
1.197405674,243.0853718,18.31051229,141.269352
1.334774363,253.6223951,21.11607702,141.3598488
1.650552003,221.0967744,20.24728502,141.4480596
1.731712499,153.6238727,15.91445065,141.5335208
1.571102617,68.54911541,9.06223489,141.6155117
1.372254756,22.2410487,2.128263272,141.6930866
0.597454099,81.89588997,4.049193903,141.7660431
1.887681545,122.7166104,7.130766395,141.8334008
3.083058409,134.2232422,8.804387556,141.8947811
3.287711785,133.6702271,10.26286327,141.9496286
2.685507418,105.7307244,9.294677475,141.9976226
1.160036562,50.72710745,6.796268221,142.0381173
0.491871313,9.643563356,4.025193219,142.0709621
0.733114507,20.0997025,1.70948371,142.0961579
0.860820155,29.14142048,0.950714009,142.1134629
0.865687826,18.68041008,1.037760765,142.1230274
0.637372839,5.598054249,1.142750425,142.1246468
0.293015842,2.543200391,0.489340334,142.1185031
0.743445204,2.698017027,2.188374861,142.1051289
0.989138722,9.183129407,3.819894162,142.0841857
0.685040107,10.71104711,4.550543736,142.0557364
0.1073739,7.42267806,4.269227177,142.0198741
0.126777177,15.61748598,4.124121054,141.9765064
0.526695203,34.59443634,3.581162958,141.9257142
1.526589144,47.64946184,2.475937331,141.8676484
1.645831995,42.27589126,0.617890079,141.8022921
0.498786155,31.02031471,0.715593033,141.7300407
0.137707661,13.70349125,1.479335648,141.651081
0.084666054,8.925615023,2.480696506,141.5656243
0.879033948,30.4897846,3.525580538,141.4738088
1.466105582,44.97041662,3.671496676,141.3762766
2.24644856,49.59325959,2.497429726,141.2734253
2.527200306,44.12178837,1.198269683,141.1655342
1.596125933,31.66367345,0.420826458,141.0529108
0.268294446,15.09161166,0.132520595,140.9358416
0.457036541,5.095806596,0.352018585,140.8146837
0.797966358,22.69401827,0.817031245,140.689913
0.895697836,34.89385764,1.191530593,140.5614597
1.122683437,32.52461773,1.354970065,140.4295511
1.082794215,22.10718477,1.313266107,140.294681
0.771685038,16.96277027,1.159569037,140.1568067
0.30227206,4.916907691,0.628480378,140.0161329
0.161967593,13.5465213,0.526914318,139.8730074
0.746375558,17.41075528,0.513235488,139.7275234
1.022847844,9.895274269,0.204677617,139.5795005
0.928657495,3.133350282,0.445017681,139.4290559
0.583886292,2.461386051,1.459762469,139.2764273
0.464939138,2.607040069,2.251194777,139.1218398
0.399927784,8.799511822,2.044876514,138.9652706
0.458844244,10.21744397,1.254335614,138.8065416
0.583999304,3.897000112,0.460184555,138.6455838
0.199966204,1.723169245,1.549498772,138.4825839
0.421869721,4.958055338,2.077610192,138.3172103
0.636490089,5.817286671,1.820987921,138.1497161
0.252892453,8.374514997,0.943595842,137.9800539
0.070092465,17.84173121,0.245147119,137.808501
0.262735467,15.31944703,0.642404945,137.6349025
0.273376311,4.920296881,0.343387438,137.4595493
0.280903079,4.917573346,0.161375111,137.282265
0.09623488,14.88314065,0.096448814,137.1032584
0.253690601,16.98901648,0.089997578,136.9221034
0.674863222,9.860407446,0.035780905,136.738897
0.675284342,2.274420013,0.363186251,136.5537536
0.250811797,6.583445024,1.244857655,136.3666616
0.936037009,8.488819442,1.257611011,136.1775954
1.468923351,12.52455958,0.359366168,135.98665
1.39418495,10.44073734,0.668584605,135.7932214
1.066451609,6.132734332,1.091151997,135.5974295
0.390855443,4.832749795,1.486782042,135.3993072
0.55230392,13.01705915,1.732099893,135.1987376
0.852706512,7.793385493,1.071138222,134.9955069
0.98357775,5.309828227,0.385753715,134.7897295
0.890052072,11.69374022,1.63289273,134.5811772
0.770353035,14.12808344,2.541699146,134.3698481
0.716497134,5.791073231,2.101703008,134.1560095
0.53831573,4.679659223,0.801468658,133.9394282
0.076153992,9.784095586,0.137124829,133.7200847
0.288839879,6.80204348,0.333960561,133.4979494
0.20494704,1.511048815,0.602735501,133.2730624
0.101074098,5.344662669,0.792325523,133.0454258
0.041075901,6.660824057,0.492073777,132.8149748
0.014047134,3.534385479,0.520222662,132.5818375
0.179287693,1.44136275,0.684440704,132.3458889
0.401608827,6.829180814,0.676368871,132.1073042
0.684832536,11.93474758,0.18358697,131.8660048
1.065290637,13.87409409,0.026276226,131.6220777
1.000909169,6.638083992,0.116573914,131.3756321
0.374510805,8.900820259,0.177551695,131.1266175
0.737298107,17.4633747,0.190056974,130.8752806
1.079159665,7.67964102,1.003107112,130.6218808
1.218435883,7.882322275,1.428048802,130.3661023
0.943043497,11.24172387,0.467196952,130.1080107
0.23218126,6.007378282,1.029122884,129.8476256
0.469693804,1.25285515,1.900792662,129.5851546
0.458389187,2.146522658,2.602426978,129.320626
0.293805876,1.440393688,2.449066564,129.0545568
0.191492519,1.286237284,1.675250906,128.7865902
0.213052484,2.901217218,0.489538021,128.5173116
0.700258498,5.762525028,0.821814885,128.2469748
0.359375394,5.397721233,1.593929311,127.9756731
0.583293936,3.750845864,2.249389732,127.7036087
0.777639611,0.986573631,2.744304765,127.4307017
1.1030791,4.485153204,3.077801121,127.1570997
1.180776413,8.617370291,2.560589256,126.8830314
0.539556475,12.02585812,1.189799026,126.6087279
0.251308336,13.58595875,0.691982473,126.3344963
1.295817191,11.25479692,2.574248283,126.0607354
2.074599819,5.075943582,3.997786941,125.7870321
1.63745105,5.605408924,4.187044398,125.5136923
0.731575109,9.324873669,2.485630839,125.2407587
0.230281135,2.53792906,0.802064609,124.9683678
0.447469167,2.432673107,2.735576697,124.6968134
0.850752318,2.410612704,3.05777853,124.4260695
1.202954749,14.96472322,1.906676065,124.1561603
1.626735499,27.4262279,0.761250937,123.8869853
1.299526627,18.8858605,0.30200714,123.6183763
0.736015388,4.508737187,1.14190955,123.3504249
0.176386343,11.83984803,1.639822865,123.0831305
0.559461418,12.28521446,1.761632576,122.8162553
0.692032993,3.76928051,1.490438214,122.5495792
0.307880697,4.9112984,0.40501878,122.2835208
0.342174451,8.081702549,0.588540862,122.0178048
0.715230299,20.11884035,1.415601465,121.7523111
1.118842556,17.0798276,2.100309383,121.4868149
1.460955841,12.54154406,2.230226211,121.2209135
0.410934418,6.075184282,1.386767229,120.9546461
0.814744313,3.946770014,0.550543472,120.6880293
1.627569515,10.49208062,1.943052276,120.4206707
1.563233801,14.34060942,2.124423239,120.1524355
0.662519864,11.17089928,1.456406119,119.883343
0.419940143,9.058302503,0.580328115,119.613109
0.960964337,16.76767777,0.140139895,119.3415947
0.737586022,22.23769413,0.770422144,119.0690931
0.409606422,18.21230155,1.521347295,118.7953095
0.448765902,5.480206834,1.578889588,118.5200516
0.209917891,13.11300164,1.006256348,118.2432321
0.111710229,24.19645302,0.326131171,117.9646886
0.286142078,29.29649729,0.09040335,117.6842275
0.657637505,32.03379288,0.276726364,117.4015083
0.927217209,23.17942972,0.705775229,117.116593
0.791554201,6.556287729,1.62167231,116.8295752
0.595108962,10.91763411,1.587556524,116.5403396
0.201429351,22.01804936,0.475788993,116.2488323
0.530759089,29.34343098,0.437073332,115.9550183
0.756429562,33.82965241,1.124590686,115.6587994
0.795007994,24.03586646,0.984030197,115.3603979
0.730839783,6.161328977,0.440032164,115.0595401
0.646130997,9.755581805,0.469220189,114.7561825
0.21048661,16.47802984,1.377939467,114.450402
0.440593904,23.55382516,1.27791105,114.1421214
0.559742919,25.64442177,0.374132208,113.8311336
0.49191455,17.08383353,0.879693371,113.5178382
0.221244009,8.894080765,1.78574299,113.202355
0.152277022,3.568549616,1.798121401,112.884684
0.706641768,13.99674495,1.572252444,112.5647236
1.045267476,20.9044781,0.765015897,112.2419489
0.986858185,21.46247518,0.546378571,111.9167439
0.327416063,13.82737969,1.981210354,111.5885441
0.532903712,3.810684596,2.417450821,111.2570187
0.718755813,8.238165218,2.313451174,110.9229874
0.373254211,11.74521804,1.620330246,110.5869394
0.070778904,15.29090563,0.590503299,110.24852
0.581321416,15.70050962,0.188920416,109.9075653
0.809860885,11.88218423,1.236012594,109.5642079
0.506584791,3.001939239,2.67895548,109.21831
0.174099209,9.245846313,2.95605678,108.8701727
0.082946522,12.06754215,2.265153083,108.5192016
0.171630568,9.683662857,0.696849404,108.1663283
0.074208084,9.260161482,0.669457273,107.8112063
0.122392527,6.848086873,1.138538714,107.4540161
0.132409984,7.79475687,1.759719362,107.0945268
0.279638954,6.61078572,2.2844899,106.7325171
0.418752814,4.672765445,1.49561458,106.3684921
0.458903544,12.82312219,0.283970623,106.0025039
0.211227071,15.13928113,0.267119761,105.634495
0.170207608,8.523985078,0.572949364,105.264341
0.228744256,7.559891152,1.305051077,104.8920528
0.372990947,11.17445125,2.155235594,104.5174563
0.188181077,12.10040065,2.126812478,104.1406035
0.691186545,4.460686605,0.774513425,103.7615044
1.247780143,11.36293201,0.572698573,103.3804115
1.491065752,20.54338074,1.299511565,102.9967675
0.959417996,23.44320025,2.410702308,102.6105427
0.235103037,16.74366742,2.73325542,102.2215004
0.67307069,9.420037132,2.211260928,101.8303322
0.893738559,3.369480161,0.753924165,101.4365893
1.009164329,6.72976442,0.487572779,101.0406663
1.654779524,18.08118847,1.628624418,100.6427185
1.161420469,22.48832901,2.771167593,100.2427608
0.229747061,16.17489528,3.070126367,99.84063693
0.530350759,11.17951186,2.104691537,99.4370262
0.803298195,9.368003239,0.566377142,99.03153552
0.655928284,7.958479985,1.21640856,98.62443329
0.425876953,22.87290511,0.881848157,98.21565893
0.502746378,22.54698137,0.167699463,97.80525042
0.443313554,9.736745551,0.30193588,97.39376661
0.3908338,1.683239858,1.469674861,96.9811947
0.39118916,4.494797804,2.526004211,96.56778893
0.150700075,3.458643515,2.473615693,96.15328403
0.22322098,1.835048691,1.304747619,95.73829049
0.725721494,5.648666627,0.371826778,95.32272121
0.514125989,3.388770451,1.234771233,94.90622542
0.324380556,9.849389455,2.316082931,94.48902106
0.37899946,17.80386968,3.460058312,94.07108758
0.753377239,21.0344836,3.334781129,93.65268947
0.60486873,11.94359639,1.342786206,93.23390915
0.164814297,2.942242728,1.111122876,92.81463621
0.710717848,6.464117448,2.479576932,92.39533736
1.08408201,20.77878746,2.480275145,91.97601476
1.330138135,30.8170869,1.465749408,91.55721899
0.903166276,31.69859697,0.264463897,91.13886292
0.122000298,20.58360945,0.685680476,90.72122173
0.403457057,6.127673697,1.280356416,90.30416706
1.268258467,21.59134316,1.236364483,89.88775933
1.419028772,34.04800893,0.430868866,89.47254219
0.939695793,35.10876859,0.619261577,89.05861717
0.331654983,13.03477143,1.508737053,88.64639207
0.203387071,4.270491421,1.786909361,88.23615877
0.295423345,8.671806467,0.925375836,87.82823059
0.376218745,3.800092607,0.498726028,87.42175077
0.85153959,5.230615801,1.27674385,87.01666125
1.398791262,2.968522635,0.825602954,86.61355546
0.969022133,6.228103877,0.191376463,86.21242746
0.249935931,16.48166858,0.204982089,85.81307856
0.921253066,24.76066561,0.155220392,85.41544862
1.533762952,26.07327231,0.259838389,85.01977674
1.384265476,16.8441162,1.131726709,84.62632174
0.511339007,4.419591412,1.243324789,84.23465205
0.291435831,5.832705956,0.341810941,83.84460423
0.196251289,20.20878492,1.019945365,83.45647124
0.685084297,34.52718077,1.124018535,83.0699855
1.458253867,41.74601003,0.336989897,82.68572889
1.990674464,35.82550556,0.764724295,82.30307728
2.216405848,11.72077435,0.460671284,81.92242345
1.088090508,22.11437972,0.251244539,81.54362021
0.514491114,38.59092474,0.742791832,81.16701394
2.349022219,38.07529565,2.39458706,80.79271068
3.160620908,30.12384282,3.015373412,80.42079713
2.813685856,13.33932987,2.135269728,80.05125332
1.220233429,8.342264693,0.653859219,79.68420115
0.627364953,20.03944435,1.999779533,79.31929466
1.984384997,22.94332765,3.642588609,78.95663953
2.783393685,24.46991454,4.019608614,78.59616779
2.310754308,17.78813468,3.421645628,78.238237
1.488323075,4.767512583,2.185349978,77.88227996
1.194098202,17.15482496,0.679813271,77.5283974
0.616814476,28.58450171,1.377159397,77.17638013
1.914082907,27.49795806,2.709579475,76.8262157
3.688508015,9.681304647,2.903466538,76.4776722
3.885750361,14.17195572,2.443573255,76.13073083
2.92637696,29.64433191,2.138577521,75.78525141
1.026348605,31.01478691,2.138635294,75.44165
0.889186186,13.51282337,1.373786983,75.09925115
2.719819688,5.19259372,0.393851893,74.75805247
3.906606992,4.535594212,1.232948656,74.41787213
3.719192225,3.528788333,2.135396573,74.07846889
2.370543317,12.08275573,2.544030961,73.73959798
1.160992818,15.55608769,2.444644321,73.4011736
0.333491079,17.4933383,2.288146044,73.06348642
1.670844872,18.74055225,1.06114655,72.72643885
3.222278672,14.12587271,0.60329335,72.38999297
3.164117529,4.178985431,1.800060619,72.05402502
2.16969705,14.28461076,2.262577828,71.71861761
0.725981357,22.99535286,1.490277037,71.38383115
0.304147162,19.93626264,0.434943763,71.04979095
0.520135626,12.122768,0.157846139,70.71597541
0.961762152,5.710865637,0.174761178,70.38286745
1.27075429,5.116031917,0.112689446,70.04979893
1.483464853,6.719950987,0.541122199,69.71675553
1.624047711,4.539965399,0.673484833,69.38350575
1.534690707,6.46584423,0.167828603,69.04994615
0.543358514,21.58201902,0.043620707,68.71587121
0.844916463,31.29274428,0.240109725,68.38153933
1.897434457,28.39572115,0.671311466,68.04675201
1.995539825,14.55622359,1.157116355,67.71120481
1.229070965,5.928980454,1.004313195,67.37513011
0.531153179,18.47002407,0.263294328,67.03843456
1.485943377,20.6408836,0.861437637,66.701301
0.567170345,16.25467835,1.775052121,66.3639387
0.706332148,20.75252051,2.539433366,66.02625458
0.54246945,28.41064367,2.476133279,65.68814429
0.20205903,26.34508549,1.853029117,65.34953798
0.307230524,9.604113961,0.779282356,65.01069634
0.503570258,15.33838392,0.512507954,64.67162487
0.288767159,27.07494109,1.842026167,64.33285219
0.969254154,26.64860553,2.576328343,63.99410863
1.546259522,26.08866124,2.715248055,63.65537068
1.707085493,32.39551169,2.412525689,63.31721013
0.571024312,31.7789502,1.321041373,62.97964796
0.546183747,15.11278408,0.310092236,62.64250657
1.841060881,8.209632614,0.128096133,62.30617989
2.545277609,20.33191168,0.628692022,61.9703721
1.917644901,29.03753614,1.428995606,61.63510476
0.721976487,36.01182895,1.717380563,61.30065063
0.985983147,32.40245745,1.260889951,60.96708093
2.330365137,19.32763146,0.957916503,60.63446131
2.315354212,5.895468625,1.259828775,60.30240925
1.371600726,4.406364889,1.06595853,59.97093183
0.6520357,10.31148368,0.508310235,59.63998692
0.189037915,15.31467311,0.598303534,59.30958069
0.463323074,20.32495499,1.982435423,58.97913729
1.563153531,19.58072706,3.133588703,58.64914867
3.402295462,17.72487785,3.739696302,58.31961454
3.708449142,13.82637311,3.144478703,57.99042253
1.768991303,3.926634471,1.04037691,57.66136149
1.154277665,8.871542167,2.041680706,57.33307843
2.980202886,12.27074396,4.184656681,57.00549078
2.834566291,19.67357336,4.776976325,56.67886195
2.130269621,26.00484353,4.021544204,56.35322575
1.748264041,26.12518665,2.964895671,56.02868194
1.014037157,14.69594561,1.781151105,55.70502089
0.167055682,12.33504548,0.503863349,55.38213793
0.08155738,44.62099981,2.292060572,55.06011414
0.766822655,52.73231043,3.616971525,54.73910816
1.993703294,25.25609973,4.074171025,54.41902769
2.811633724,7.491091895,4.417139099,54.09978406
2.665880982,26.52617426,4.328049456,53.78156951
1.150768529,33.87291,3.398022513,53.46455115
0.695775243,30.95514158,1.122878314,53.14853969
1.559721709,27.71860105,3.534551666,52.83340616
1.226019796,17.27735954,6.472028525,52.51916883
0.674892372,10.47453299,6.151087862,52.20627469
1.127110037,30.30532734,4.183792576,51.89467516
1.213563588,35.14972037,2.366449137,51.5841931
0.926275109,33.63994348,0.566232766,51.27468559
0.595633317,19.91361171,1.79903551,50.96602503
1.813958993,9.531030069,3.338724605,50.65806849
1.818718876,30.77562021,4.812244859,50.35096221
0.855805032,26.94301856,5.275938321,50.04455515
0.458301971,8.539390961,4.246251975,49.73915265
1.4861726,5.675794044,2.014623544,49.43474289
1.40038029,10.93020101,0.739159847,49.13116072
1.004913741,11.86942036,2.751268996,48.82863369
1.375342078,11.85547408,4.494020176,48.52718983
1.141006758,12.66346292,5.742369946,48.22691685
1.308333211,5.518491967,5.029074407,47.92793869
3.693879682,22.23786716,2.05263501,47.63024783
4.401706195,35.13711654,1.751654203,47.33392584
2.66619054,35.06739085,4.833705168,47.0388092
0.842469512,15.02208403,5.653849174,46.74511648
2.383146108,12.69820457,3.867307136,46.45294773
3.377993634,30.99427518,0.984851635,46.16235649
3.416008813,36.12170486,2.759948509,45.87342409
2.087191472,33.38988554,6.41708643,45.58645304
0.993977728,11.18310632,8.187574615,45.30141102
0.54772037,8.779760703,6.933688705,45.01866788
0.391077684,14.33463912,3.246182783,44.73841886
2.524878097,16.1792642,2.191748923,44.46067596
4.472642543,21.56851868,7.929274164,44.18567334
3.758978115,25.64372075,12.36731139,43.91377989
1.564972661,17.50873553,13.69879346,43.64509512
0.431518956,10.50954793,11.3033837,43.3799473
1.845201143,32.68178354,5.988914859,43.11814637
2.990165118,31.97915952,2.146183977,42.85971073
2.84241513,10.19344519,8.648339512,42.60486162
2.358726374,6.030622872,12.95359808,42.35329953
1.664225356,6.079116573,13.50201685,42.10543404
0.416774914,14.31817061,11.14817065,41.86108525
1.054669741,17.80840791,7.115258251,41.62064321
1.562397115,9.581052046,2.701436931,41.38419044
2.404365059,2.599692526,1.517974079,41.1520217
2.398043725,2.714129571,5.086175438,40.92411016
1.645728036,6.543503169,7.987220757,40.70065213
0.461590491,3.26102386,8.373144646,40.4813612
1.668795228,6.616776105,6.288914704,40.26651976
2.033159386,12.65617735,3.209306334,40.05569239
1.279794605,18.9660564,0.581439535,39.84873499
0.76079051,22.98440446,1.126276045,39.64529495
1.20752881,15.99963997,2.460326167,39.44580739
0.887843694,10.43895226,3.892821709,39.25002744
0.446561142,33.88204077,3.828400037,39.05808184
2.542664993,37.23957944,2.391015331,38.86976887
4.015832157,34.6505982,0.616844569,38.6852705
3.671175581,27.51651514,1.213071678,38.50434433
2.406231114,9.346476453,1.655337005,38.32706455
0.74422361,10.62971044,2.271466375,38.15345111
2.842097056,29.56140021,3.204443155,37.98312664
4.784151639,46.64436582,2.765670473,37.81565345
5.311544598,44.77068656,0.847267876,37.65127507
3.929290131,17.81806331,1.77472877,37.48964213
2.169146803,11.94501019,3.295208701,37.33037807
0.616548349,18.38343573,3.644554802,37.1732734
2.02418259,8.175729667,2.898520319,37.01796526
4.246333173,7.625531262,0.941086621,36.86444481
4.397606098,10.10746439,1.908779205,36.71240081
3.445407363,12.57385588,3.927693851,36.56182341
2.935951612,6.014796513,5.110228991,36.41244362
2.309643456,4.02198985,4.747816962,36.26426127
0.678078348,4.931199065,2.13572652,36.11690175
1.49140717,3.641371052,0.816891228,35.97020624
2.670526071,7.775065605,2.78643688,35.82408567
3.423098564,5.038511477,4.492475602,35.6785181
3.336422515,18.29785615,5.489558858,35.53279225
2.066103728,31.88584195,5.262060765,35.38686636
0.751877116,30.42221818,3.974416026,35.24093524
0.370804763,12.3058042,1.46269981,35.09481037
1.027011137,17.04001659,1.311735475,34.94859468
1.108977452,39.40071532,3.424307423,34.80182664
0.63887884,48.6816094,4.925791991,34.65450332
0.353329738,43.4077669,5.318702592,34.5065697
0.255586113,35.93461827,4.259305776,34.35805246
0.486523917,11.02151549,1.755891755,34.20890485
1.549102452,22.99720916,0.576670998,34.05907846
3.386387778,47.47837017,0.801625771,33.90836757
2.634769676,63.06171748,0.396779567,33.75658306
0.681724245,56.98837698,0.729567768,33.60366475
2.105173878,28.9014734,0.784373294,33.44956793
3.339378834,7.861827775,3.094013473,33.294056
2.929292914,28.86897393,4.993835019,33.13707689
2.077193007,40.27347399,5.20053852,32.97851968
1.26825868,43.02491267,4.211521405,32.81853048
0.606607123,31.21590048,2.944803402,32.65694101
1.231804977,12.548556,1.369356372,32.49393581
2.758630021,7.463861166,1.183931528,32.32912765
3.44564005,5.088674571,4.134470846,32.16275353
2.49690602,15.54246233,5.981897574,31.99493345
0.598830163,33.09073082,5.589612268,31.82579884
0.386459474,29.90088113,3.558667996,31.65563001
0.129087026,21.04966153,1.131655693,31.48424073
0.187017558,12.69639759,0.111006154,31.3117787
1.99560547,3.735931894,0.287338547,31.1383733
3.927021351,12.4414529,0.876489063,30.9642205
2.366263885,30.63939704,2.009400384,30.78932125
0.511747136,35.56450043,3.116241624,30.6138548
1.579301969,22.36604583,2.99774866,30.438162
2.974826713,5.939217919,1.315999911,30.26209765
2.158640802,11.5518129,0.863389064,30.08585302
0.382327374,15.69831108,2.222129855,29.90960571
0.352366063,13.49380659,1.637678167,29.73343154
1.169511557,26.19013323,0.877152436,29.55728925
1.611532566,38.714474,2.52830447,29.38128496
1.143562453,33.40168544,2.1630298,29.20543326
0.772358974,11.4048769,0.67432053,29.02975257
1.958497092,15.09787607,0.308719352,28.85450885
1.727842502,38.69481718,0.559872367,28.67959234
1.971940072,54.95486758,0.333496363,28.5050603
4.90894369,47.90028209,0.607249939,28.33132469
4.677513002,25.19361525,2.194945624,28.15841587
2.051205954,5.171814053,4.510737084,27.98622408
1.001626,1.498063928,5.293300973,27.81495838
2.475925715,2.639939315,2.904583201,27.64469745
2.653707011,23.57508511,0.925081281,27.47564025
2.439714236,56.6221381,3.599737625,27.30783548
1.641545551,74.33228267,5.62240616,27.14126943
0.503181349,62.66506413,5.908849806,26.97629418
0.236742786,18.89969559,4.190205696,26.81290514
0.363710089,21.03944819,1.787516597,26.65127467
1.36146416,47.94398028,0.300725122,26.49125698
1.147526694,60.68466238,0.862077171,26.33321569
0.645451715,59.81342206,2.276033605,26.1770828
0.557108196,49.20486857,3.9199801,26.02269501
0.289855556,28.29184312,5.140566285,25.86999326
0.130003211,7.897375777,4.676630478,25.71898702
0.31091825,31.03471561,3.325867715,25.56936332
0.616665513,49.43174976,1.37514419,25.42069452
0.894433706,46.55388892,1.613887398,25.27287055
1.074146234,32.52000564,4.952886137,25.12550846
0.966876368,13.70555816,7.584236994,24.97869475
0.989092315,10.15409991,7.740281429,24.83245886
0.615275128,18.83295793,4.6001788,24.68640611
2.228501849,7.637743348,1.371314205,24.54069712
3.022133612,12.86709722,5.04988056,24.39505545
1.876034915,10.49010937,7.490389164,24.24939421
0.649700059,11.92891578,7.025608442,24.10349944
0.02832628,25.47033419,4.234649982,23.95749815
0.061860894,21.62275069,0.953802624,23.81085985
0.177797013,6.947658879,1.540350954,23.66352494
0.986717463,5.144096251,2.20696238,23.5153011
2.764091,5.476731431,2.535928426,23.36619142
3.825429594,3.353685754,3.246618047,23.21583994
2.674726151,7.992926377,4.239705938,23.06394792
0.583960711,3.437109726,3.805474777,22.91047147
1.121019624,2.299408996,1.164582843,22.75512814
1.88738828,2.495726191,3.233721942,22.59821098
3.306230074,3.526283803,4.872727242,22.43923306
4.540164504,4.057748809,4.757469693,22.27810358
4.124825044,21.71204743,3.728772394,22.11461219
1.878473115,41.16561169,2.112881845,21.94871802
1.553920897,43.47566546,0.730905476,21.78044208
4.280874557,16.89278349,3.114347937,21.60950449
5.378239875,19.96345794,5.140364837,21.43592892
4.854106298,36.11231276,6.027312473,21.25957159
2.911999029,36.32613016,5.515576927,21.08066557
0.553611431,30.182428,3.125282064,20.89928571
0.621017754,21.82647478,0.769852382,20.71535291
0.751519756,20.41185546,1.627427849,20.5294158
3.015178602,23.14915936,0.510597013,20.34178923
6.857785684,8.568116406,0.315925918,20.15258229
7.299152404,27.16202404,3.57008563,19.96228729
4.324941606,49.36768992,9.098067927,19.77111634
0.860824737,54.25390942,11.69014831,19.57926187
1.88971267,44.08351537,9.171797868,19.387657
3.546634571,20.92359694,4.044525463,19.19613726
5.078177628,6.780888818,1.457575741,19.00534101
6.273597162,26.75753063,5.621699091,18.81565128
7.054546103,36.41177439,9.96133532,18.6273391
6.569782169,43.71127594,13.89847238,18.44036674
2.610564682,43.44671288,15.45970794,18.25513614
4.065182215,23.24122465,12.96947043,18.07198702
7.147255599,4.405696948,6.28717142,17.89139336
8.956696831,11.17568642,2.807542816,17.71349556
8.615607868,20.27234083,10.37831052,17.53853679
6.048580777,30.25784504,15.98652504,17.36667946
1.852077803,34.21932868,18.09748202,17.19816191
3.600212948,35.95203884,16.31073794,17.03318465
6.916873621,30.12313547,9.825742994,16.87180541
8.081510242,12.13539804,2.357238774,16.71439575
8.076645778,23.15605731,7.512081427,16.561075
5.80933889,62.63817392,14.12648225,16.41164301
1.501543718,65.01190767,17.44676924,16.26598096
1.932212169,31.67590426,15.83020891,16.12411601
1.872196283,8.323807015,10.4610851,15.98614583
3.111980533,24.8422519,4.630179278,15.85180893
8.438778169,24.39066795,1.749447203,15.72127999
11.79901337,14.81755723,8.999602756,15.59465843
10.46310867,30.05992959,17.44330149,15.4718558
4.622830891,47.12674332,21.78542401,15.35263758
3.357136705,42.08237043,19.47164027,15.2369928
9.827909521,13.64476133,10.72182814,15.12445474
12.78683856,28.56151881,3.362704925,15.01512119
11.49539926,58.05604785,13.55629823,14.90878474
6.660840113,68.14810363,21.72893851,14.80507799
1.464898035,57.33677139,22.70607162,14.70392025
3.627451713,28.64670854,16.90974445,14.60514179
4.965360233,14.00799039,8.101786717,14.50827564
6.272132038,42.05212551,1.746691907,14.4131313
7.042310726,49.56262585,6.366192399,14.31970046
5.685106559,54.33522915,12.35045317,14.22774801
2.56977789,50.29847941,16.28546628,14.1369036
1.18230562,24.23663433,16.45517881,14.04695442
3.114339627,6.514396849,12.76397561,13.95764949
2.480081928,16.04918224,7.046777255,13.86870833
1.46294749,21.92236343,1.534606035,13.78003616
1.737153592,27.90318742,4.070457865,13.69119316
2.647399562,38.89795899,7.876537722,13.60227451
3.081153669,54.7434131,10.30628713,13.51318749
2.993220739,43.19376628,11.2496957,13.42369291
2.431792194,10.9501378,10.61150849,13.33359991
1.055219243,35.09563357,8.125840304,13.24279927
0.819450852,53.86657317,4.416919271,13.15113687
1.540289549,47.66972478,0.931463346,13.05882456
2.576354394,21.11823056,2.684471796,12.96583794
4.292132966,7.540588055,4.644832151,12.87213476
4.266837826,18.18965726,5.434667978,12.7777394
3.041781487,20.96833294,6.106064364,12.6826003
2.214633777,28.37677845,6.874407714,12.58656024
1.231573334,21.62107017,7.258922163,12.48958723
0.39650095,9.571172215,7.353717218,12.39190268
1.249117761,33.03932954,6.598999408,12.29301916
3.150946701,42.16784297,4.394788105,12.19319018
4.693508125,30.91959783,1.26294726,12.09246821
5.133703852,7.987668734,4.926038023,11.99044513
4.305762565,19.50861979,9.526820239,11.88777564
2.542781764,37.00580742,12.33761655,11.78418644
0.603502316,42.66059955,13.76625729,11.67987304
1.62351129,35.64468746,10.95222588,11.57506268
2.631461533,19.49271976,5.514759768,11.46995603
2.954324124,6.340389896,1.191974714,11.36468215
3.315452264,3.595747138,3.574534342,11.25914359
3.876948953,12.77747269,5.925619216,11.15343643
4.166208496,46.21936517,7.416108747,11.04797844
3.311563472,69.72582025,9.012997633,10.94265864
1.843334917,69.6991601,10.33137142,10.83814146
0.459242868,43.74741447,10.04106847,10.73444083
1.644996824,11.91055748,7.747022589,10.63102661
3.632314854,43.89708727,4.387902203,10.52814703
4.522959157,73.7554306,1.023611252,10.42558921
4.025063702,80.84095951,2.776266376,10.32334607
2.719479107,63.13387348,6.42705274,10.221473
1.44602165,31.46047186,10.10103312,10.11986852
0.432030648,7.628010671,12.22059295,10.01883062
2.794632631,30.40833198,12.21356644,9.918295979
7.220015304,57.15189684,10.17631291,9.818651713
10.0732297,66.61447252,6.061306525,9.71994159
9.132676438,54.05922268,1.824497479,9.621983659
3.595254112,28.40405467,6.21066804,9.525062066
4.802747206,8.694709817,9.477685981,9.429209519
13.30478812,38.38723552,9.749696092,9.334676808
20.06128897,62.23547483,7.477023537,9.241677754
22.15614228,45.9696663,3.981237889,9.150371877
16.97837223,15.01159303,1.08853253,9.06091828
6.686294297,6.024810107,4.080666122,8.973653011
4.33962681,34.72813214,3.874672888,8.888671058
10.65617305,64.10640027,2.277951941,8.806052175
13.24835999,65.41996855,9.162602386,8.726030356
16.45172869,34.27668043,12.16896797,8.649045595
18.03774889,12.93684965,8.995861676,8.574913036
16.53991068,42.95828162,2.491675793,8.503706926
11.0710493,59.74146817,4.313378124,8.4354466
3.493111372,63.99318438,10.08031664,8.370105521
3.101247503,59.0808588,13.04767889,8.307609127
7.40306925,37.30969066,9.284352098,8.24782737
9.232955924,8.954674291,13.56229711,8.190525985
8.355583601,24.15272106,18.12007385,8.135675024
5.457016003,43.16907919,13.2342035,8.082999356
2.477168348,50.77206778,6.262828251,8.032357355
0.571395747,43.11072531,9.549834267,7.983743354
1.758386194,26.81226425,19.48966256,7.936940741
2.086120823,10.03388403,23.92361321,7.892057155
1.27348582,6.433109544,22.34254034,7.849197646
0.470316269,14.61307595,14.01891343,7.808172736
2.015189979,14.10413372,3.269442658,7.768814657
4.718835585,5.810237383,8.68975463,7.731031353
4.336900933,10.76212108,17.26538082,7.694793667
2.173288177,30.55394829,20.29870425,7.660217663
6.790042394,48.44597184,11.17405404,7.627344978
7.309995359,35.44767945,5.927242642,7.596268875
3.390879754,9.57156746,18.34488378,7.566837978
2.557194492,41.00288415,21.99581206,7.539373425
7.349697606,82.12368325,16.33744584,7.513543376
9.678642338,100.0600823,4.574755942,7.489660555
9.292731952,89.2881701,11.41760183,7.46764702
6.238426488,58.41349338,21.75913658,7.447182175
1.724393387,15.86893972,26.21346024,7.428188522
2.880911724,50.38481933,23.5282802,7.410593637
6.132867701,93.78787025,13.09601522,7.394195356
7.894001678,101.2532889,2.327719918,7.378692857
7.555238215,79.62988832,11.08487597,7.364041557
5.056208835,43.13257868,20.24836356,7.350485882
1.457216114,14.92531177,22.45326864,7.337701816
2.347074274,54.01686796,16.26376394,7.325683264
3.99127542,48.38723062,4.374260224,7.314559119
1.277932938,16.32479189,9.218458189,7.304174545
1.397426093,13.98059174,11.96364073,7.294769677
3.914403767,30.47726906,4.279657101,7.287004748
4.115146334,22.14468322,6.870157977,7.281151015
1.462219745,16.64127526,14.82566667,7.277395154
4.509857718,13.7439958,16.00351672,7.276148578
4.456393127,10.59663072,8.826949258,7.27769384
3.752637868,36.98090739,3.685412705,7.282671854
4.677373702,44.81022471,15.07269529,7.290914215
7.03976022,46.1239008,26.72849403,7.302681249
5.667657409,49.97270495,30.91360411,7.31803372
1.276675249,49.93997777,24.10097972,7.337134931
2.207833377,26.84601749,8.352845867,7.360270018
5.202238693,13.70519974,9.647666412,7.38753673
9.746797544,38.67313063,22.55228997,7.41950711
11.92764099,40.53798332,27.02131729,7.456040944
9.166992467,24.62358679,24.5865919,7.497396585
2.933302472,24.28477913,16.98351594,7.543770423
4.369645047,27.69307558,5.301829248,7.595204188
9.824061984,18.66433325,10.34931979,7.652108737
8.887203961,10.63799523,22.68572061,7.71439077
4.866861292,29.10430577,25.1208453,7.782427922
1.627713745,54.48940633,15.45437906,7.856391448
0.352090296,43.84706677,3.569794622,7.936299264
2.18460275,12.31825814,10.41085711,8.022202719
6.415589996,43.27106893,15.76282486,8.114222302
9.618576785,68.92042561,18.70466877,8.212522389
7.793961659,51.04707421,20.80098892,8.317342015
2.710207393,30.52835374,16.98735461,8.428841732
5.664490102,32.94778381,5.641593765,8.547283823
10.6742468,27.96262225,9.773070682,8.673148671
10.13403028,16.81655252,24.14627844,8.806141002
7.221708188,8.059287541,30.74501933,8.946389284
2.592982038,35.62311321,27.02298433,9.093850796
3.319265267,79.50101487,15.20803004,9.248548274
8.328857832,84.46693347,4.006203378,9.410627528
8.077881404,46.16461195,15.05564638,9.579787463
5.883233676,12.86396077,24.9058708,9.755811398
3.043307736,52.61373121,25.15243405,9.938482736
1.571351237,86.9810578,16.71467729,10.12753514
5.128736296,95.19547164,5.322605953,10.32259792
6.387432242,97.74630548,6.565934056,10.52376831
4.817724562,60.47764047,16.547719,10.73057453
2.555475999,17.04867386,20.80913396,10.94285379
2.144644375,72.02615045,16.96941647,11.15998152
0.825081912,129.3935056,7.48418572,11.3819637
2.072344195,149.5066137,2.859981897,11.6083486
4.634826124,117.741865,12.07131587,11.83918187
7.600895557,52.50762485,19.03858667,12.07399912
7.442250107,12.34342833,20.02847368,12.31259421
4.104971279,46.55309343,13.96118357,12.55488474
1.019251937,111.0249406,3.851358088,12.80075274
3.157967964,131.8120653,6.275487316,13.05029697
5.983849084,84.74297248,13.3429221,13.30319722
8.105421642,29.4741005,17.39259815,13.55979476
6.89857539,2.007213242,15.98609668,13.81995966
5.822305245,5.456613464,7.58621095,14.08377301
2.735975437,3.225460992,3.170662945,14.35118941
2.66885684,5.194473929,9.237326888,14.62257594
5.300104352,14.65476231,9.672096375,14.89771339
7.056938949,51.81411461,6.701372505,15.17649516
6.881478117,68.38305474,2.613093191,15.4591739
6.067934873,47.10902838,1.665169676,15.74581516
3.914351743,25.62518763,5.423559591,16.03654962
1.272733938,13.73360735,7.788924963,16.33148564
4.323509693,19.73338845,5.815975472,16.63065983
6.375506677,14.38610845,1.634812603,16.93420259
9.447054622,38.4895163,4.815933593,17.24179113
8.850280205,25.88321476,8.194361266,17.55357792
2.857525297,37.00569075,7.200690987,17.86977648
8.65492706,86.07255169,4.08261635,18.19042012
9.073390381,74.98570351,2.714137647,18.51553783
4.9678604,54.94847217,2.095690166,18.8452643
1.234440679,31.33991314,1.133853871,19.17978195
5.804335428,5.698781956,5.60538425,19.51904146
9.39318806,12.50937304,9.360850409,19.86325572
4.706943442,24.51581969,8.948217184,20.2125556
3.369737902,61.75418021,4.202422084,20.56707183
4.826928041,99.17512285,2.140865702,20.92659191
4.773649069,97.03103062,6.596797371,21.29124055
6.966216307,45.60042192,6.727311003,21.66110222
6.532018094,26.07328339,4.543262236,22.03597192
3.11853023,73.41582299,2.542014355,22.41585232
3.169962431,55.68721605,0.785319076,22.80046534
9.735730263,12.44729358,3.006777536,23.19015186
12.2798005,27.47528596,6.073691235,23.58483994
10.57012885,14.13440231,9.087570556,23.98410836
5.396216428,61.52601428,8.750315514,24.38802543
2.41329559,96.2868396,3.652204076,24.79612896
6.736849875,79.04662772,3.623412233,25.20837819
6.412205497,19.33825315,8.393525826,25.62419099
6.782935336,46.67409172,8.162791753,26.04368265
8.967069968,76.00315104,4.649802887,26.4668993
8.735753651,74.61006133,2.5824689,26.89358497
5.039943488,52.41496647,3.912276793,27.32351459
1.166413396,22.56956223,5.374505813,27.75668296
4.405099966,14.46389827,4.612816349,28.19313374
8.629136349,25.5272256,2.693528044,28.63274798
9.384315213,9.457064054,1.084037109,29.07549589
8.888901986,14.13847045,6.023879036,29.52168481
7.664229908,17.01673803,11.51201199,29.97155782
3.513247929,3.865595715,13.21210606,30.4248965
0.979300298,16.06385024,9.524619484,30.88209543
4.348270912,34.99838106,3.962868444,31.34301299
8.96104543,40.68122998,1.024594555,31.80797382
14.47488617,15.14630273,3.603685886,32.27716461
13.92784043,31.89869267,5.796987325,32.75038649
4.535409344,26.16398658,6.731965444,33.22783685
5.792613937,8.127543386,5.546163003,33.70904359
9.44262505,20.70225132,4.40348907,34.19446069
7.517771549,23.39699444,5.076775103,34.68379945
6.179801436,21.80259534,5.302486872,35.17693731
8.48090413,23.39659872,3.246680112,35.6735804
7.572281091,21.78258113,2.203058232,36.17382554
2.347418043,10.01038107,7.490322861,36.67764205
7.242246771,16.51233462,7.956561931,37.18514574
9.837212353,52.27080789,4.578395435,37.69598402
6.788638363,81.03200505,2.387580958,38.21027632
2.836761385,82.73576634,2.656552232,38.72799812
0.650094659,34.02544771,2.238244007,39.24902519
1.540048442,42.55205589,0.879015489,39.7736027
2.228039187,83.78576382,3.408825905,40.30173891
2.349562363,69.95338717,4.036755151,40.83325287
2.481391039,37.82654289,1.891393805,41.36795866
2.286758439,13.08722531,0.600459739,41.90620299
5.403319925,8.663721776,2.74758364,42.44769555
3.04086549,32.94679607,5.227766372,42.99244106
1.6262428,34.9585297,5.750280476,43.54063687
7.752429317,15.16234444,3.586284939,44.09229914
7.117996565,6.667698674,1.016752564,44.64719204
1.743276703,5.120373952,4.114399617,45.2052177
3.152793864,23.8521343,6.377410622,45.76621166
2.806733064,47.67646666,7.420835927,46.32993079
1.288879573,26.98332155,8.650158761,46.8959107
0.607317805,12.12871425,7.903984837,47.46417216
0.706060888,39.70741257,3.976322693,48.03458437
1.011569846,62.43803707,1.611870953,48.60681
0.571232831,56.42610436,4.846920851,49.18063033
2.25561869,46.373903,6.739753253,49.75573265
3.116213854,38.60644928,8.660106605,50.33181069
2.022813026,11.40641025,9.529169373,50.90891804
0.663374846,35.36477277,6.625058186,51.48706389
1.668863101,58.69595892,1.608976687,52.06601747
0.327731217,58.01405695,3.453907727,52.6453551
2.796501814,36.64798783,6.729247215,53.22516458
6.189477904,11.70461935,6.501199618,53.80494014
5.935594713,3.805310774,2.451315243,54.38481161
4.156814743,2.769390512,1.826285322,54.96456218
1.189568521,7.350176904,3.529152324,55.54441618
4.729211495,4.352217136,2.255317419,56.12416614
8.781981736,20.229533,0.814537383,56.70409293
9.068236385,32.10330987,3.251841753,57.28415199
7.24649512,11.58131357,4.673445391,57.86437488
1.922228491,4.064186351,3.520480426,58.44501361
3.537359381,10.89031816,0.864166585,59.02604235
5.641581216,34.08462353,1.463640361,59.60738819
6.358666886,36.82435435,2.114775004,60.18882453
5.672429915,13.31287353,1.96472249,60.77070539
2.068470345,46.8199724,1.055271902,61.35313456
0.690327646,70.5439576,1.22573624,61.93571257
1.658310403,52.68320353,3.045172172,62.51864044
4.05897523,12.79297045,2.133807149,63.10184986
3.920030921,30.73441449,0.862864684,63.68532539
2.07731525,31.43549918,3.355427115,64.26916013
0.826444846,19.1030311,5.590525509,64.85344193
4.009848408,10.14849967,7.306997469,65.43786937
5.59999638,8.87740468,6.66193111,66.02273023
3.397668897,33.26756361,2.241039689,66.60781296
1.31082322,43.94884346,5.286604941,67.19327452
3.978277115,22.92014635,10.12043263,67.7789992
4.857179745,8.219397124,9.38180653,68.36487782
4.28480767,20.7757269,5.858186932,68.95090886
1.731408965,21.58566238,1.688398142,69.53742705
0.345965023,35.02430574,2.322703962,70.12438081
0.720204312,45.07615602,4.807238169,70.71139456
0.962439452,41.88744397,4.881354248,71.29873564
0.379278568,16.48703123,2.658414221,71.88620411
3.076883073,14.75413424,1.03319602,72.47402597
4.699847956,43.28998876,0.6575485,73.06162585
3.66849881,48.24809088,0.76319699,73.64975003
1.141269579,46.46578444,0.361810189,74.23819509
1.15003733,28.97699529,0.734819636,74.8269091
1.910302086,5.844338513,1.069226611,75.41635992
2.919983568,23.91183167,0.541402078,76.00663113
4.269877972,51.17209818,0.545941468,76.59723569
4.622107099,59.6069225,0.750952706,77.18841728
1.827258541,55.86711631,0.373421851,77.78000739
3.630330763,37.81661185,1.796856313,78.37201177
5.098262152,10.34264288,2.95560317,78.96441858
2.559018484,25.49555908,2.192784173,79.55705952
0.488141827,41.95700024,0.785610742,80.15021993
1.356626217,63.40940467,3.524842315,80.74410222
1.298228855,83.12552,5.878170653,81.33878771
1.318710767,79.63815457,6.199037113,81.93450118
0.412331292,42.72168967,4.401486933,82.53090007
0.883250739,29.22196023,1.356873098,83.12782005
1.942819208,77.79124925,5.054486468,83.72535605
1.411626302,68.09286963,6.93872181,84.32317723
0.470369076,48.70350342,5.856838677,84.92197165
2.52847471,38.15039738,2.640295402,85.52147624
3.025532424,25.96609196,0.596218837,86.12139582
2.201411056,22.84159857,1.216887837,86.72170654
1.25792706,10.97685418,2.39703112,87.32210593
3.321875923,46.28366723,2.612160672,87.92334247
2.932097029,61.8572381,1.113625364,88.52437666
1.110488318,55.76511177,0.29191409,89.12533954
0.320730297,32.62553538,1.026019481,89.72623924
1.288500272,11.41466555,2.029664334,90.3265728
1.798097716,33.65292167,0.753881634,90.92605515
1.633734732,30.57376372,1.121585797,91.52438548
2.709158389,43.00701763,1.221971167,92.12105991
1.635000194,53.062399,1.550814512,92.71598582
1.297640312,31.02987547,1.240703612,93.30825539
3.270788384,13.9054313,0.675321574,93.89760952
3.283680551,38.07621776,2.002117353,94.48359698
2.341888864,47.45160465,1.706810138,95.0655688
0.611927599,49.06395407,0.547732264,95.64318902
1.847016877,41.08559803,1.916724624,96.21601157
2.130484591,35.40818751,1.780088728,96.78372569
1.82878029,11.53280465,0.868534301,97.34657936
1.382146254,24.30301231,0.346368694,97.90426373
0.483565642,48.21926239,1.347951204,98.45667089
0.739151689,66.82684681,2.498374119,99.0037417
1.162673474,68.72608296,2.712838164,99.5450023
0.965004083,29.27876399,0.803702473,100.0809036
0.396694869,20.50438141,2.221657552,100.6112706
0.831566801,48.99087248,3.023779786,101.1362624
0.3307134,55.11106835,3.131612471,101.6557884
1.389871972,34.14546145,1.176371456,102.169838
1.279922094,11.65442084,0.578363873,102.6783017
0.376806998,3.599168048,0.625088988,103.1815929
0.437654984,18.76800096,1.097632998,103.6798542
0.365801866,37.13326337,3.50782704,104.1731658
0.482386765,20.90987048,3.395284963,104.662078
0.894109442,9.033375995,1.263199217,105.1468118
1.407517786,14.554308,0.348408099,105.627657
0.403149167,3.946649147,1.024768154,106.1049594
0.966269271,11.40240588,1.426789238,106.5792253
0.847966904,16.38055671,0.722600043,107.0508699
1.032444368,19.98082989,0.277983754,107.5196266
2.286321711,13.86533625,0.286521066,107.9859385
1.52334356,5.368323384,0.545265497,108.4497911
1.484257057,28.03280277,1.211602193,108.9107545
2.410252242,43.76884604,4.729937943,109.3692097
1.810367264,39.65241658,5.145676394,109.8251814
1.00991468,14.39921514,1.875676918,110.2791627
1.006370487,18.46462962,3.302614521,110.7311275
0.277113664,27.26335258,6.143788002,111.18122
0.817625109,22.56666341,5.914593285,111.6294946
1.730883796,5.73916284,3.160659054,112.0761604
1.920810516,8.749398781,0.668285641,112.5208946
0.635432588,4.483754304,1.745021325,112.9634355
0.620594051,3.435666966,4.043228262,113.4038658
0.097655556,3.939824624,4.658349029,113.8418961
0.271963351,9.590953247,3.497313675,114.277776
0.911547168,21.9675873,1.055777538,114.7110736
0.713530637,35.90861365,2.396711922,115.1422063
0.198278818,33.86600936,4.446933036,115.5715992
0.929704212,18.67030281,4.561037418,115.9992738
1.316238997,14.89288101,2.801157579,116.4256572
1.71869997,52.56673202,1.113765482,116.8509127
1.527513316,78.25644294,4.654467908,117.2751581
0.448858617,77.61331964,6.393001832,117.6987494
0.186272086,61.64065863,5.41448054,118.1214504
0.168219726,20.4739312,2.551936494,118.543714
0.660382935,36.65732088,0.889994058,118.9655282
0.937453624,81.37569615,3.271779558,119.3866831
0.343922313,102.5213688,5.493716155,119.8071961
1.323933663,89.34930794,5.60528655,120.2270921
0.578740943,47.48507215,4.093139993,120.645663
0.217222854,9.480596092,2.817383402,121.0626073
1.326607178,26.73334412,0.902057306,121.4779058
2.904188523,33.77719862,0.923279059,121.8911002
2.313396886,43.49150285,2.353451198,122.3017658
0.810057616,69.25487219,3.837157654,122.7098934
1.683824884,74.36729774,5.559586029,123.1153352
2.501379084,46.83935782,5.316775481,123.5182926
1.421688962,11.55426424,2.676010096,123.9184772
0.42071495,25.02400389,0.933048921,124.3158686
0.426007037,38.45259279,2.761924429,124.7100385
0.556243687,54.72546534,3.869770382,125.1007769
0.300212685,70.11185581,3.841342694,125.4877087
1.298484911,53.15706784,1.630826071,125.8708969
2.060683895,16.89927827,1.419509897,126.2504515
1.540291603,47.91399997,3.312142936,126.6258024
0.655528866,83.36799811,4.04412426,126.9972417
0.971969357,80.98181255,3.491734553,127.3646262
1.80078883,40.20588608,1.193226233,127.7277482
1.488108147,19.93069875,1.286495943,128.0867724
0.74934073,54.98708727,3.946367981,128.4411353
0.318358763,74.2543507,6.645095981,128.7907599
1.711759988,80.56765613,7.732083954,129.1356577
2.337293237,69.61034164,6.636195056,129.4757751
1.695068276,30.54893661,3.092325091,129.8106366
0.637570808,31.7431592,1.407785117,130.1403917
0.852943247,80.75502818,5.866431108,130.4647749
1.756006979,102.7689888,9.160637389,130.7838132
1.530315243,92.40238425,9.23612691,131.0971156
1.230789302,50.93099819,6.511484108,131.4043172
0.352422435,9.808529035,2.967918104,131.7053535
1.245214376,22.12045788,0.71838107,131.9999556
2.325082785,39.54963462,2.63321603,132.2878849
1.320100948,50.24701691,4.545580246,132.5697646
0.640071201,65.8595747,5.771622187,132.8458956
1.567516915,61.42172088,5.806001448,133.1164953
1.866725494,30.07914665,4.457895827,133.3814698
2.92246313,8.37399296,1.530090384,133.6414082
3.289917404,23.04679638,0.845782912,133.8963155
2.07769578,19.67017853,1.333228864,134.1464551
0.96611917,14.11484474,1.746051604,134.3922891
0.798704157,11.3269453,2.197289528,134.6339918
0.458085843,9.468299965,2.990254641,134.8718235
1.479693542,17.37982775,3.141066032,135.1059148
2.424884299,16.76854634,0.982850838,135.336365
2.190378438,9.503180635,1.3027124,135.5634183
2.207271832,4.169506176,2.340824572,135.7883358
2.428897833,19.33020121,3.650002493,136.0113183
2.07034865,16.54376752,3.336230378,136.2326132
1.337141767,7.275590185,1.217385891,136.452404
0.412969068,33.27559909,4.722091835,136.6706858
1.483819404,45.4298931,7.615180541,136.8878616
2.559071146,33.21992331,6.351529151,137.1042467
2.919394587,9.217121543,1.893741827,137.3199325
1.63158601,29.74883692,1.846187234,137.5350838
0.621815159,47.65580734,4.194998165,137.749782
0.237378475,56.82779123,6.174183246,137.9638958
1.175211414,72.03785152,7.792584589,138.1776702
2.016398229,73.32513398,7.644048679,138.3912931
2.945726425,39.56815575,4.500673617,138.6043577
2.410170859,19.83802576,1.332748018,138.817256
0.868916953,72.96499204,5.384485797,139.0300566
0.78562316,109.4900378,8.677725336,139.2423313
1.160057461,116.0158267,9.617996394,139.4545839
1.567042968,85.31413489,7.426147939,139.6664218
1.021395491,36.22386008,3.233215458,139.8781385
0.572616913,17.75439979,1.22445222,140.0892881
1.219249715,62.36619215,4.307108954,140.2997826
0.743839925,93.45496079,6.658630591,140.5095812
0.559940354,113.8118195,7.944031864,140.7183919
1.208483843,106.1000533,6.610601041,140.9265199
0.412307378,57.71090851,3.868432191,141.1338853
0.565202979,20.26890285,1.038857435,141.3404974
0.387267265,84.70009347,3.787810072,141.5459427
0.554583468,128.2152538,6.805022152,141.7500683
1.052644221,117.6140229,7.805906903,141.9535099
1.735502593,73.41425263,6.734727324,142.1556148
1.478234347,16.21202312,3.263716101,142.3557845
0.308356507,41.90191854,1.017887094,142.554208
0.951342634,69.07137375,3.916598501,142.7506314
1.146105827,73.05018612,6.175077924,142.9455225
0.93516378,66.98385498,6.275517997,143.1383457
1.010944256,61.62626276,4.972965774,143.3293018
1.086374463,48.49559494,4.167369654,143.517969
1.471591246,23.3860999,2.385350167,143.7042883
0.639716795,24.69017546,1.445606996,143.8878707
0.447684512,71.75019982,4.077548374,144.0686135
1.493900347,90.09913327,4.907993651,144.2466941
1.778219305,87.11118742,5.515037036,144.4216018
0.560638331,56.75889381,4.868462952,144.5933476
0.182824597,22.93990056,3.311736197,144.7624089
0.862641478,7.491761432,2.246712455,144.9288517
2.148520066,25.01655457,1.112971838,145.0926386
3.924955197,44.22908906,1.740431918,145.2539675
2.117616416,71.84309801,5.016397542,145.4120238
0.507386957,77.03577769,6.439172661,145.5665288
1.710919383,50.4136116,5.063995952,145.7176663
2.186261944,12.40770665,2.226396602,145.8650888
1.521892888,26.76612983,0.590762745,146.0087936
0.495083611,23.98506087,1.411684986,146.1486401
0.557751265,9.568270392,1.129542347,146.2843286
1.819364845,27.3532329,0.531435217,146.4160129
2.639825728,22.66881025,0.303984865,146.5440989
2.091216061,4.354785291,0.683596441,146.6686559
2.637631646,5.133735548,0.265978431,146.790071
2.773835785,32.86343054,0.287039556,146.9086633
1.270836213,63.19541774,1.846634762,147.0238745
1.453274033,71.36566252,2.856505491,147.136113
4.218125068,80.63761961,3.66225,147.245373
4.900094325,70.30782922,4.525283348,147.351856
4.182714731,38.8272321,3.585235083,147.4560614
3.372395634,20.0395898,1.154942628,147.5580818
1.448267872,83.19568318,3.887352868,147.6577407
0.87937313,118.8946738,7.327043154,147.7551444
1.844353372,111.9808485,7.379812211,147.8503827
1.955467234,86.91228851,6.21080691,147.9429482
2.175458798,57.31135537,5.49082236,148.033259
2.19839305,17.49863905,4.030571153,148.1209764
2.572417547,37.47734559,1.325462384,148.205567
1.9757854,82.69280992,4.895440217,148.2877506
2.005498107,123.7158944,7.836845332,148.367271
1.114761803,116.7918799,8.681741527,148.4443585
0.681785317,72.79565466,7.356758472,148.518829
0.498431643,24.30639081,4.31568178,148.5907142
0.437697455,25.04433232,1.246313599,148.6603157
1.733181189,61.82380369,3.553470776,148.7272523
4.156530689,63.88064292,3.543897839,148.7920337
3.313511429,67.46347608,3.06185316,148.8547701
1.192715603,90.63840332,3.893261182,148.9155032
0.206651169,61.57072659,2.953141189,148.9742664
0.570073446,53.23773805,2.464427936,149.0310737
2.216308689,165.5379447,7.916361419,149.0860288
3.51494097,190.5075491,7.721961519,149.1392371
3.681820733,116.2925575,2.57025459,149.190946
3.617014938,34.74540929,4.197908818,149.2412339
1.76261964,147.0752558,9.507352566,149.289757
2.454259503,241.2965642,12.59834858,149.3369983
5.664053268,266.3183004,10.99158309,149.3833451
5.870793902,212.0948029,5.671455103,149.428886
5.382665054,111.1929273,1.228880661,149.4736956
4.084741018,29.92451811,3.805101759,149.5175566
2.018671488,127.0607401,7.691163004,149.5607856
0.213782593,227.5957541,10.30613381,149.6031057
0.700655707,261.3712795,9.278229595,149.6446553
2.363424767,224.9423597,6.195571173,149.6853327
2.993480006,145.0117919,2.833895909,149.7252049
3.94558399,100.4672112,1.350425173,149.7645181
3.905408647,85.99649279,1.608703042,149.8029608
1.858131318,38.11301857,0.844319124,149.8408843
0.40204618,51.06639989,0.412246301,149.878668
0.493339706,153.2741242,1.942733253,149.9159388
0.609968029,232.3845615,3.878099665,149.9525166
2.701007427,270.659333,7.31336486,149.9889293
4.634321879,259.0533034,9.801635043,150.0246927
4.357267556,194.0158983,9.752601012,150.0602687
3.377026645,74.81475448,7.317944684,150.0959427
1.088914542,55.39092574,2.651548951,150.1311588
1.08522387,157.026051,1.984612515,150.1660802
1.94697776,210.4401536,5.808915698,150.2005322
1.871301724,207.9793693,8.36109544,150.234375
0.562336546,173.5490222,9.438038173,150.2676112
1.351336886,127.9234052,8.466067382,150.2998794
0.395850944,67.24436734,5.05151281,150.3308639
1.519901556,23.92851503,1.500915211,150.3603751
3.258320332,64.00364062,0.376111002,150.3883331
3.431008765,67.3712491,1.056498649,150.4145363
2.665489765,51.74915564,1.793796851,150.4390431
1.533325727,47.92779283,3.162432174,150.4618898
1.483921644,52.50877099,3.488318605,150.4827606
1.180980958,66.29839238,3.206307305,150.5020391
3.504959202,72.70444124,3.81188094,150.5192924
2.91147161,55.53663768,4.1439565,150.5347382
1.315110271,29.65384554,3.618519516,150.5485673
0.62435285,6.395630385,2.589996512,150.5606292
0.58020212,22.79284426,1.125723251,150.571132
0.663607947,38.92317155,0.574316364,150.5805494
1.224097277,37.55155851,2.363340007,150.5888379
1.915625809,32.11755542,4.444842392,150.596388
1.269212178,31.06286593,5.539127056,150.6032286
0.73963648,27.49576635,4.663467302,150.6091573
1.52198184,6.078403155,2.820136619,150.6141617
0.662517581,6.025868268,1.358504925,150.6182266
0.109365576,10.62606648,0.241600369,150.6216712
1.191049499,15.65006975,1.018074586,150.6240087
0.600465717,5.175361749,2.245164678,150.6253811
1.207612276,8.870417111,3.169902807,150.6257297
0.558358885,29.11117053,3.838518523,150.6249106
1.083113347,39.98157674,3.081585719,150.6227599
1.68396528,33.63138096,0.987315473,150.6191921
1.149180005,11.1032355,2.021612311,150.6145393
0.43562836,23.99499625,3.387815485,150.6086298
1.510284693,40.16247931,3.49960681,150.6015592
1.962845115,64.0385971,3.869565087,150.5937432
3.139844502,83.73169576,3.973825075,150.5852816
2.939658756,79.92759638,1.69104117,150.5766732
1.298570768,32.70945631,2.317716117,150.5676683
1.145914159,56.06787076,7.236365809,150.5586513
2.175035632,152.5217764,10.8266455,150.5499732
1.760714281,200.4986986,10.11641684,150.5415005
1.182520568,175.6939068,6.110677332,150.5332433
1.804352149,114.4094746,1.519418562,150.5255247
1.873038513,34.48175212,2.7166817,150.5182751
1.348943158,54.89770507,6.142709173,150.5116167
0.303799114,130.5921553,9.555963476,150.50533
0.38125696,176.2077895,11.30156053,150.4992556
0.155589808,186.7762026,9.796241978,150.4934224
0.65594403,158.6656175,6.848837921,150.4875496
0.877954895,108.3422634,2.800887339,150.481697
0.694258696,45.65814881,1.603433725,150.475771
1.1919052,28.00505194,5.160024508,150.4694935
1.24812639,87.88427666,7.259231656,150.4628334
0.841553232,114.2549166,7.042483188,150.4558153
0.418055856,107.4166021,5.88465839,150.4479282
1.291222987,91.45285523,4.821574057,150.439173
1.635254384,72.21159502,2.770092955,150.4294405
1.359217124,41.487491,0.860873147,150.4187831
0.295969395,10.83410781,0.498828459,150.4068681
0.588533461,16.58747344,1.424461553,150.3932395
0.708113292,27.15950157,2.046260258,150.3777425
0.439727393,39.30740644,3.338426549,150.3602094
0.134043056,45.85873027,3.872880293,150.3405917
0.224372645,41.6929644,3.236935534,150.3188829
0.135468356,27.74451508,1.799543651,150.2948091
0.086993327,8.88484311,0.381712544,150.2682236
0.217078602,6.594597602,0.901945513,150.2388939
0.122869521,14.07598793,1.524963139,150.2066852
0.474551228,20.9294917,1.526183854,150.1712868
0.927645145,17.15675945,0.785299613,150.1322789
0.215006373,4.882962443,0.175001221,150.0896646
0.327785671,15.36834759,0.049019334,150.0427915
0.0777835,13.35441686,0.280297517,149.9916964
0.251735223,3.604476509,0.876567173,149.9358956
0.346999953,11.54596121,0.873069185,149.8750222
0.401417814,12.0823179,0.184394985,149.8091484
0.718956579,9.610833847,0.415342167,149.7380621
0.235670577,3.498223792,0.777539593,149.6614335
0.378768031,4.899829689,0.721754151,149.5790841
0.575589914,3.538235407,0.323010003,149.4907113
0.673954084,5.404163753,0.988620404,149.3965872
0.818462461,5.37058901,0.523739984,149.2964809
0.273152993,4.418112772,0.47853375,149.1905367
0.48477189,11.01645485,1.113904506,149.0786434
0.699077971,8.20272591,1.402089946,148.9606499
0.382598191,2.047765025,1.057535135,148.8368347
0.304633224,5.847691518,0.171149021,148.7071542
0.610647537,10.79524541,0.442934137,148.5717448
1.466079908,14.33498289,1.178269612,148.4306522
1.951779365,13.2720421,1.273111751,148.2840424
1.675728984,3.819459885,1.603955835,148.1323864
0.555056855,7.742858269,1.889089474,147.9759024
0.893455328,10.49739785,0.790884428,147.8151064
0.865502319,27.93717434,2.488556938,147.6503833
1.198257546,38.04086416,4.045553372,147.4820653
1.301684399,32.16715917,3.596125342,147.3101743
1.64823813,11.10604727,1.270958656,147.1344957
1.229021362,17.69179385,1.624406294,146.9559988
0.252664905,42.09809506,3.796118794,146.774284
0.606839709,49.38116606,4.321220685,146.5895367
0.82334013,43.58405442,3.275559432,146.4022141
0.405797118,29.65897585,1.385511794,146.2127203
0.219272072,10.43860507,0.504458351,146.0209816
0.114732697,8.475045525,1.469635272,145.827303
0.110883662,19.41604114,1.646402258,145.6315285
0.275524067,31.5806781,1.679989516,145.4340255
0.025118758,43.03034105,1.540348872,145.2348972
0.277048645,43.44181816,1.441854316,145.0345295
0.380497667,36.69787311,0.898586248,144.8326164
0.111717412,24.01559798,0.661152461,144.6290941
0.065050262,6.379073632,0.952921474,144.4236464
0.072638331,22.92905149,1.422561327,144.2164443
0.302310494,34.96782469,1.412736615,144.0070689
0.817627895,35.20227907,0.449307907,143.7953901
0.822996196,32.74837623,1.16308363,143.5811455
1.001646607,24.64295544,2.825254446,143.3640702
0.746093866,9.808125291,4.102034984,143.1440426
0.134702587,9.874146077,3.515575034,142.920719
0.323627688,32.16386145,1.484276474,142.6947995
0.37436069,40.90449608,0.259282727,142.4664118
0.44480908,33.32062666,1.102574734,142.2353198
0.490595726,8.413791784,2.034126804,142.0017393
0.193438145,21.35973876,2.578510992,141.7652521
0.436573344,40.71530505,2.330204153,141.5259369
0.334129253,45.0749379,1.119979791,141.2839101
0.04703768,31.83099909,0.279036237,141.0387438
0.22484016,9.772220189,0.849982572,140.7902575
0.331267521,13.60885688,0.982503062,140.538283
0.106448836,30.93670692,0.822235672,140.2826335
0.18757954,36.25699193,0.588236032,140.0230687
0.804796638,30.36558828,0.348062311,139.759578
0.914853966,17.92020999,0.094830106,139.4917781
0.767915163,5.038378227,0.429858878,139.2195087
0.271349159,20.47471995,0.445120981,138.9425825
0.242694395,35.39569087,0.185462331,138.6607088
0.764644083,26.43242306,0.469652723,138.3731337
1.159314369,6.222381484,0.268756598,138.0796776
1.169366582,8.559209189,0.097287886,137.7800855
1.090128226,8.681626919,0.132702994,137.4742217
0.786460116,8.2455343,0.242408491,137.1619914
0.559201337,13.74465145,0.294602984,136.8428782
0.349500241,18.88516279,1.141423185,136.5170655
1.165879218,13.6062806,1.325786626,136.184388
1.500398153,2.710866724,0.805874284,135.8448739
1.109936881,5.208130276,0.147928537,135.4985035
0.432973005,8.543646262,0.113218786,135.1455728
0.056906904,10.88885768,0.116085814,134.7863694
0.226103365,13.06548298,0.545089847,134.4208599
0.88298497,14.90674273,1.286503979,134.0493412
1.267706009,14.86499943,1.769180281,133.6720286
1.314779995,9.199659373,1.834406675,133.2888493
0.983988113,2.365515649,1.7915336,132.9000002
0.431416345,11.14334548,1.00788872,132.5053237
0.237956388,26.83348275,0.754894524,132.1053482
1.056668734,29.61412774,1.94706413,131.6995677
1.570134996,28.68577341,2.889827851,131.288705
1.964911825,28.18076449,3.51013665,130.8730271
1.486175359,11.83578,2.420090245,130.4525804
0.951110609,7.196606715,0.561862802,130.0273984
0.293972836,21.01033193,0.907164241,129.5978255
1.145825376,23.9570674,1.450926796,129.1636504
1.018987515,18.46161132,1.703946617,128.7251209
0.328579607,14.33392861,2.329938649,128.2825087
0.151941654,25.2731771,3.68816116,127.8359371
0.229633795,45.2561633,4.116444398,127.3860147
0.730986745,43.36662338,1.928401178,126.9329672
0.565197851,24.57896788,0.595359901,126.4772146
0.280876536,9.660180325,2.455230328,126.019233
0.099248719,38.42124871,3.771902796,125.5596088
0.600077558,55.4974125,3.595571467,125.0985856
0.708897118,61.82777284,2.707358711,124.6370158
0.361503446,53.18639254,0.825881931,124.1750195
0.617747169,25.44173393,0.212498456,123.7132444
0.574844943,6.336581298,1.138686443,123.2521343
0.148973608,1.82196362,1.167260822,122.7920838
0.086584631,13.02964656,0.434065905,122.3332375
0.104869963,30.19574088,1.939888935,121.875827
0.122069356,45.19749522,3.388228343,121.4197961
0.497394413,44.94376042,4.016999345,120.9649273
0.38771231,30.70877035,3.244910856,120.511143
0.378507463,9.443989344,1.383758755,120.0585818
0.925229464,4.760149626,0.705019889,119.6067845
0.558502062,6.537788341,1.976685413,119.1562391
0.12000877,2.851893759,2.016260618,118.7064604
0.273300984,2.490815454,1.983335808,118.2571716
0.48287583,17.36578018,1.628303264,117.8084835
0.516318321,26.43296266,1.084540805,117.3602879
0.309712162,19.17589682,1.433200768,116.9126566
0.07430662,8.940050265,1.832882475,116.4653772
0.095491126,2.02519319,1.42864988,116.0183318
0.308656915,1.894101011,0.445611053,115.5707611
0.522885482,4.629323387,1.06679601,115.1228374
0.085279157,1.718161173,2.09600877,114.6748744
0.438764074,5.854495582,3.075512267,114.2263592
0.814512296,10.52780697,3.756547518,113.7774899
0.686392049,17.76542982,3.784715115,113.328313
0.783927802,24.13251611,2.060201416,112.8778868
1.422388035,20.56594925,0.757301789,112.4263244
1.276603943,7.077975003,2.604996266,111.9734961
1.255428114,10.48783503,3.468726633,111.5190785
0.480650538,26.8269867,3.381754994,111.0628793
0.250019758,32.19880961,2.875822691,110.6046838
0.361610629,22.67645709,1.497160504,110.1440075
0.358976789,4.715283727,0.445047555,109.6809046
0.416531648,5.529305949,1.275034309,109.2152347
0.351543544,4.018111242,1.766501303,108.746825
0.632556747,16.69201789,2.593491795,108.2754648
0.374574342,27.97357119,2.766233617,107.8010644
0.120757146,25.04123878,1.042768223,107.3231625
0.21873605,9.056294404,0.812393283,106.8419559
0.672639559,1.063935667,1.225353513,106.3573981
0.41855314,3.700215988,1.52352689,105.86938
0.073692239,17.46249208,2.695579382,105.3778508
0.467216438,33.71477972,3.141391845,104.882646
0.317879933,39.22868976,2.405197499,104.3837397
0.63829515,29.40713664,0.949645579,103.8810573
0.883624609,9.22441474,1.002131678,103.374666
0.681062489,24.95457068,3.047753174,102.864325
0.613405783,45.55392697,4.207788062,102.350673
0.445636638,43.37074069,4.714168145,101.8336261
0.530665964,32.23678587,4.067975103,101.3134887
1.379464032,16.35839778,2.448840393,100.7901689
1.535029298,4.240571017,0.746183982,100.2639126
1.757991089,20.64261106,3.019157913,99.73488686
1.502085201,39.97173309,5.390402327,99.20321093
0.439287136,42.04315942,5.798131238,98.66907362
1.271023126,27.00791507,4.35988206,98.1329224
1.657692596,12.67529705,2.297023423,97.59451301
1.290586335,3.323714315,0.813532252,97.05431869
0.741119041,12.29092305,3.601624507,96.51271169
0.134497016,22.15185409,5.627003135,95.97008244
0.059194755,31.47773319,5.484091853,95.42644207
0.219832122,29.22858479,3.756538256,94.8822157
0.208874799,14.41655766,1.079451783,94.33749769
0.213083477,6.810120666,3.405531516,93.79265437
0.475657836,19.54972194,4.807243789,93.2481635
0.550034602,11.36369963,3.262902146,92.70431945
0.528187242,4.40269272,0.997137381,92.16142639
0.72877904,10.22278212,0.333770594,91.6194565
0.256450706,6.615695114,0.168394454,91.07878612
0.239279137,29.00677576,0.139325628,90.54021111
0.123059172,35.66999375,0.351058476,90.00374895
0.233767656,37.37274497,0.726427706,89.4691818
0.530776939,38.86581642,1.537960834,88.93711097
1.414141584,13.68928695,0.638095926,88.4075549
1.248085898,23.15714038,2.589525436,87.88082263
0.447214412,53.36445476,4.485847909,87.35690364
0.558779192,64.13011747,3.789949636,86.83537125
0.897031285,63.18932653,2.52529846,86.3165611
0.983050307,57.82227551,1.295742758,85.80084208
1.27092902,33.65701663,0.584812183,85.28852378
0.437551832,8.716648898,2.453643249,84.77966276
1.159937789,32.72487305,3.994008952,84.27326639
0.972830757,56.00467006,4.278297819,83.76978036
0.378903362,51.15717473,3.048896664,83.26868576
0.332484074,39.30483187,1.460553274,82.77017059
0.504138027,28.06641541,0.82644094,82.27415216
0.087660759,26.47568408,0.533017331,81.78071894
0.452166063,28.40241425,0.352243806,81.28938717
0.430188835,18.4044957,1.717892739,80.80032151
0.342879135,6.174541173,3.297938254,80.31346191
1.354712674,27.11584166,3.942780027,79.82815528
1.475101513,48.27184631,2.907277806,79.34460201
0.706281833,50.48587767,0.879301408,78.8626254
0.430758909,32.23357732,2.602619482,78.38159909
0.413957513,9.321313963,4.135205467,77.9014509
0.43272243,31.0965757,3.865549448,77.4216933
0.877207291,38.02425341,2.074597011,76.94249881
1.196021081,25.30408307,1.002752337,76.46414642
1.475798271,9.07509711,3.855220367,75.98585458
1.304432316,31.82979434,6.006126753,75.50791885
0.380336549,43.46099282,6.302725023,75.02995166
1.059580174,46.54859418,3.36335649,74.5521111
1.2079701,32.52213533,1.659998545,74.07400645
0.639708038,9.267805466,5.28462066,73.59591492
0.964304675,26.44264614,5.683405878,73.11772511
0.586045444,29.74506772,4.336114608,72.63983468
0.085434695,28.66688427,3.313995542,72.16254908
0.434078868,49.58600173,2.746711126,71.68570916
1.223509647,64.8565784,1.110843721,71.209198
0.958172009,46.61898276,2.063371102,70.73317448
0.23991146,11.46365441,4.197610608,70.25848118
0.99391016,26.25239725,4.430539394,69.78475357
1.681841101,47.11144577,3.208356951,69.31235685
0.769387035,52.9003731,1.620787192,68.84162955
0.073854145,58.86125287,0.458311758,68.37296544
0.045023096,68.45330452,0.773616576,67.90610895
0.111907589,50.08578201,1.917900778,67.44157832
0.343478709,13.48130418,2.224835265,66.97972632
1.318830513,43.89504163,1.677984508,66.52063743
2.53838871,72.68586481,0.578966431,66.06488801
2.79523463,77.43520216,2.106824656,65.61297205
2.231167108,58.36579494,2.949241684,65.16498007
0.693519827,31.82238799,3.078651318,64.7215476
2.400645444,8.404578611,1.474989923,64.28308997
3.195004784,30.67352504,1.574476191,63.84983486
3.202870492,50.89939363,3.689719998,63.42181402
2.9545871,53.90840779,4.026515893,62.9994418
2.927697897,54.56401345,3.056382386,62.58282033
1.071587759,38.95057539,2.832400042,62.17198396
2.31389666,15.30597114,3.137663793,61.76693461
3.843700176,59.45338373,2.806901559,61.36766808
2.711034672,73.39792532,1.278860928,60.9743209
0.285028222,45.93670767,0.670521045,60.5863135
0.991359437,11.88815751,2.900188784,60.20346654
2.25812516,29.33576726,6.480283633,59.8256585
2.48473107,43.48157006,8.627266739,59.45268386
0.976337816,37.04109444,8.106308697,59.08381606
2.159757288,24.30820154,5.512872651,58.71887783
2.371986592,6.07917057,1.446937013,58.35727283
1.714463053,19.3696587,2.930919057,57.99887562
1.228372571,30.2318939,5.879023712,57.6428853
1.563749271,27.77551803,7.053144676,57.28947059
2.144117572,15.57517743,6.820069105,56.93779811
1.957725762,5.636596584,5.850585621,56.58798867
0.832747486,14.65513921,3.730947366,56.23952623
0.4266988,23.40805943,0.897094821,55.89254855
0.960839624,25.79609103,2.064141417,55.54667414
3.563667753,13.97398768,2.740688839,55.20205183
5.269658614,2.107815308,3.69174987,54.85836721
5.290786758,1.955255755,5.090163875,54.51571501
2.984957889,10.40527792,5.671517671,54.17387868
0.82680919,19.98612944,4.140655432,53.83344931
2.806390568,33.42893847,1.831133777,53.49371945
4.012687803,25.18861377,0.520123439,53.15502111
4.956062565,6.449587099,2.503019242,52.81758438
5.354618192,2.245006048,4.755330782,52.48124165
3.652892425,3.114639164,5.999729106,52.14605011
0.847294096,14.14586881,5.819709798,51.81188998
1.753666663,21.32528277,3.538142858,51.47904261
3.390509782,39.2863297,0.877513587,51.14727979
6.203464002,43.52325462,2.110039239,50.81621302
6.054365242,20.84234002,4.734127558,50.48617519
3.071097947,3.738865063,5.345054901,50.15697068
0.639754451,11.20332673,3.588226524,49.82847621
2.2862435,30.72018753,0.961420619,49.50066976
3.855303242,41.24058081,1.376025767,49.17323836
3.905232609,35.79146599,1.788097092,48.8460709
3.50296741,26.98412482,1.237928558,48.51920212
2.434670147,18.74227734,0.88241654,48.19292057
1.286042798,5.876521377,0.321384496,47.86710753
0.282625493,17.57693067,0.399656667,47.5415194
1.13623592,39.79994039,0.822437692,47.21655397
2.029743403,41.31565812,1.193519886,46.89238221
2.660762732,30.24740155,0.852219542,46.56905001
2.859188629,9.041153525,0.391322478,46.24662622
2.724793329,13.29535995,1.411312403,45.92560007
1.714994835,23.6512907,2.183073965,45.60605095
0.385599627,29.66477925,2.669524452,45.28796067
0.826092016,24.59258453,2.101474972,44.97187489
1.566314208,16.92999075,0.697901203,44.6574211
2.526189964,7.091126786,1.446079731,44.34499258
3.150082814,33.67121266,2.794603539,44.0346534
2.475490819,46.4934598,3.075589187,43.72637166
1.125828942,43.465624,3.06565643,43.4201401
0.362587277,39.96482085,2.351822257,43.11642051
1.646946179,12.89830171,0.713065032,42.81521945
2.906321597,36.89672697,0.946508345,42.51636762
3.514981904,66.7762695,2.377457771,42.22001598
3.101046132,69.76292708,2.959524023,41.92645731
1.426835473,59.57167506,2.807659825,41.63564393
0.680032969,35.96778797,2.028295102,41.34769272
1.334004805,11.49757714,0.574615712,41.06225461
1.985220243,17.87735911,1.416336969,40.77962654
2.671083889,48.97414116,3.105948669,40.49955426
3.190585314,74.35869139,3.441281997,40.22212591
2.634465434,84.11204614,2.024175287,39.94720054
1.850104964,73.32114637,0.406998899,39.6746113
0.668180807,37.13841793,0.947689284,39.4044569
2.342716636,16.46692565,2.876618675,39.13644189
3.336390101,49.56924773,4.014352882,38.87090687
3.05753992,53.82130924,3.578481898,38.60770098
1.5662966,45.8063244,2.118434679,38.34702691
0.250085611,42.50470693,0.495012409,38.08905127
0.717556341,33.73788742,1.552475721,37.83336281
0.710469485,20.95222202,2.536759553,37.58010931
0.174954092,13.68549174,3.614395167,37.32893601
1.306856749,7.553475055,4.502375812,37.07991407
2.533327428,7.268760562,3.722545236,36.8331922
1.646197583,26.29811961,1.605596232,36.58839594
0.990390444,35.48886704,0.96471866,36.3453969
0.430849853,25.69487535,2.989553334,36.10439352
0.244497883,26.31702203,3.600308778,35.86498732
0.108629861,28.4889072,3.516045951,35.6276017
0.199301428,21.34374129,3.441513352,35.39191574
0.834836374,10.15989178,3.170480185,35.15793596
0.843699923,7.96963377,2.523773607,34.9254221
2.986467695,3.774187851,1.016524776,34.6945237
3.714747127,20.48649329,2.390138719,34.46474026
3.227865086,34.69903287,6.154505415,34.23621099
1.034651362,36.69444143,8.388405798,34.00903117
2.024221096,30.49980886,8.101930504,33.78316912
3.660958678,22.63926939,5.038365395,33.5581506
3.475721111,11.65918258,1.585374973,33.33414922
3.015742363,6.647145986,5.786875254,33.1110571
1.825149203,12.39746337,8.566894817,32.88867152
0.917606266,15.21286848,8.650155403,32.66722251
1.137370815,27.50786995,6.980905003,32.44639532
0.840748837,39.28505323,4.703529879,32.2262991
4.156637815,46.05163686,2.316794321,32.0066666
5.782209637,30.87323321,1.082786938,31.78755939
5.310077434,24.05510055,5.005141119,31.56882558
3.424126495,71.60020979,8.650794775,31.35023304
0.929310482,77.88241574,10.13797484,31.13163885
2.397616739,42.07652462,9.644653397,30.91297035
3.3760814,10.19756739,7.44153003,30.69405392
3.895797484,38.35159722,3.554508716,30.47461804
3.912133599,58.86857992,2.446637397,30.25480966
3.684899713,57.39057017,8.220860662,30.03447205
3.762665556,40.50848908,11.84773468,29.81365762
1.672354823,19.9570572,12.37510012,29.59238251
1.989253282,4.84567409,10.17651897,29.37048515
4.585259464,13.80375228,5.371884671,29.14818295
4.890800746,28.08963949,1.029981412,28.92559968
3.586728099,50.93184675,2.9686004,28.70292642
2.462901056,67.56559021,5.817264706,28.47999692
0.766438863,58.66158584,8.35892341,28.25673529
0.798916272,26.28378875,9.591222184,28.03360319
1.255120442,10.72957394,9.791001375,27.81067265
1.46746026,38.64092651,8.890984608,27.5879418
1.811426509,57.20904213,5.891594267,27.36565515
2.298578351,54.27834345,1.670286615,27.14389881
2.692346196,39.29095839,6.222062123,26.923124
1.050546383,26.60927323,10.68757362,26.70351793
0.131141174,18.62025365,11.61801444,26.48517037
0.943571588,9.204697082,10.42383643,26.26835783
2.018016928,46.22233204,8.649504802,26.0532022
2.422504746,76.56277926,5.194848959,25.84054806
1.009479825,63.6058944,1.471470953,25.63023346
0.344365573,23.04921944,5.752081381,25.42242528
1.428508742,15.77407707,9.053210619,25.21719379
1.002874541,41.39182463,9.365565324,25.01483281
0.49579026,54.63428745,8.031922269,24.81511629
1.662307214,50.41823498,6.186953619,24.61813972
1.310697677,33.69757411,3.796625867,24.4243034
0.560666167,20.70970363,1.035654144,24.23334407
0.467713133,8.122451874,2.101987874,24.04568816
1.989145199,21.78162147,4.914780792,23.86120621
1.804088462,54.03705042,7.427675213,23.67965603
1.148413283,73.53125272,8.403493326,23.50115416
0.498155552,80.65094904,6.391418931,23.32577151
0.300055251,57.33909407,2.723514979,23.15354327
0.600322238,14.85701187,1.004458957,22.98435936
1.048885659,39.57729921,3.150767343,22.8181867
0.402766677,80.37957821,4.328254725,22.65512247
1.275691337,107.9124182,5.327429792,22.49466963
1.699275691,98.58640322,5.655679144,22.33728943
1.356238078,49.12495832,4.246407591,22.18253357
0.705107411,14.68796868,1.254309507,22.03071824
0.189102294,50.6476179,3.225389387,21.88141176
0.902295915,79.40832935,5.606503591,21.73446667
1.110074329,95.59413315,4.92434498,21.59003427
0.576863663,86.00320521,1.424887005,21.44792494
0.466684311,44.04156587,2.413932466,21.30823114
0.737314299,19.92303555,4.039918646,21.17049218
0.736152769,59.45820268,3.647859551,21.03517951
3.428680343,71.88633709,1.707591828,20.9018054
3.951606274,65.05038459,1.146360411,20.77044877
3.072260212,45.44990766,4.662384988,20.64081075
1.469366801,24.49604721,7.205646874,20.51298947
1.106442702,6.866978115,6.125988001,20.38692801
2.969169274,19.84112744,2.868903115,20.26229242
2.649254725,27.01984945,1.509797636,20.13905511
1.139129371,40.69834278,4.876264835,20.01687422
2.105554833,49.97050586,7.039241463,19.89572228
3.308915735,52.76801275,7.81762619,19.77543718
2.241639037,39.33503777,6.587224221,19.65583794
1.287097663,11.27448007,3.173727956,19.53668982
3.701041265,26.33503801,1.360906235,19.41776932
4.285392214,52.5116323,5.311478619,19.29914256
3.192202728,55.75296454,8.110865387,19.1802719
1.831273661,46.09985045,7.551251146,19.06152303
0.611353242,25.92347336,3.927991364,18.94258497
1.729328144,7.731895062,1.414332204,18.82309703
1.943455456,22.95570186,4.691391146,18.70300073
2.082400167,26.24827556,4.935609282,18.58220338
1.837818748,24.62854552,1.999980191,18.4605096
1.842986888,17.62060777,1.362277381,18.33754219
1.525596755,6.905337016,3.121497845,18.21301989
0.510868461,5.186251301,2.520166327,18.08670879
1.053467168,20.92195868,0.99112843,17.9583657
2.518183399,31.39390527,0.733374557,17.82803793
1.081582251,23.05694105,1.975410825,17.69541387
2.863513186,7.023146824,3.030072639,17.56056017
2.967678244,26.12905512,3.748992564,17.42382046
0.910248237,36.19133488,3.454635004,17.28486805
3.693821337,28.21469237,1.513930578,17.14378793
6.420845586,7.579445317,1.806154834,17.00034998
5.219786037,17.51273152,5.186991558,16.85446205
1.827819666,11.78655012,6.468757923,16.70627589
0.378868477,9.855117342,4.277962449,16.55539011
0.602540481,25.90470227,0.897055596,16.40163398
2.339655143,24.68162525,1.680504552,16.24506356
5.089170599,7.733468222,2.437130818,16.08541018
6.32885543,26.36162319,3.348824532,15.92268308
4.96094655,42.02237404,4.452453153,15.75713128
1.387332567,48.30155279,4.174976006,15.58852502
3.45696,42.08421434,2.543731205,15.41712694
2.550002961,24.64843502,0.831826848,15.24310901
