type,name,time_units,begin_time,frequency,count,units
signal,"Noraxon Ultium-RT BRACHIORAD.","s",0.00000,2000,51840,"uV"

time,value
0.00000,6.765981569
0.00050,2.493259861
0.00100,0.6620934152
0.00150,1.577676638
0.00200,1.577676638
0.00250,-1.779461846
0.00300,-6.052183554
0.00350,-6.66257237
0.00400,-4.831405923
0.00450,-4.831405923
0.00500,-6.967766777
0.00550,-7.578155593
0.00600,-5.136600331
0.00650,-3.305433885
0.00700,-3.610628293
0.00750,-4.831405923
0.00800,-4.831405923
0.00850,-3.9158227
0.00900,-1.779461846
0.00950,2.188065454
0.01000,7.376370385
0.01050,9.512731239
0.01100,8.291953608
0.01150,6.155592754
0.01200,5.545203938
0.01250,5.850398346
0.01300,5.545203938
0.01350,5.850398346
0.01400,7.071175977
0.01450,7.681564792
0.01500,8.597148015
0.01550,11.03870328
0.01600,15.00623058
0.01650,17.44778584
0.01700,15.31142498
0.01750,10.73350887
0.01800,6.460787162
0.01850,3.408843085
0.01900,2.188065454
0.01950,3.408843085
0.02000,8.902342423
0.02050,17.44778584
0.02100,26.60361807
0.02150,31.18153419
0.02200,29.65556215
0.02250,22.33089636
0.02300,13.78545295
0.02350,8.597148015
0.02400,6.460787162
0.02450,4.934815123
0.02500,2.798454269
0.02550,1.272482231
0.02600,0.05170459981
0.02650,-3.305433885
0.02700,-8.798933224
0.02750,-13.68204375
0.02800,-17.03918223
0.02850,-21.31190394
0.02900,-27.11059769
0.02950,-30.46773617
0.03000,-27.7209865
0.03050,-21.00670953
0.03100,-15.20801579
0.03150,-10.93529408
0.03200,-6.967766777
0.03250,-3.9158227
0.03300,-1.474267439
0.03350,0.9672878229
0.03400,5.545203938
0.03450,9.207536831
0.03500,7.9867592
0.03550,2.493259861
0.03600,-1.169073031
0.03650,0.05170459981
0.03700,4.629620715
0.03750,8.291953608
0.03800,8.597148015
0.03850,4.934815123
0.03900,0.3568990075
0.03950,-1.474267439
0.04000,-0.8638786233
0.04050,-1.779461846
0.04100,-6.052183554
0.04150,-10.93529408
0.04200,-10.93529408
0.04250,-8.188544408
0.04300,-8.798933224
0.04350,-13.37684934
0.04400,-13.37684934
0.04450,-4.526211516
0.04500,6.765981569
0.04550,11.64909209
0.04600,7.681564792
0.04650,1.272482231
0.04700,-2.389850662
0.04750,-4.526211516
0.04800,-5.746989147
0.04850,-5.136600331
0.04900,-3.305433885
0.04950,-2.69504507
0.05000,-3.000239477
0.05050,-1.779461846
0.05100,1.577676638
0.05150,4.934815123
0.05200,5.240009531
0.05250,3.408843085
0.05300,3.714037492
0.05350,6.155592754
0.05400,7.681564792
0.05450,6.765981569
0.05500,4.934815123
0.05550,4.934815123
0.05600,7.071175977
0.05650,9.512731239
0.05700,11.64909209
0.05750,14.70103617
0.05800,17.44778584
0.05850,17.44778584
0.05900,14.39584176
0.05950,11.03870328
0.06000,10.12312005
0.06050,9.512731239
0.06100,7.071175977
0.06150,3.103648677
0.06200,0.05170459981
0.06250,-0.8638786233
0.06300,-1.474267439
0.06350,-1.779461846
0.06400,-2.084656254
0.06450,-2.389850662
0.06500,-3.610628293
0.06550,-4.221017108
0.06600,-2.084656254
0.06650,2.188065454
0.06700,4.934815123
0.06750,1.882871046
0.06800,-4.221017108
0.06850,-8.798933224
0.06900,-9.409322039
0.06950,-10.93529408
0.07000,-14.90282138
0.07050,-18.56515427
0.07100,-17.34437664
0.07150,-14.90282138
0.07200,-15.8184046
0.07250,-18.25995986
0.07300,-15.51321019
0.07350,-7.578155593
0.07400,-3.610628293
0.07450,-6.967766777
0.07500,-12.46126612
0.07550,-13.68204375
0.07600,-11.54568289
0.07650,-11.24048849
0.07700,-11.54568289
0.07750,-8.798933224
0.07800,-3.610628293
0.07850,-0.5586842156
0.07900,-0.2534898079
0.07950,0.05170459981
0.08000,1.577676638
0.08050,2.798454269
0.08100,2.798454269
0.08150,4.0192319
0.08200,7.9867592
0.08250,12.25948091
0.08300,14.70103617
0.08350,15.61661939
0.08400,17.14259143
0.08450,18.97375788
0.08500,18.05817465
0.08550,13.48025854
0.08600,7.376370385
0.08650,4.0192319
0.08700,3.103648677
0.08750,0.6620934152
0.08800,-4.221017108
0.08850,-6.357377962
0.08900,-3.305433885
0.08950,-0.8638786233
0.09000,-6.66257237
0.09050,-20.09112631
0.09100,-29.85734735
0.09150,-30.16254176
0.09200,-25.27943124
0.09250,-23.7534592
0.09300,-25.58462565
0.09350,-24.97423683
0.09400,-20.09112631
0.09450,-16.12359901
0.09500,-16.42879342
0.09550,-18.56515427
0.09600,-17.95476545
0.09650,-14.29243256
0.09700,-10.93529408
0.09750,-7.578155593
0.09800,-0.5586842156
0.09850,11.03870328
0.09900,22.94128518
0.09950,29.04517333
0.10000,29.65556215
0.10050,28.12959011
0.10100,26.60361807
0.10150,22.94128518
0.10200,17.75298025
0.10250,14.39584176
0.10300,15.31142498
0.10350,17.75298025
0.10400,18.05817465
0.10450,14.70103617
0.10500,8.902342423
0.10550,2.798454269
0.10600,0.05170459981
0.10650,0.6620934152
0.10700,4.629620715
0.10750,8.291953608
0.10800,8.291953608
0.10850,4.629620715
0.10900,1.577676638
0.10950,4.934815123
0.11000,14.70103617
0.11050,24.77245162
0.11100,28.43478452
0.11150,26.60361807
0.11200,25.07764603
0.11250,25.38284044
0.11300,24.46725722
0.11350,21.11011873
0.11400,18.97375788
0.11450,20.49972992
0.11500,21.72050755
0.11550,18.36336906
0.11600,11.9542865
0.11650,8.291953608
0.11700,5.850398346
0.11750,-0.5586842156
0.11800,-11.8508773
0.11850,-20.70151512
0.11900,-24.05865361
0.11950,-24.97423683
0.12000,-27.7209865
0.12050,-30.46773617
0.12100,-28.94176413
0.12150,-22.53268157
0.12200,-15.51321019
0.12250,-11.8508773
0.12300,-12.15607171
0.12350,-15.8184046
0.12400,-21.31190394
0.12450,-24.97423683
0.12500,-25.27943124
0.12550,-22.83787598
0.12600,-20.39632072
0.12650,-20.39632072
0.12700,-23.14307039
0.12750,-26.50020887
0.12800,-28.02618091
0.12850,-26.19501446
0.12900,-21.31190394
0.12950,-15.20801579
0.13000,-7.88335
0.13050,1.577676638
0.13100,12.56467532
0.13150,20.80492432
0.13200,23.8568684
0.13250,22.63609077
0.13300,19.58414669
0.13350,14.70103617
0.13400,10.73350887
0.13450,12.56467532
0.13500,21.11011873
0.13550,31.18153419
0.13600,36.06464471
0.13650,35.7594503
0.13700,32.70750622
0.13750,27.21400689
0.13800,18.05817465
0.13850,9.207536831
0.13900,6.155592754
0.13950,8.597148015
0.14000,10.12312005
0.14050,6.155592754
0.14100,-0.8638786233
0.14150,-7.88335
0.14200,-15.20801579
0.14250,-23.7534592
0.14300,-32.60409702
0.14350,-39.92876281
0.14400,-43.28590129
0.14450,-42.67551248
0.14500,-40.23395722
0.14550,-38.70798518
0.14600,-37.18201314
0.14650,-32.29890262
0.14700,-22.83787598
0.14750,-14.90282138
0.14800,-12.76646052
0.14850,-13.98723815
0.14900,-13.98723815
0.14950,-12.46126612
0.15000,-12.76646052
0.15050,-13.07165493
0.15100,-9.104127631
0.15150,-2.389850662
0.15200,0.9672878229
0.15250,-0.5586842156
0.15300,-4.831405923
0.15350,-8.798933224
0.15400,-14.29243256
0.15450,-20.70151512
0.15500,-24.97423683
0.15550,-24.66904242
0.15600,-23.14307039
0.15650,-21.31190394
0.15700,-15.51321019
0.15750,-4.831405923
0.15800,5.545203938
0.15850,10.42831446
0.15900,12.25948091
0.15950,18.05817465
0.16000,26.60361807
0.16050,31.791923
0.16100,31.48672859
0.16150,29.96075655
0.16200,30.26595096
0.16250,29.35036774
0.16300,25.68803485
0.16350,21.72050755
0.16400,21.72050755
0.16450,23.55167399
0.16500,22.63609077
0.16550,17.75298025
0.16600,11.03870328
0.16650,4.934815123
0.16700,1.577676638
0.16750,1.272482231
0.16800,3.714037492
0.16850,6.460787162
0.16900,8.902342423
0.16950,11.64909209
0.17000,15.00623058
0.17050,15.00623058
0.17100,9.207536831
0.17150,-0.5586842156
0.17200,-10.63009967
0.17250,-17.64957105
0.17300,-19.17554309
0.17350,-14.90282138
0.17400,-6.052183554
0.17450,2.188065454
0.17500,6.155592754
0.17550,7.681564792
0.17600,11.64909209
0.17650,17.14259143
0.17700,20.49972992
0.17750,21.41531314
0.17800,24.46725722
0.17850,32.70750622
0.17900,41.55814405
0.17950,46.13606016
0.18000,47.6620322
0.18050,50.10358746
0.18100,52.54514272
0.18150,53.46072595
0.18200,53.76592036
0.18250,56.51267002
0.18300,59.5646141
0.18350,58.95422529
0.18400,54.68150358
0.18450,49.18800424
0.18500,41.25294964
0.18550,27.21400689
0.18600,10.42831446
0.18650,0.05170459981
0.18700,-2.084656254
0.18750,-4.221017108
0.18800,-13.07165493
0.18850,-24.36384802
0.18900,-30.46773617
0.18950,-31.99370821
0.19000,-34.74045788
0.19050,-39.31837399
0.19100,-42.37031807
0.19150,-44.81187333
0.19200,-50.91576149
0.19250,-57.93523286
0.19300,-58.54562168
0.19350,-50.91576149
0.19400,-41.75992926
0.19450,-36.57162432
0.19500,-31.99370821
0.19550,-24.05865361
0.19600,-13.68204375
0.19650,-6.66257237
0.19700,-4.221017108
0.19750,-4.221017108
0.19800,-5.441794739
0.19850,-7.88335
0.19900,-11.8508773
0.19950,-17.95476545
0.20000,-23.7534592
0.20050,-25.27943124
0.20100,-21.31190394
0.20150,-17.03918223
0.20200,-20.09112631
0.20250,-29.24695854
0.20300,-34.43526347
0.20350,-30.46773617
0.20400,-24.66904242
0.20450,-24.66904242
0.20500,-26.50020887
0.20550,-24.05865361
0.20600,-18.87034868
0.20650,-16.42879342
0.20700,-13.37684934
0.20750,-2.389850662
0.20800,14.39584176
0.20850,26.90881248
0.20900,29.96075655
0.20950,31.48672859
0.21000,38.50619997
0.21050,45.83086576
0.21100,45.22047694
0.21150,38.81139438
0.21200,35.45425589
0.21250,38.81139438
0.21300,43.38931049
0.21350,43.08411609
0.21400,37.59061675
0.21450,31.791923
0.21500,26.90881248
0.21550,20.80492432
0.21600,10.73350887
0.21650,-2.084656254
0.21700,-13.37684934
0.21750,-19.7859319
0.21800,-22.22748716
0.21850,-24.05865361
0.21900,-28.94176413
0.21950,-34.74045788
0.22000,-38.09759636
0.22050,-37.79240196
0.22100,-36.87681873
0.22150,-39.31837399
0.22200,-44.20148452
0.22250,-49.69498386
0.22300,-53.96770556
0.22350,-58.24042727
0.22400,-60.68198253
0.22450,-58.24042727
0.22500,-52.13653912
0.22550,-48.16901182
0.22600,-46.94823419
0.22650,-42.37031807
0.22700,-29.55215295
0.22750,-15.20801579
0.22800,-9.714516447
0.22850,-14.59762697
0.22900,-20.70151512
0.22950,-21.92229275
0.23000,-20.09112631
0.23050,-19.17554309
0.23100,-19.7859319
0.23150,-19.48073749
0.23200,-14.29243256
0.23250,-1.169073031
0.23300,17.75298025
0.23350,33.92828385
0.23400,39.42178319
0.23450,38.50619997
0.23500,40.94775523
0.23550,47.35683779
0.23600,47.35683779
0.23650,35.7594503
0.23700,19.58414669
0.23750,8.291953608
0.23800,3.714037492
0.23850,3.714037492
0.23900,9.817925646
0.23950,22.02570195
0.24000,30.87633978
0.24050,29.04517333
0.24100,22.63609077
0.24150,24.46725722
0.24200,33.92828385
0.24250,39.11658879
0.24300,33.31789504
0.24350,24.77245162
0.24400,24.46725722
0.24450,32.09711741
0.24500,39.42178319
0.24550,40.64256082
0.24600,34.23347826
0.24650,19.58414669
0.24700,0.05170459981
0.24750,-15.8184046
0.24800,-23.7534592
0.24850,-31.38331939
0.24900,-47.25342859
0.24950,-65.56509306
0.25000,-75.02611969
0.25050,-73.50014766
0.25100,-69.22742595
0.25150,-64.64950983
0.25200,-53.05212234
0.25250,-32.90929143
0.25300,-13.68204375
0.25350,0.05170459981
0.25400,16.83739702
0.25450,45.22047694
0.25500,77.26588975
0.25550,100.7658591
0.25600,114.1944131
0.25650,124.8762173
0.25700,132.8112719
0.25750,131.5904943
0.25800,120.90869
0.25850,105.6489697
0.25900,83.98016672
0.25950,51.32436509
0.26000,10.42831446
0.26050,-28.63656972
0.26100,-59.76639931
0.26150,-82.65597989
0.26200,-95.47414501
0.26250,-96.08453383
0.26300,-91.81181212
0.26350,-95.77933942
0.26400,-109.5130878
0.26450,-119.5845032
0.26500,-112.8702262
0.26550,-89.67545126
0.26600,-58.54562168
0.26650,-24.66904242
0.26700,5.850398346
0.26750,25.68803485
0.26800,33.01270063
0.26850,33.62308945
0.26900,34.23347826
0.26950,33.31789504
0.27000,29.04517333
0.27050,24.16206281
0.27100,18.97375788
0.27150,8.597148015
0.27200,-7.88335
0.27250,-24.36384802
0.27300,-34.43526347
0.27350,-39.6235684
0.27400,-45.72745656
0.27450,-51.83134471
0.27500,-53.35731675
0.27550,-47.558623
0.27600,-32.29890262
0.27650,-7.88335
0.27700,18.05817465
0.27750,33.31789504
0.27800,33.62308945
0.27850,29.65556215
0.27900,33.92828385
0.27950,43.08411609
0.28000,46.44125457
0.28050,42.47372727
0.28100,40.64256082
0.28150,44.61008812
0.28200,47.96722661
0.28250,44.30489372
0.28300,36.67503352
0.28350,30.87633978
0.28400,29.04517333
0.28450,29.04517333
0.28500,29.96075655
0.28550,30.87633978
0.28600,31.18153419
0.28650,28.12959011
0.28700,20.80492432
0.28750,7.681564792
0.28800,-8.493738816
0.28850,-22.53268157
0.28900,-28.02618091
0.28950,-24.66904242
0.29000,-17.34437664
0.29050,-12.46126612
0.29100,-12.76646052
0.29150,-18.25995986
0.29200,-25.58462565
0.29250,-30.16254176
0.29300,-29.85734735
0.29350,-27.41579209
0.29400,-24.66904242
0.29450,-20.70151512
0.29500,-15.51321019
0.29550,-14.29243256
0.29600,-20.70151512
0.29650,-29.24695854
0.29700,-30.16254176
0.29750,-19.48073749
0.29800,-3.000239477
0.29850,13.48025854
0.29900,31.18153419
0.29950,50.71397628
0.30000,69.02564074
0.30050,81.53861146
0.30100,85.20094435
0.30150,80.01263942
0.30200,64.75291903
0.30250,41.86333845
0.30300,18.97375788
0.30350,5.545203938
0.30400,2.493259861
0.30450,1.272482231
0.30500,-3.610628293
0.30550,-11.24048849
0.30600,-14.59762697
0.30650,-13.68204375
0.30700,-14.59762697
0.30750,-20.09112631
0.30800,-24.97423683
0.30850,-22.83787598
0.30900,-13.07165493
0.30950,-0.2534898079
0.31000,10.42831446
0.31050,16.22700821
0.31100,13.78545295
0.31150,5.545203938
0.31200,0.05170459981
0.31250,1.882871046
0.31300,6.155592754
0.31350,2.493259861
0.31400,-12.15607171
0.31450,-29.24695854
0.31500,-38.40279077
0.31550,-39.31837399
0.31600,-38.09759636
0.31650,-40.53915162
0.31700,-46.03265096
0.31750,-49.38978945
0.31800,-47.86381741
0.31850,-40.53915162
0.31900,-31.07812499
0.31950,-21.61709835
0.32000,-12.15607171
0.32050,1.272482231
0.32100,19.58414669
0.32150,38.50619997
0.32200,51.6295595
0.32250,58.03864206
0.32300,59.25941969
0.32350,58.03864206
0.32400,55.29189239
0.32450,51.6295595
0.32500,47.35683779
0.32550,42.16853286
0.32600,37.59061675
0.32650,35.45425589
0.32700,36.98022793
0.32750,38.50619997
0.32800,37.28542234
0.32850,33.62308945
0.32900,30.87633978
0.32950,30.87633978
0.33000,31.48672859
0.33050,31.791923
0.33100,31.791923
0.33150,31.18153419
0.33200,26.60361807
0.33250,18.05817465
0.33300,11.9542865
0.33350,14.39584176
0.33400,21.41531314
0.33450,20.80492432
0.33500,6.155592754
0.33550,-12.76646052
0.33600,-20.70151512
0.33650,-15.51321019
0.33700,-10.01971085
0.33750,-14.29243256
0.33800,-21.92229275
0.33850,-23.7534592
0.33900,-21.61709835
0.33950,-25.88982005
0.34000,-36.26642992
0.34050,-45.42226215
0.34100,-53.05212234
0.34150,-64.64950983
0.34200,-74.41573088
0.34250,-68.00664832
0.34300,-46.64303978
0.34350,-31.6885138
0.34400,-35.96123551
0.34450,-46.03265096
0.34500,-45.11706774
0.34550,-38.09759636
0.34600,-38.40279077
0.34650,-41.75992926
0.34700,-33.82487466
0.34750,-16.12359901
0.34800,-1.779461846
0.34850,5.850398346
0.34900,17.14259143
0.34950,34.53867267
0.35000,49.79839306
0.35050,60.48019732
0.35100,72.07758482
0.35150,83.67497231
0.35200,87.3373052
0.35250,82.14900027
0.35300,76.65550093
0.35350,71.77239041
0.35400,61.39578055
0.35450,51.32436509
0.35500,58.03864206
0.35550,83.3697779
0.35600,108.3957193
0.35650,118.4671348
0.35700,118.4671348
0.35750,113.5840243
0.35800,96.49313743
0.35850,64.14253022
0.35900,28.73997892
0.35950,1.577676638
0.36000,-24.05865361
0.36050,-56.71445523
0.36100,-86.9287016
0.36150,-104.6299772
0.36200,-117.4481424
0.36250,-139.4221397
0.36300,-165.05847
0.36350,-176.9610519
0.36400,-171.7727469
0.36450,-161.3961371
0.36500,-152.2403048
0.36550,-138.2013621
0.36600,-116.5325591
0.36650,-97.61050586
0.36700,-87.233896
0.36750,-80.21442463
0.36800,-68.31184273
0.36850,-49.08459504
0.36900,-26.19501446
0.36950,-5.441794739
0.37000,5.545203938
0.37050,1.577676638
0.37100,-14.90282138
0.37150,-33.21448584
0.37200,-43.28590129
0.37250,-44.20148452
0.37300,-40.84434603
0.37350,-37.79240196
0.37400,-35.96123551
0.37450,-31.6885138
0.37500,-21.92229275
0.37550,-9.714516447
0.37600,0.05170459981
0.37650,7.681564792
0.37700,18.05817465
0.37750,29.35036774
0.37800,32.70750622
0.37850,23.55167399
0.37900,11.03870328
0.37950,7.071175977
0.38000,11.64909209
0.38050,15.31142498
0.38100,14.39584176
0.38150,12.56467532
0.38200,11.34389768
0.38250,7.9867592
0.38300,0.05170459981
0.38350,-8.188544408
0.38400,-12.76646052
0.38450,-11.24048849
0.38500,-5.136600331
0.38550,0.6620934152
0.38600,4.934815123
0.38650,9.512731239
0.38700,14.09064735
0.38750,12.25948091
0.38800,-0.8638786233
0.38850,-19.17554309
0.38900,-27.41579209
0.38950,-23.7534592
0.39000,-16.42879342
0.39050,-9.104127631
0.39100,6.765981569
0.39150,32.40231182
0.39200,53.46072595
0.39250,57.42825325
0.39300,52.23994832
0.39350,50.71397628
0.39400,51.32436509
0.39450,47.35683779
0.39500,42.16853286
0.39550,44.91528253
0.39600,54.68150358
0.39650,65.97369666
0.39700,79.4022506
0.39750,98.01910947
0.39800,112.0580522
0.39850,106.5645529
0.39900,82.14900027
0.39950,54.37630917
0.40000,35.45425589
0.40050,22.63609077
0.40100,11.64909209
0.40150,2.493259861
0.40200,-6.66257237
0.40250,-21.00670953
0.40300,-36.87681873
0.40350,-46.03265096
0.40400,-46.03265096
0.40450,-42.98070689
0.40500,-42.67551248
0.40550,-42.37031807
0.40600,-40.53915162
0.40650,-40.53915162
0.40700,-44.20148452
0.40750,-46.33784537
0.40800,-44.81187333
0.40850,-38.40279077
0.40900,-24.97423683
0.40950,-0.5586842156
0.41000,30.26595096
0.41050,56.20747562
0.41100,71.77239041
0.41150,82.75938909
0.41200,93.74638776
0.41250,98.62949829
0.41300,91.91522132
0.41350,79.4022506
0.41400,71.467196
0.41450,69.63602956
0.41500,67.80486311
0.41550,61.39578055
0.41600,50.71397628
0.41650,37.59061675
0.41700,23.8568684
0.41750,11.03870328
0.41800,-0.8638786233
0.41850,-13.07165493
0.41900,-24.36384802
0.41950,-30.46773617
0.42000,-30.77293058
0.42050,-29.55215295
0.42100,-32.60409702
0.42150,-39.92876281
0.42200,-46.94823419
0.42250,-50.61056708
0.42300,-50.91576149
0.42350,-50.00017826
0.42400,-50.91576149
0.42450,-53.96770556
0.42500,-57.63003846
0.42550,-58.85081609
0.42600,-56.40926082
0.42650,-52.13653912
0.42700,-48.16901182
0.42750,-45.11706774
0.42800,-42.37031807
0.42850,-38.40279077
0.42900,-32.90929143
0.42950,-25.58462565
0.43000,-18.87034868
0.43050,-12.15607171
0.43100,-2.389850662
0.43150,11.34389768
0.43200,24.16206281
0.43250,30.87633978
0.43300,31.791923
0.43350,30.57114537
0.43400,28.12959011
0.43450,23.55167399
0.43500,20.49972992
0.43550,23.24647959
0.43600,28.73997892
0.43650,29.96075655
0.43700,25.68803485
0.43750,23.24647959
0.43800,26.29842366
0.43850,28.73997892
0.43900,25.07764603
0.43950,17.75298025
0.44000,10.42831446
0.44050,3.714037492
0.44100,-4.221017108
0.44150,-9.714516447
0.44200,-8.188544408
0.44250,-3.305433885
0.44300,-3.305433885
0.44350,-7.88335
0.44400,-8.798933224
0.44450,-0.8638786233
0.44500,9.207536831
0.44550,13.78545295
0.44600,14.70103617
0.44650,18.66856347
0.44700,25.38284044
0.44750,26.29842366
0.44800,18.66856347
0.44850,9.817925646
0.44900,5.850398346
0.44950,5.240009531
0.45000,2.798454269
0.45050,-0.8638786233
0.45100,-3.305433885
0.45150,-3.000239477
0.45200,-0.8638786233
0.45250,2.188065454
0.45300,2.798454269
0.45350,-2.69504507
0.45400,-10.01971085
0.45450,-9.714516447
0.45500,-2.084656254
0.45550,0.6620934152
0.45600,-6.052183554
0.45650,-9.714516447
0.45700,0.05170459981
0.45750,11.64909209
0.45800,7.071175977
0.45850,-9.714516447
0.45900,-17.64957105
0.45950,-8.493738816
0.46000,1.272482231
0.46050,-0.2534898079
0.46100,-7.272961185
0.46150,-4.221017108
0.46200,9.817925646
0.46250,26.60361807
0.46300,36.98022793
0.46350,39.7269776
0.46400,36.36983912
0.46450,31.48672859
0.46500,28.43478452
0.46550,27.8243957
0.46600,28.12959011
0.46650,30.87633978
0.46700,37.89581115
0.46750,47.6620322
0.46800,56.81786443
0.46850,63.22694699
0.46900,66.58408548
0.46950,62.61655818
0.47000,50.10358746
0.47050,37.89581115
0.47100,33.62308945
0.47150,31.48672859
0.47200,17.75298025
0.47250,-7.88335
0.47300,-30.77293058
0.47350,-39.31837399
0.47400,-39.92876281
0.47450,-45.11706774
0.47500,-55.4936776
0.47550,-61.90276016
0.47600,-60.98717694
0.47650,-57.01964964
0.47700,-53.96770556
0.47750,-50.61056708
0.47800,-44.50667892
0.47850,-35.35084669
0.47900,-26.19501446
0.47950,-19.7859319
0.48000,-18.56515427
0.48050,-21.92229275
0.48100,-24.97423683
0.48150,-22.22748716
0.48200,-14.29243256
0.48250,-7.578155593
0.48300,-5.441794739
0.48350,-3.9158227
0.48400,-1.169073031
0.48450,-3.610628293
0.48500,-18.87034868
0.48550,-42.06512366
0.48600,-59.76639931
0.48650,-68.31184273
0.48700,-76.85728614
0.48750,-90.8962289
0.48800,-100.3572555
0.48850,-96.38972823
0.48900,-84.79234074
0.48950,-79.60403581
0.49000,-81.13000785
0.49050,-78.07806377
0.49100,-65.25989865
0.49150,-49.38978945
0.49200,-37.48720755
0.49250,-29.55215295
0.49300,-24.36384802
0.49350,-21.31190394
0.49400,-17.64957105
0.49450,-8.188544408
0.49500,6.155592754
0.49550,19.8893411
0.49600,29.96075655
0.49650,38.50619997
0.49700,45.22047694
0.49750,44.91528253
0.49800,35.7594503
0.49850,25.07764603
0.49900,17.44778584
0.49950,11.03870328
0.50000,0.6620934152
0.50050,-11.54568289
0.50100,-20.39632072
0.50150,-24.05865361
0.50200,-25.27943124
0.50250,-26.80540328
0.50300,-26.19501446
0.50350,-22.22748716
0.50400,-16.42879342
0.50450,-11.24048849
0.50500,-7.88335
0.50550,-5.441794739
0.50600,-2.69504507
0.50650,0.05170459981
0.50700,4.0192319
0.50750,7.9867592
0.50800,11.64909209
0.50850,14.39584176
0.50900,15.61661939
0.50950,14.70103617
0.51000,12.86986972
0.51050,11.64909209
0.51100,12.56467532
0.51150,16.53220262
0.51200,21.72050755
0.51250,26.60361807
0.51300,28.43478452
0.51350,28.43478452
0.51400,27.51920129
0.51450,25.99322925
0.51500,22.94128518
0.51550,18.97375788
0.51600,16.83739702
0.51650,18.05817465
0.51700,21.41531314
0.51750,24.16206281
0.51800,22.94128518
0.51850,15.61661939
0.51900,4.324426308
0.51950,-3.9158227
0.52000,-5.136600331
0.52050,-3.610628293
0.52100,-5.136600331
0.52150,-6.967766777
0.52200,-2.69504507
0.52250,4.934815123
0.52300,6.155592754
0.52350,0.6620934152
0.52400,4.0192319
0.52450,24.77245162
0.52500,49.79839306
0.52550,59.25941969
0.52600,50.40878187
0.52650,37.89581115
0.52700,30.57114537
0.52750,23.24647959
0.52800,12.56467532
0.52850,5.850398346
0.52900,7.9867592
0.52950,13.48025854
0.53000,14.09064735
0.53050,11.64909209
0.53100,12.86986972
0.53150,15.31142498
0.53200,11.03870328
0.53250,-3.9158227
0.53300,-22.83787598
0.53350,-35.35084669
0.53400,-35.04565229
0.53450,-23.7534592
0.53500,-9.714516447
0.53550,-1.474267439
0.53600,-0.5586842156
0.53650,-4.221017108
0.53700,-9.714516447
0.53750,-17.03918223
0.53800,-23.44826479
0.53850,-22.83787598
0.53900,-14.29243256
0.53950,-4.221017108
0.54000,0.3568990075
0.54050,1.272482231
0.54100,4.324426308
0.54150,10.12312005
0.54200,15.31142498
0.54250,18.05817465
0.54300,18.36336906
0.54350,15.31142498
0.54400,8.902342423
0.54450,4.629620715
0.54500,6.765981569
0.54550,11.64909209
0.54600,14.39584176
0.54650,16.53220262
0.54700,22.94128518
0.54750,32.70750622
0.54800,40.64256082
0.54850,46.13606016
0.54900,51.32436509
0.54950,54.07111476
0.55000,50.40878187
0.55050,44.30489372
0.55100,43.08411609
0.55150,44.30489372
0.55200,40.03217201
0.55250,30.87633978
0.55300,25.68803485
0.55350,26.90881248
0.55400,25.07764603
0.55450,16.53220262
0.55500,8.597148015
0.55550,3.714037492
0.55600,-5.441794739
0.55650,-25.27943124
0.55700,-47.25342859
0.55750,-59.4612049
0.55800,-61.90276016
0.55850,-62.51314898
0.55900,-63.4287322
0.55950,-59.76639931
0.56000,-50.00017826
0.56050,-35.35084669
0.56100,-20.70151512
0.56150,-10.93529408
0.56200,-10.01971085
0.56250,-15.8184046
0.56300,-23.44826479
0.56350,-30.77293058
0.56400,-38.09759636
0.56450,-41.14954044
0.56500,-31.38331939
0.56550,-10.63009967
0.56600,7.376370385
0.56650,13.17506413
0.56700,8.597148015
0.56750,0.6620934152
0.56800,-10.01971085
0.56850,-24.36384802
0.56900,-34.13006906
0.56950,-29.24695854
0.57000,-9.409322039
0.57050,13.78545295
0.57100,29.35036774
0.57150,32.09711741
0.57200,24.77245162
0.57250,13.78545295
0.57300,6.460787162
0.57350,4.324426308
0.57400,4.324426308
0.57450,6.155592754
0.57500,11.9542865
0.57550,20.49972992
0.57600,23.8568684
0.57650,17.14259143
0.57700,5.240009531
0.57750,-4.831405923
0.57800,-12.46126612
0.57850,-19.48073749
0.57900,-25.27943124
0.57950,-27.7209865
0.58000,-28.33137532
0.58050,-28.94176413
0.58100,-27.41579209
0.58150,-23.44826479
0.58200,-22.83787598
0.58250,-32.29890262
0.58300,-46.33784537
0.58350,-55.18848319
0.58400,-58.24042727
0.58450,-60.68198253
0.58500,-62.51314898
0.58550,-55.4936776
0.58600,-38.40279077
0.58650,-22.53268157
0.58700,-18.87034868
0.58750,-25.58462565
0.58800,-31.6885138
0.58850,-31.38331939
0.58900,-28.33137532
0.58950,-27.41579209
0.59000,-29.24695854
0.59050,-30.46773617
0.59100,-27.11059769
0.59150,-20.09112631
0.59200,-14.59762697
0.59250,-14.90282138
0.59300,-19.17554309
0.59350,-21.31190394
0.59400,-18.56515427
0.59450,-13.98723815
0.59500,-11.24048849
0.59550,-10.63009967
0.59600,-7.88335
0.59650,2.493259861
0.59700,21.41531314
0.59750,43.6945049
0.59800,61.70097496
0.59850,72.07758482
0.59900,76.96069534
0.59950,79.09705619
0.60000,77.87627856
0.60050,70.85680719
0.60100,58.95422529
0.60150,42.77892168
0.60200,24.46725722
0.60250,7.9867592
0.60300,0.05170459981
0.60350,-0.5586842156
0.60400,-3.305433885
0.60450,-13.68204375
0.60500,-25.27943124
0.60550,-28.02618091
0.60600,-23.14307039
0.60650,-19.48073749
0.60700,-19.48073749
0.60750,-18.25995986
0.60800,-11.54568289
0.60850,-3.000239477
0.60900,4.324426308
0.60950,11.03870328
0.61000,17.14259143
0.61050,23.55167399
0.61100,31.791923
0.61150,43.6945049
0.61200,53.76592036
0.61250,55.29189239
0.61300,49.18800424
0.61350,44.30489372
0.61400,44.61008812
0.61450,46.74644898
0.61500,46.74644898
0.61550,46.44125457
0.61600,44.61008812
0.61650,35.45425589
0.61700,17.75298025
0.61750,0.9672878229
0.61800,-8.493738816
0.61850,-17.34437664
0.61900,-32.90929143
0.61950,-47.86381741
0.62000,-49.08459504
0.62050,-35.6560411
0.62100,-22.22748716
0.62150,-19.48073749
0.62200,-24.66904242
0.62250,-28.94176413
0.62300,-29.24695854
0.62350,-26.19501446
0.62400,-20.09112631
0.62450,-12.46126612
0.62500,-6.052183554
0.62550,-0.8638786233
0.62600,3.408843085
0.62650,6.765981569
0.62700,6.155592754
0.62750,2.188065454
0.62800,-1.169073031
0.62850,-2.389850662
0.62900,-0.2534898079
0.62950,7.376370385
0.63000,19.8893411
0.63050,28.73997892
0.63100,27.51920129
0.63150,22.02570195
0.63200,25.38284044
0.63250,38.20100556
0.63300,47.05164339
0.63350,43.38931049
0.63400,32.70750622
0.63450,24.46725722
0.63500,20.19453551
0.63550,15.31142498
0.63600,7.681564792
0.63650,-0.5586842156
0.63700,-8.493738816
0.63750,-13.37684934
0.63800,-14.29243256
0.63850,-11.8508773
0.63900,-6.052183554
0.63950,3.714037492
0.64000,14.09064735
0.64050,16.83739702
0.64100,9.207536831
0.64150,0.3568990075
0.64200,1.272482231
0.64250,10.12312005
0.64300,15.61661939
0.64350,13.17506413
0.64400,7.9867592
0.64450,4.0192319
0.64500,0.05170459981
0.64550,-5.136600331
0.64600,-8.188544408
0.64650,-10.93529408
0.64700,-16.12359901
0.64750,-20.39632072
0.64800,-15.20801579
0.64850,-0.8638786233
0.64900,6.765981569
0.64950,-3.305433885
0.65000,-26.50020887
0.65050,-46.33784537
0.65100,-53.66251116
0.65150,-50.30537267
0.65200,-41.45473485
0.65250,-30.77293058
0.65300,-21.31190394
0.65350,-14.29243256
0.65400,-6.66257237
0.65450,4.0192319
0.65500,16.22700821
0.65550,27.8243957
0.65600,39.11658879
0.65650,52.85033713
0.65700,65.97369666
0.65750,71.16200159
0.65800,66.58408548
0.65850,59.25941969
0.65900,58.34383647
0.65950,62.00616936
0.66000,63.22694699
0.66050,57.73344766
0.66100,47.35683779
0.66150,34.84386708
0.66200,22.02570195
0.66250,13.78545295
0.66300,13.78545295
0.66350,15.61661939
0.66400,9.207536831
0.66450,-5.746989147
0.66500,-17.95476545
0.66550,-18.87034868
0.66600,-14.29243256
0.66650,-14.29243256
0.66700,-18.87034868
0.66750,-22.22748716
0.66800,-23.7534592
0.66850,-25.58462565
0.66900,-27.11059769
0.66950,-24.66904242
0.67000,-18.87034868
0.67050,-14.29243256
0.67100,-11.54568289
0.67150,-6.967766777
0.67200,0.6620934152
0.67250,9.207536831
0.67300,13.17506413
0.67350,9.207536831
0.67400,-3.305433885
0.67450,-19.48073749
0.67500,-30.16254176
0.67550,-30.77293058
0.67600,-26.80540328
0.67650,-24.97423683
0.67700,-25.88982005
0.67750,-25.88982005
0.67800,-24.66904242
0.67850,-26.80540328
0.67900,-34.13006906
0.67950,-42.67551248
0.68000,-47.558623
0.68050,-46.33784537
0.68100,-40.53915162
0.68150,-33.51968025
0.68200,-25.27943124
0.68250,-17.95476545
0.68300,-16.42879342
0.68350,-25.88982005
0.68400,-42.37031807
0.68450,-52.74692793
0.68500,-48.47420622
0.68550,-34.43526347
0.68600,-20.70151512
0.68650,-8.493738816
0.68700,8.597148015
0.68750,32.09711741
0.68800,52.54514272
0.68850,60.78539173
0.68900,57.12305884
0.68950,46.74644898
0.69000,35.45425589
0.69050,26.29842366
0.69100,20.80492432
0.69150,17.44778584
0.69200,11.9542865
0.69250,1.577676638
0.69300,-10.32490526
0.69350,-19.17554309
0.69400,-19.48073749
0.69450,-9.104127631
0.69500,9.207536831
0.69550,27.8243957
0.69600,36.36983912
0.69650,31.791923
0.69700,21.72050755
0.69750,16.53220262
0.69800,17.44778584
0.69850,15.9218138
0.69900,6.155592754
0.69950,-8.188544408
0.70000,-17.64957105
0.70050,-18.87034868
0.70100,-17.34437664
0.70150,-17.64957105
0.70200,-17.34437664
0.70250,-12.46126612
0.70300,-7.272961185
0.70350,-6.967766777
0.70400,-9.104127631
0.70450,-7.88335
0.70500,-3.000239477
0.70550,-1.169073031
0.70600,-3.9158227
0.70650,-7.272961185
0.70700,-7.88335
0.70750,-6.967766777
0.70800,-6.052183554
0.70850,-5.746989147
0.70900,-7.88335
0.70950,-13.37684934
0.71000,-17.95476545
0.71050,-17.64957105
0.71100,-14.59762697
0.71150,-13.98723815
0.71200,-14.29243256
0.71250,-10.01971085
0.71300,-3.610628293
0.71350,-0.2534898079
0.71400,0.3568990075
0.71450,4.934815123
0.71500,10.73350887
0.71550,10.12312005
0.71600,4.324426308
0.71650,5.850398346
0.71700,17.44778584
0.71750,29.04517333
0.71800,31.791923
0.71850,29.04517333
0.71900,27.51920129
0.71950,25.68803485
0.72000,23.55167399
0.72050,25.99322925
0.72100,37.59061675
0.72150,51.01917069
0.72200,56.51267002
0.72250,52.23994832
0.72300,43.08411609
0.72350,33.31789504
0.72400,24.46725722
0.72450,18.05817465
0.72500,14.09064735
0.72550,11.9542865
0.72600,14.09064735
0.72650,21.41531314
0.72700,27.21400689
0.72750,22.63609077
0.72800,9.817925646
0.72850,2.493259861
0.72900,7.681564792
0.72950,16.83739702
0.73000,20.49972992
0.73050,18.36336906
0.73100,13.48025854
0.73150,5.850398346
0.73200,-4.221017108
0.73250,-7.88335
0.73300,2.188065454
0.73350,21.11011873
0.73400,33.62308945
0.73450,32.09711741
0.73500,21.41531314
0.73550,8.597148015
0.73600,-2.084656254
0.73650,-11.54568289
0.73700,-20.09112631
0.73750,-27.11059769
0.73800,-32.29890262
0.73850,-34.74045788
0.73900,-34.74045788
0.73950,-33.82487466
0.74000,-31.38331939
0.74050,-24.36384802
0.74100,-12.76646052
0.74150,-0.8638786233
0.74200,7.681564792
0.74250,11.9542865
0.74300,14.39584176
0.74350,15.61661939
0.74400,14.70103617
0.74450,9.817925646
0.74500,0.05170459981
0.74550,-11.8508773
0.74600,-18.25995986
0.74650,-12.46126612
0.74700,3.714037492
0.74750,20.49972992
0.74800,28.43478452
0.74850,27.51920129
0.74900,22.94128518
0.74950,18.36336906
0.75000,13.48025854
0.75050,7.681564792
0.75100,2.798454269
0.75150,1.882871046
0.75200,5.850398346
0.75250,11.64909209
0.75300,15.31142498
0.75350,15.9218138
0.75400,16.53220262
0.75450,21.11011873
0.75500,29.35036774
0.75550,36.98022793
0.75600,37.59061675
0.75650,29.65556215
0.75700,16.83739702
0.75750,6.155592754
0.75800,4.0192319
0.75850,10.73350887
0.75900,19.8893411
0.75950,25.68803485
0.76000,28.43478452
0.76050,31.48672859
0.76100,34.84386708
0.76150,36.06464471
0.76200,33.62308945
0.76250,27.51920129
0.76300,18.36336906
0.76350,5.240009531
0.76400,-10.93529408
0.76450,-27.11059769
0.76500,-41.75992926
0.76550,-55.18848319
0.76600,-67.09106509
0.76650,-74.72092529
0.76700,-78.99364699
0.76750,-86.9287016
0.76800,-102.7988108
0.76850,-120.194892
0.76900,-124.7728082
0.76950,-111.6494486
0.77000,-91.2014233
0.77050,-76.24689733
0.77100,-69.53262036
0.77150,-64.64950983
0.77200,-58.54562168
0.77250,-53.05212234
0.77300,-48.16901182
0.77350,-40.53915162
0.77400,-28.63656972
0.77450,-15.8184046
0.77500,-6.357377962
0.77550,-1.474267439
0.77600,0.6620934152
0.77650,2.493259861
0.77700,3.408843085
0.77750,1.272482231
0.77800,-3.9158227
0.77850,-7.88335
0.77900,-3.610628293
0.77950,8.902342423
0.78000,21.11011873
0.78050,25.07764603
0.78100,22.33089636
0.78150,20.80492432
0.78200,22.63609077
0.78250,22.94128518
0.78300,18.66856347
0.78350,11.9542865
0.78400,5.545203938
0.78450,-0.5586842156
0.78500,-6.357377962
0.78550,-11.24048849
0.78600,-17.64957105
0.78650,-28.02618091
0.78700,-37.79240196
0.78750,-38.70798518
0.78800,-31.07812499
0.78850,-22.53268157
0.78900,-16.73398782
0.78950,-10.01971085
0.79000,-0.8638786233
0.79050,6.155592754
0.79100,10.73350887
0.79150,18.05817465
0.79200,29.96075655
0.79250,39.7269776
0.79300,42.47372727
0.79350,44.91528253
0.79400,54.98669799
0.79450,69.02564074
0.79500,75.4347233
0.79550,69.33083515
0.79600,57.42825325
0.79650,48.27242102
0.79700,44.61008812
0.79750,43.6945049
0.79800,43.38931049
0.79850,40.64256082
0.79900,34.84386708
0.79950,25.38284044
0.80000,13.78545295
0.80050,0.6620934152
0.80100,-12.46126612
0.80150,-22.83787598
0.80200,-28.63656972
0.80250,-30.46773617
0.80300,-31.07812499
0.80350,-32.60409702
0.80400,-33.21448584
0.80450,-28.94176413
0.80500,-17.64957105
0.80550,-2.69504507
0.80600,10.42831446
0.80650,18.97375788
0.80700,21.41531314
0.80750,18.97375788
0.80800,12.25948091
0.80850,5.240009531
0.80900,1.272482231
0.80950,-1.474267439
0.81000,-8.188544408
0.81050,-19.17554309
0.81100,-28.02618091
0.81150,-31.99370821
0.81200,-35.35084669
0.81250,-39.6235684
0.81300,-38.40279077
0.81350,-27.41579209
0.81400,-15.20801579
0.81450,-10.93529408
0.81500,-12.15607171
0.81550,-7.88335
0.81600,0.9672878229
0.81650,6.155592754
0.81700,3.103648677
0.81750,-2.69504507
0.81800,-7.88335
0.81850,-10.32490526
0.81900,-5.136600331
0.81950,10.12312005
0.82000,28.43478452
0.82050,39.11658879
0.82100,46.44125457
0.82150,61.09058614
0.82200,80.01263942
0.82250,85.20094435
0.82300,71.77239041
0.82350,57.42825325
0.82400,55.29189239
0.82450,54.98669799
0.82500,42.77892168
0.82550,22.94128518
0.82600,8.291953608
0.82650,-1.474267439
0.82700,-18.56515427
0.82750,-40.53915162
0.82800,-54.88328879
0.82850,-55.4936776
0.82900,-50.61056708
0.82950,-46.94823419
0.83000,-42.98070689
0.83050,-38.09759636
0.83100,-36.87681873
0.83150,-38.40279077
0.83200,-35.04565229
0.83250,-25.58462565
0.83300,-21.00670953
0.83350,-31.99370821
0.83400,-51.5261503
0.83450,-61.90276016
0.83500,-54.88328879
0.83550,-38.40279077
0.83600,-24.66904242
0.83650,-17.64957105
0.83700,-12.46126612
0.83750,-6.052183554
0.83800,0.6620934152
0.83850,7.376370385
0.83900,14.39584176
0.83950,21.72050755
0.84000,29.35036774
0.84050,37.28542234
0.84100,44.91528253
0.84150,51.93475391
0.84200,57.42825325
0.84250,58.95422529
0.84300,53.76592036
0.84350,39.7269776
0.84400,21.11011873
0.84450,4.629620715
0.84500,-7.272961185
0.84550,-22.22748716
0.84600,-44.50667892
0.84650,-63.4287322
0.84700,-64.64950983
0.84750,-49.08459504
0.84800,-33.82487466
0.84850,-28.94176413
0.84900,-24.36384802
0.84950,-9.104127631
0.85000,9.512731239
0.85050,16.83739702
0.85100,11.03870328
0.85150,6.155592754
0.85200,7.681564792
0.85250,7.071175977
0.85300,-1.474267439
0.85350,-10.01971085
0.85400,-7.578155593
0.85450,2.798454269
0.85500,10.12312005
0.85550,10.42831446
0.85600,11.34389768
0.85650,19.58414669
0.85700,32.09711741
0.85750,40.64256082
0.85800,42.16853286
0.85850,39.7269776
0.85900,35.45425589
0.85950,28.12959011
0.86000,14.70103617
0.86050,-1.779461846
0.86100,-12.46126612
0.86150,-9.714516447
0.86200,4.324426308
0.86250,20.49972992
0.86300,30.26595096
0.86350,32.09711741
0.86400,31.18153419
0.86450,33.31789504
0.86500,38.50619997
0.86550,41.86333845
0.86600,37.89581115
0.86650,29.65556215
0.86700,26.29842366
0.86750,31.791923
0.86800,37.89581115
0.86850,33.01270063
0.86900,17.75298025
0.86950,4.324426308
0.87000,0.6620934152
0.87050,2.493259861
0.87100,1.882871046
0.87150,-2.389850662
0.87200,-6.66257237
0.87250,-5.136600331
0.87300,3.103648677
0.87350,16.83739702
0.87400,30.26595096
0.87450,35.7594503
0.87500,29.96075655
0.87550,15.00623058
0.87600,-1.474267439
0.87650,-12.15607171
0.87700,-14.29243256
0.87750,-11.24048849
0.87800,-11.8508773
0.87850,-22.53268157
0.87900,-40.53915162
0.87950,-58.24042727
0.88000,-68.61703713
0.88050,-70.44820358
0.88100,-68.00664832
0.88150,-65.87028746
0.88200,-65.87028746
0.88250,-67.70145391
0.88300,-71.05859239
0.88350,-74.72092529
0.88400,-76.24689733
0.88450,-73.19495325
0.88500,-67.09106509
0.88550,-63.12353779
0.88600,-64.03912102
0.88650,-66.78587069
0.88700,-65.87028746
0.88750,-61.29237135
0.88800,-55.4936776
0.88850,-49.69498386
0.88900,-42.37031807
0.88950,-33.82487466
0.89000,-26.50020887
0.89050,-22.83787598
0.89100,-19.17554309
0.89150,-12.15607171
0.89200,-0.2534898079
0.89250,12.56467532
0.89300,23.8568684
0.89350,30.57114537
0.89400,33.31789504
0.89450,32.09711741
0.89500,29.65556215
0.89550,27.8243957
0.89600,28.12959011
0.89650,29.65556215
0.89700,29.96075655
0.89750,25.99322925
0.89800,18.36336906
0.89850,10.12312005
0.89900,5.240009531
0.89950,6.460787162
0.90000,13.78545295
0.90050,22.63609077
0.90100,26.90881248
0.90150,25.38284044
0.90200,23.24647959
0.90250,25.99322925
0.90300,30.87633978
0.90350,31.18153419
0.90400,27.21400689
0.90450,25.07764603
0.90500,26.60361807
0.90550,24.46725722
0.90600,16.22700821
0.90650,11.03870328
0.90700,18.36336906
0.90750,35.14906149
0.90800,48.27242102
0.90850,50.40878187
0.90900,48.88280983
0.90950,51.93475391
0.91000,59.25941969
0.91050,63.83733581
0.91100,62.31136377
0.91150,54.07111476
0.91200,38.81139438
0.91250,17.44778584
0.91300,-3.9158227
0.91350,-20.39632072
0.91400,-33.82487466
0.91450,-51.5261503
0.91500,-75.3313141
0.91550,-96.69492264
0.91600,-107.3767269
0.91650,-108.2923101
0.91700,-103.4091996
0.91750,-92.42220093
0.91800,-74.72092529
0.91850,-55.79887201
0.91900,-40.23395722
0.91950,-23.7534592
0.92000,-1.169073031
0.92050,21.41531314
0.92100,31.18153419
0.92150,25.38284044
0.92200,16.53220262
0.92250,15.00623058
0.92300,18.36336906
0.92350,22.02570195
0.92400,25.38284044
0.92450,27.8243957
0.92500,26.29842366
0.92550,18.36336906
0.92600,8.902342423
0.92650,3.408843085
0.92700,0.9672878229
0.92750,-1.779461846
0.92800,-4.526211516
0.92850,-5.441794739
0.92900,-3.9158227
0.92950,0.05170459981
0.93000,8.291953608
0.93050,22.02570195
0.93100,38.81139438
0.93150,55.90228121
0.93200,76.35030653
0.93250,105.0385808
0.93300,139.2203545
0.93350,169.1294065
0.93400,184.0839324
0.93450,181.3371828
0.93500,167.9086288
0.93550,151.7333252
0.93600,133.7268552
0.93650,107.4801361
0.93700,70.85680719
0.93750,31.48672859
0.93800,-1.779461846
0.93850,-29.85734735
0.93900,-58.85081609
0.93950,-90.28584008
0.94000,-119.2793088
0.94050,-144.3052502
0.94100,-167.1948308
0.94150,-185.2013009
0.94200,-187.9480505
0.94250,-172.3831358
0.94300,-146.1364167
0.94350,-118.66892
0.94400,-93.64297856
0.94450,-72.58456443
0.94500,-60.37678813
0.94550,-55.79887201
0.94600,-51.22095589
0.94650,-40.53915162
0.94700,-27.11059769
0.94750,-14.90282138
0.94800,-2.084656254
0.94850,12.56467532
0.94900,25.07764603
0.94950,30.57114537
0.95000,33.01270063
0.95050,36.67503352
0.95100,38.81139438
0.95150,34.23347826
0.95200,26.29842366
0.95250,19.58414669
0.95300,10.12312005
0.95350,-7.578155593
0.95400,-25.88982005
0.95450,-28.94176413
0.95500,-14.90282138
0.95550,0.9672878229
0.95600,7.071175977
0.95650,6.155592754
0.95700,5.240009531
0.95750,5.240009531
0.95800,4.629620715
0.95850,7.071175977
0.95900,14.09064735
0.95950,21.41531314
0.96000,24.77245162
0.96050,25.99322925
0.96100,26.60361807
0.96150,25.07764603
0.96200,19.8893411
0.96250,14.39584176
0.96300,8.902342423
0.96350,-0.5586842156
0.96400,-14.90282138
0.96450,-24.36384802
0.96500,-21.92229275
0.96550,-15.20801579
0.96600,-16.73398782
0.96650,-25.27943124
0.96700,-29.24695854
0.96750,-24.66904242
0.96800,-19.48073749
0.96850,-20.70151512
0.96900,-25.88982005
0.96950,-31.07812499
0.97000,-38.09759636
0.97050,-48.47420622
0.97100,-58.85081609
0.97150,-64.34431543
0.97200,-65.56509306
0.97250,-66.17548187
0.97300,-65.87028746
0.97350,-60.68198253
0.97400,-49.08459504
0.97450,-34.43526347
0.97500,-21.61709835
0.97550,-12.76646052
0.97600,-6.66257237
0.97650,0.3568990075
0.97700,10.12312005
0.97750,18.05817465
0.97800,19.58414669
0.97850,15.9218138
0.97900,12.56467532
0.97950,13.48025854
0.98000,18.05817465
0.98050,25.99322925
0.98100,37.59061675
0.98150,50.10358746
0.98200,56.81786443
0.98250,53.46072595
0.98300,43.99969931
0.98350,35.14906149
0.98400,31.791923
0.98450,34.84386708
0.98500,42.16853286
0.98550,50.40878187
0.98600,55.90228121
0.98650,58.34383647
0.98700,58.64903088
0.98750,58.64903088
0.98800,59.5646141
0.98850,65.97369666
0.98900,80.01263942
0.98950,98.62949829
0.99000,116.3307739
0.99050,130.3697167
0.99100,141.3567154
0.99150,148.3761867
0.99200,148.0709923
0.99250,137.6943825
0.99300,118.1619404
0.99350,89.77886046
0.99400,53.46072595
0.99450,15.61661939
0.99500,-16.73398782
0.99550,-43.5910957
0.99600,-70.44820358
0.99650,-101.2728388
0.99700,-131.7922795
0.99750,-153.1558881
0.99800,-158.6493874
0.99850,-151.629916
0.99900,-139.7273341
0.99950,-126.6039746
1.00000,-106.1559493
1.00050,-70.14300917
1.00100,-23.14307039
1.00150,16.83739702
1.00200,37.89581115
1.00250,45.83086576
1.00300,54.37630917
1.00350,67.19447429
1.00400,77.26588975
1.00450,79.4022506
1.00500,74.82433449
1.00550,64.14253022
1.00600,46.13606016
1.00650,24.46725722
1.00700,6.765981569
1.00750,-4.221017108
1.00800,-13.07165493
1.00850,-23.14307039
1.00900,-34.74045788
1.00950,-47.86381741
1.01000,-66.17548187
1.01050,-91.50661771
1.01100,-117.7533368
1.01150,-135.149418
1.01200,-139.7273341
1.01250,-136.3701956
1.01300,-129.6559187
1.01350,-118.9741144
1.01400,-100.9676443
1.01450,-77.16248055
1.01500,-53.66251116
1.01550,-33.82487466
1.01600,-13.37684934
1.01650,8.291953608
1.01700,25.68803485
1.01750,33.92828385
1.01800,38.81139438
1.01850,45.83086576
1.01900,45.83086576
1.01950,25.07764603
1.02000,-10.32490526
1.02050,-33.82487466
1.02100,-27.41579209
1.02150,0.05170459981
1.02200,28.43478452
1.02250,53.15553154
1.02300,78.79186179
1.02350,104.1229976
1.02400,122.1294677
1.02450,130.6749111
1.02500,136.7787993
1.02550,144.4086594
1.02600,149.29177
1.02650,143.4930762
1.02700,123.6554397
1.02750,91.91522132
1.02800,52.54514272
1.02850,11.03870328
1.02900,-28.33137532
1.02950,-64.95470424
1.03000,-97.30531146
1.03050,-124.1624193
1.03100,-145.5260279
1.03150,-162.0065259
1.03200,-174.824691
1.03250,-184.8961065
1.03300,-192.5259667
1.03350,-195.8831051
1.03400,-193.7467443
1.03450,-188.253245
1.03500,-180.0129959
1.03550,-164.7532756
1.03600,-135.7598068
1.03650,-92.72739534
1.03700,-44.50667892
1.03750,-0.2534898079
1.03800,37.28542234
1.03850,70.55161278
1.03900,101.376248
1.03950,131.8956887
1.04000,161.1943519
1.04050,183.778738
1.04100,195.6813199
1.04150,202.3955969
1.04200,212.4670124
1.04250,221.3176502
1.04300,212.4670124
1.04350,181.0319884
1.04400,142.2722986
1.04450,113.2788299
1.04500,93.44119336
1.04550,72.99316804
1.04600,49.49319865
1.04650,27.21400689
1.04700,5.240009531
1.04750,-21.31190394
1.04800,-50.91576149
1.04850,-75.94170292
1.04900,-94.25336738
1.04950,-109.8182822
1.05000,-123.8572249
1.05050,-131.1818907
1.05100,-127.2143634
1.05150,-114.3961983
1.05200,-100.0520611
1.05250,-90.59103449
1.05300,-86.01311837
1.05350,-79.60403581
1.05400,-65.56509306
1.05450,-46.94823419
1.05500,-31.6885138
1.05550,-20.70151512
1.05600,-6.967766777
1.05650,12.25948091
1.05700,31.18153419
1.05750,44.61008812
1.05800,56.81786443
1.05850,72.07758482
1.05900,88.25288843
1.05950,102.5970256
1.06000,113.5840243
1.06050,115.4151907
1.06100,100.7658591
1.06150,75.4347233
1.06200,58.64903088
1.06250,57.42825325
1.06300,54.98669799
1.06350,36.36983912
1.06400,12.25948091
1.06450,3.408843085
1.06500,11.9542865
1.06550,24.77245162
1.06600,36.67503352
1.06650,51.93475391
1.06700,68.41525192
1.06750,75.12952889
1.06800,66.27889107
1.06850,46.13606016
1.06900,21.11011873
1.06950,0.05170459981
1.07000,-4.831405923
1.07050,9.817925646
1.07100,29.35036774
1.07150,38.20100556
1.07200,40.64256082
1.07250,50.10358746
1.07300,62.31136377
1.07350,62.31136377
1.07400,48.88280983
1.07450,35.14906149
1.07500,23.24647959
1.07550,-0.5586842156
1.07600,-39.6235684
1.07650,-78.38325818
1.07700,-106.7663381
1.07750,-130.8766963
1.07800,-157.1234154
1.07850,-177.2662463
1.07900,-183.3701344
1.07950,-181.8441624
1.08000,-182.4545512
1.08050,-184.5909121
1.08100,-182.1493568
1.08150,-171.7727469
1.08200,-154.9870545
1.08250,-130.2663075
1.08300,-97.00011705
1.08350,-60.98717694
1.08400,-32.60409702
1.08450,-17.03918223
1.08500,-8.493738816
1.08550,2.798454269
1.08600,21.72050755
1.08650,43.99969931
1.08700,65.97369666
1.08750,89.47366606
1.08800,115.1099963
1.08850,136.1684104
1.08900,147.7657979
1.08950,158.4476022
1.09000,177.9800443
1.09050,202.0904025
1.09100,216.4345397
1.09150,217.6553173
1.09200,216.7397341
1.09250,219.7916781
1.09300,219.7916781
1.09350,210.0254571
1.09400,188.967043
1.09450,153.8696861
1.09500,100.4606647
1.09550,35.7594503
1.09600,-30.77293058
1.09650,-101.5780332
1.09700,-181.538968
1.09750,-257.5323755
1.09800,-303.3115367
1.09850,-314.6037297
1.09900,-314.9089241
1.09950,-324.3699508
1.10000,-337.7985047
1.10050,-340.5452544
1.10100,-324.9803396
1.10150,-289.2725939
1.10200,-232.5064341
1.10250,-163.8376923
1.10300,-99.1364779
1.10350,-43.89629011
1.10400,6.460787162
1.10450,55.5970868
1.10500,103.8178032
1.10550,152.0385196
1.10600,192.6293759
1.10650,200.8696249
1.10700,162.7203239
1.10750,107.1749417
1.10800,78.79186179
1.10850,81.53861146
1.10900,80.62302823
1.10950,60.17500292
1.11000,44.30489372
1.11050,51.32436509
1.11100,66.58408548
1.11150,74.51914008
1.11200,83.98016672
1.11250,102.2918312
1.11300,112.0580522
1.11350,95.57755421
1.11400,61.39578055
1.11450,23.55167399
1.11500,-21.92229275
1.11550,-81.43520226
1.11600,-140.3377229
1.11650,-183.3701344
1.11700,-218.1622969
1.11750,-259.9739308
1.11800,-305.1427031
1.11850,-337.4933103
1.11900,-350.6166698
1.11950,-343.2920041
1.12000,-309.1102304
1.12050,-256.3115979
1.12100,-214.499964
1.12150,-198.9350492
1.12200,-184.8961065
1.12250,-137.5909733
1.12300,-62.20795457
1.12350,7.9867592
1.12400,62.00616936
1.12450,117.2463572
1.12500,183.1683492
1.12550,247.2591748
1.12600,296.3954745
1.12650,330.8824425
1.12700,348.2785238
1.12750,342.7850244
1.12800,317.4538886
1.12850,278.3890044
1.12900,215.213762
1.12950,115.4151907
1.13000,1.577676638
1.13050,-76.55209173
1.13100,-103.1040052
1.13150,-116.5325591
1.13200,-155.9026377
1.13250,-206.8701038
1.13300,-225.4869627
1.13350,-198.6298548
1.13400,-149.4935552
1.13450,-100.0520611
1.13500,-49.69498386
1.13550,4.934815123
1.13600,58.95422529
1.13650,103.8178032
1.13700,140.1359377
1.13750,171.5709617
1.13800,199.9540416
1.13850,223.454011
1.13900,240.8500923
1.13950,253.0578686
1.14000,264.9604505
1.14050,274.7266715
1.14100,268.317589
1.14150,232.9150377
1.14200,176.1488778
1.14250,123.0450509
1.14300,87.3373052
1.14350,60.17500292
1.14400,32.40231182
1.14450,8.291953608
1.14500,-13.07165493
1.14550,-48.77940063
1.14600,-100.0520611
1.14650,-136.6753901
1.14700,-131.4870851
1.14750,-103.1040052
1.14800,-92.72739534
1.14850,-106.1559493
1.14900,-103.714394
1.14950,-56.71445523
1.15000,16.22700821
1.15050,77.87627856
1.15100,113.2788299
1.15150,134.0320496
1.15200,147.1554091
1.15250,145.6294371
1.15300,123.9606341
1.15350,93.13599895
1.15400,70.24641837
1.15450,58.03864206
1.15500,41.86333845
1.15550,8.902342423
1.15600,-35.6560411
1.15650,-73.50014766
1.15700,-92.11700653
1.15750,-92.42220093
1.15800,-80.51961903
1.15850,-61.59756576
1.15900,-41.45473485
1.15950,-27.7209865
1.16000,-21.00670953
1.16050,-13.68204375
1.16100,0.05170459981
1.16150,16.83739702
1.16200,26.29842366
1.16250,20.19453551
1.16300,2.798454269
1.16350,-11.54568289
1.16400,-10.01971085
1.16450,2.493259861
1.16500,5.240009531
1.16550,-14.90282138
1.16600,-46.94823419
1.16650,-67.3962595
1.16700,-66.17548187
1.16750,-46.33784537
1.16800,-10.01971085
1.16850,36.36983912
1.16900,76.35030653
1.16950,96.18794303
1.17000,107.4801361
1.17050,131.5904943
1.17100,164.2462959
1.17150,175.538489
1.17200,152.0385196
1.17250,119.382718
1.17300,113.2788299
1.17350,137.0839937
1.17400,158.7527966
1.17450,147.4606035
1.17500,105.6489697
1.17550,62.31136377
1.17600,34.84386708
1.17650,5.240009531
1.17700,-53.66251116
1.17750,-133.0130572
1.17800,-187.9480505
1.17850,-192.8311611
1.17900,-171.4675525
1.17950,-159.5649706
1.18000,-160.1753594
1.18050,-156.2078321
1.18100,-148.577972
1.18150,-147.0519999
1.18200,-139.7273341
1.18250,-112.5650318
1.18300,-94.25336738
1.18350,-135.149418
1.18400,-234.0324061
1.18450,-320.4024235
1.18500,-332.6101998
1.18550,-282.2531225
1.18600,-215.7207416
1.18650,-144.3052502
1.18700,-50.61056708
1.18750,59.5646141
1.18800,153.5644917
1.18850,216.4345397
1.18900,266.1812281
1.18950,312.5707781
1.19000,340.0382748
1.19050,341.2590524
1.19100,338.8174971
1.19150,346.4473573
1.19200,338.5123027
1.19250,285.1032814
1.19300,203.6163745
1.19350,144.4086594
1.19400,129.1489391
1.19450,137.3891881
1.19500,148.6813812
1.19550,165.1618792
1.19600,188.6618486
1.19650,206.973513
1.19700,214.2981788
1.19750,223.454011
1.19800,242.0708699
1.19850,250.3111189
1.19900,222.5384278
1.19950,157.2268246
1.20000,70.85680719
1.20050,-23.44826479
1.20100,-123.5520305
1.20150,-227.6233235
1.20200,-328.9478669
1.20250,-419.2854116
1.20300,-487.0385701
1.20350,-525.4930655
1.20400,-538.9216194
1.20450,-534.9540921
1.20500,-509.3177619
1.20550,-453.1619908
1.20600,-373.5062504
1.20650,-292.6297324
1.20700,-220.9090466
1.20750,-154.0714713
1.20800,-97.00011705
1.20850,-64.03912102
1.20900,-46.94823419
1.20950,-14.90282138
1.21000,34.53867267
1.21050,59.5646141
1.21100,28.43478452
1.21150,-26.80540328
1.21200,-48.16901182
1.21250,-21.92229275
1.21300,16.53220262
1.21350,38.50619997
1.21400,51.32436509
1.21450,73.29836245
1.21500,106.2593585
1.21550,141.3567154
1.21600,171.8761561
1.21650,193.5449591
1.21700,202.7007913
1.21750,200.2592361
1.21800,187.4410709
1.21850,160.2787686
1.21900,111.7528578
1.21950,47.05164339
1.22000,-19.48073749
1.22050,-78.99364699
1.22100,-133.0130572
1.22150,-180.9285792
1.22200,-215.7207416
1.22250,-231.8960453
1.22300,-238.3051278
1.22350,-248.3765433
1.22400,-264.8570413
1.22450,-268.2141798
1.22500,-228.8441012
1.22550,-132.7078628
1.22600,-2.389850662
1.22650,117.2463572
1.22700,190.7982094
1.22750,208.1942907
1.22800,177.9800443
1.22850,112.3632466
1.22900,30.87633978
1.22950,-39.6235684
1.23000,-81.43520226
1.23050,-99.44167231
1.23100,-109.5130878
1.23150,-115.3117815
1.23200,-106.1559493
1.23250,-77.77286936
1.23300,-44.50667892
1.23350,-21.92229275
1.23400,-7.578155593
1.23450,14.39584176
1.23500,53.15553154
1.23550,94.05158217
1.23600,112.0580522
1.23650,91.61002691
1.23700,45.83086576
1.23750,8.597148015
1.23800,4.629620715
1.23850,26.29842366
1.23900,46.44125457
1.23950,56.81786443
1.24000,76.96069534
1.24050,120.6034956
1.24100,168.8242121
1.24150,198.1228752
1.24200,213.3825956
1.24250,227.4215383
1.24300,220.7072614
1.24350,155.0904637
1.24400,34.84386708
1.24450,-81.43520226
1.24500,-148.2727775
1.24550,-179.4026071
1.24600,-216.9415193
1.24650,-272.4869015
1.24700,-318.571257
1.24750,-325.5907284
1.24800,-286.5258442
1.24850,-213.2791864
1.24900,-123.8572249
1.24950,-28.94176413
1.25000,73.60355686
1.25050,182.252766
1.25100,268.0123946
1.25150,299.1422241
1.25200,292.7331416
1.25250,308.6032508
1.25300,369.3369379
1.25350,421.5251816
1.25400,400.1615731
1.25450,312.2655837
1.25500,220.402067
1.25550,164.2462959
1.25600,132.8112719
1.25650,100.7658591
1.25700,57.73344766
1.25750,2.798454269
1.25800,-58.24042727
1.25850,-110.1234766
1.25900,-145.5260279
1.25950,-182.7597456
1.26000,-244.7142104
1.26050,-321.9283955
1.26100,-375.6426113
1.26150,-380.5257218
1.26200,-341.1556432
1.26250,-277.6752064
1.26300,-210.5324367
1.26350,-157.4286098
1.26400,-124.7728082
1.26450,-102.4936164
1.26500,-80.51961903
1.26550,-61.59756576
1.26600,-48.16901182
1.26650,-30.77293058
1.26700,-11.54568289
1.26750,-20.39632072
1.26800,-73.50014766
1.26850,-133.9286404
1.26900,-145.5260279
1.26950,-100.9676443
1.27000,-41.45473485
1.27050,7.9867592
1.27100,59.5646141
1.27150,117.856746
1.27200,162.4151295
1.27250,186.5254877
1.27300,213.68779
1.27350,261.603312
1.27400,315.3175278
1.27450,353.7720231
1.27500,374.8304373
1.27550,373.6096596
1.27600,328.1356929
1.27650,234.4410097
1.27700,127.3177726
1.27750,46.13606016
1.27800,-2.389850662
1.27850,-31.38331939
1.27900,-46.03265096
1.27950,-45.11706774
1.28000,-31.07812499
1.28050,4.934815123
1.28100,80.31783383
1.28150,186.5254877
1.28200,283.8825038
1.28250,342.7850244
1.28300,370.2525211
1.28350,371.7784932
1.28400,328.4408873
1.28450,238.7137314
1.28500,144.7138539
1.28550,83.67497231
1.28600,36.67503352
1.28650,-33.21448584
1.28700,-121.1104753
1.28750,-191.6103834
1.28800,-238.3051278
1.28850,-282.2531225
1.28900,-328.9478669
1.28950,-361.2984741
1.29000,-375.0322225
1.29050,-381.1361106
1.29100,-388.155582
1.29150,-400.3633583
1.29200,-425.9996886
1.29250,-464.4541839
1.29300,-498.3307632
1.29350,-519.6943717
1.29400,-544.1099243
1.29450,-580.7332533
1.29500,-606.6747779
1.29550,-599.3501121
1.29600,-564.8631441
1.29650,-517.5580109
1.29700,-449.1944635
1.29750,-347.2595314
1.29800,-224.5713795
1.29850,-104.0195884
1.29900,12.25948091
1.29950,134.0320496
1.30000,254.5838406
1.30050,357.434356
1.30100,435.5641244
1.30150,488.6679513
1.30200,507.5900046
1.30250,479.5121191
1.30300,407.1810445
1.30350,315.3175278
1.30400,231.3890656
1.30450,163.6359071
1.30500,98.32430388
1.30550,25.68803485
1.30600,-34.74045788
1.30650,-62.20795457
1.30700,-74.72092529
1.30750,-106.1559493
1.30800,-138.5065565
1.30850,-119.5845032
1.30900,-81.43520226
1.30950,-153.7662769
1.31000,-394.2594702
1.31050,-661.9149657
1.31100,-754.3888712
1.31150,-631.7007193
1.31200,-416.2334675
1.31250,-195.8831051
1.31300,59.86980851
1.31350,382.7654919
1.31400,712.0702578
1.31450,968.1283658
1.31500,1141.173595
1.31550,1258.063053
1.31600,1310.251297
1.31650,1266.608497
1.31700,1125.913875
1.31750,920.8232326
1.31800,681.550817
1.31850,423.9667369
1.31900,164.2462959
1.31950,-77.77286936
1.32000,-288.0518163
1.32050,-456.2139349
1.32100,-575.5449483
1.32150,-640.2461628
1.32200,-650.3175782
1.32250,-614.9150269
1.32300,-551.4345901
1.32350,-467.506128
1.32400,-349.3958922
1.32450,-180.3181904
1.32500,23.24647959
1.32550,219.7916781
1.32600,382.155103
1.32650,510.9471431
1.32700,604.6418263
1.32750,645.8430713
1.32800,626.0054348
1.32850,562.2198036
1.32900,472.4926477
1.32950,354.6876063
1.33000,201.1748193
1.33050,21.41531314
1.33100,-164.1428867
1.33150,-340.8504488
1.33200,-496.4995967
1.33250,-620.1033318
1.33300,-707.083738
1.33350,-759.5771762
1.33400,-781.5511735
1.33450,-776.0576742
1.33500,-744.9278446
1.33550,-679.6162414
1.33600,-567.9150881
1.33650,-413.4867178
1.33700,-239.8310999
1.33750,-64.64950983
1.33800,112.668441
1.33850,278.3890044
1.33900,387.9537968
1.33950,411.7589606
1.34000,380.3239366
1.34050,345.8369685
1.34100,315.9279166
1.34150,256.4150071
1.34200,152.343714
1.34250,29.35036774
1.34300,-80.51961903
1.34350,-167.8052196
1.34400,-233.1168229
1.34450,-274.0128735
1.34500,-288.3570107
1.34550,-277.6752064
1.34600,-248.9869321
1.34650,-220.9090466
1.34700,-215.7207416
1.34750,-227.3181291
1.34800,-219.3830745
1.34850,-168.110414
1.34900,-93.33778416
1.34950,-28.94176413
1.35000,23.24647959
1.35050,81.84380586
1.35100,141.9671042
1.35150,182.5579604
1.35200,198.733264
1.35250,204.5319578
1.35300,203.0059857
1.35350,187.4410709
1.35400,163.0255183
1.35450,142.2722986
1.35500,121.5190789
1.35550,83.3697779
1.35600,29.65556215
1.35650,-16.42879342
1.35700,-42.06512366
1.35750,-57.01964964
1.35800,-75.3313141
1.35850,-100.6624499
1.35900,-132.4026683
1.35950,-164.4480812
1.36000,-173.9091078
1.36050,-133.0130572
1.36100,-45.11706774
1.36150,49.49319865
1.36200,116.6359683
1.36250,156.6164358
1.36300,184.9995157
1.36350,192.6293759
1.36400,153.2592973
1.36450,68.11005752
1.36500,-22.83787598
1.36550,-78.99364699
1.36600,-92.11700653
1.36650,-77.77286936
1.36700,-47.25342859
1.36750,-2.69504507
1.36800,51.93475391
1.36850,110.8372746
1.36900,172.486545
1.36950,233.8306209
1.37000,284.798087
1.37050,315.6227222
1.37100,329.3564705
1.37150,331.4928314
1.37200,313.7915557
1.37250,261.9085064
1.37300,179.8112107
1.37350,94.96716539
1.37400,33.31789504
1.37450,-0.5586842156
1.37500,-17.34437664
1.37550,-25.58462565
1.37600,-24.97423683
1.37650,-14.59762697
1.37700,0.9672878229
1.37750,15.31142498
1.37800,24.77245162
1.37850,34.23347826
1.37900,45.22047694
1.37950,45.52567135
1.38000,23.24647959
1.38050,-13.37684934
1.38100,-48.16901182
1.38150,-83.2663687
1.38200,-136.9805845
1.38250,-204.1233542
1.38300,-246.8505712
1.38350,-236.4739614
1.38400,-184.8961065
1.38450,-118.3637256
1.38500,-41.75992926
1.38550,48.57761542
1.38600,143.1878818
1.38650,226.5059551
1.38700,296.3954745
1.38750,354.3824119
1.38800,397.4148234
1.38850,435.25893
1.38900,482.8692576
1.38950,517.6614201
1.39000,475.5445918
1.39050,324.47336
1.39100,121.2138845
1.39150,-37.18201314
1.39200,-111.3442542
1.39250,-130.2663075
1.39300,-132.4026683
1.39350,-129.3507243
1.39400,-124.4676137
1.39450,-122.9416417
1.39500,-123.2468361
1.39550,-120.194892
1.39600,-118.3637256
1.39650,-124.4676137
1.39700,-134.2338348
1.39750,-144.6104447
1.39800,-165.05847
1.39850,-198.9350492
1.39900,-227.928518
1.39950,-238.6103222
1.40000,-241.9674607
1.40050,-247.46096
1.40100,-244.7142104
1.40150,-227.928518
1.40200,-219.9934634
1.40250,-237.3895446
1.40300,-253.8700426
1.40350,-230.980462
1.40400,-165.05847
1.40450,-84.79234074
1.40500,-7.578155593
1.40550,67.4996687
1.40600,139.5255489
1.40650,199.9540416
1.40700,240.2397035
1.40750,248.1747581
1.40800,212.4670124
1.40850,140.4411321
1.40900,60.78539173
1.40950,-3.000239477
1.41000,-50.91576149
1.41050,-88.14947923
1.41100,-116.5325591
1.41150,-142.1688894
1.41200,-169.6363861
1.41250,-188.253245
1.41300,-185.8116897
1.41350,-173.9091078
1.41400,-167.5000252
1.41450,-152.2403048
1.41500,-106.4611437
1.41550,-48.16901182
1.41600,-14.59762697
1.41650,-3.305433885
1.41700,11.03870328
1.41750,20.19453551
1.41800,1.272482231
1.41850,-9.714516447
1.41900,50.10358746
1.41950,173.4021282
1.42000,286.0188646
1.42050,358.0447448
1.42100,426.4082922
1.42150,493.5510619
1.42200,497.2133947
1.42250,413.590127
1.42300,307.992862
1.42350,239.3241202
1.42400,189.8826262
1.42450,121.5190789
1.42500,34.84386708
1.42550,-64.64950983
1.42600,-191.9155778
1.42650,-329.5582557
1.42700,-422.6425501
1.42750,-460.1814622
1.42800,-495.2788191
1.42850,-551.1293957
1.42900,-570.3566434
1.42950,-506.8762066
1.43000,-398.2269975
1.43050,-305.4478975
1.43100,-234.0324061
1.43150,-169.6363861
1.43200,-130.8766963
1.43250,-129.0455299
1.43300,-128.7403355
1.43350,-96.38972823
1.43400,-53.05212234
1.43450,-29.55215295
1.43500,-12.46126612
1.43550,20.19453551
1.43600,54.37630917
1.43650,67.19447429
1.43700,71.16200159
1.43750,79.4022506
1.43800,71.16200159
1.43850,30.87633978
1.43900,-6.66257237
1.43950,-2.389850662
1.44000,30.57114537
1.44050,52.85033713
1.44100,59.5646141
1.44150,72.99316804
1.44200,94.35677658
1.44250,106.8697473
1.44300,110.5320802
1.44350,119.9931068
1.44400,134.337244
1.44450,140.7463266
1.44500,144.7138539
1.44550,163.0255183
1.44600,197.5124864
1.44650,236.882565
1.44700,278.3890044
1.44750,325.999332
1.44800,371.1681044
1.44850,395.8888514
1.44900,399.2459899
1.44950,392.8369073
1.45000,379.7135478
1.45050,349.194107
1.45100,300.0578074
1.45150,247.8695637
1.45200,206.3631242
1.45250,170.6553785
1.45300,129.1489391
1.45350,80.62302823
1.45400,31.18153419
1.45450,-16.12359901
1.45500,-57.63003846
1.45550,-82.35078548
1.45600,-86.31831278
1.45650,-92.72739534
1.45700,-138.5065565
1.45750,-236.168767
1.45800,-360.9932797
1.45850,-475.746377
1.45900,-554.1813398
1.45950,-576.1553371
1.46000,-524.8826766
1.46050,-405.8568576
1.46100,-253.8700426
1.46150,-107.3767269
1.46200,22.63609077
1.46250,145.3242427
1.46300,265.2656449
1.46350,370.86291
1.46400,445.025151
1.46450,472.4926477
1.46500,451.739428
1.46550,399.5511843
1.46600,332.4084146
1.46650,242.0708699
1.46700,111.7528578
1.46750,-37.18201314
1.46800,-148.577972
1.46850,-188.8636338
1.46900,-185.2013009
1.46950,-181.538968
1.47000,-188.8636338
1.47050,-195.5779107
1.47100,-200.1558269
1.47150,-204.4285486
1.47200,-201.6817989
1.47250,-192.2207723
1.47300,-196.1882996
1.47350,-223.9609907
1.47400,-254.4804314
1.47450,-267.603791
1.47500,-275.2336511
1.47550,-292.324538
1.47600,-301.7855646
1.47650,-279.2011784
1.47700,-230.980462
1.47750,-170.8571637
1.47800,-87.233896
1.47850,21.41531314
1.47900,101.6814424
1.47950,93.44119336
1.48000,14.70103617
1.48050,-53.35731675
1.48100,-71.66898121
1.48150,-68.00664832
1.48200,-61.59756576
1.48250,-22.83787598
1.48300,68.72044633
1.48350,179.8112107
1.48400,270.7591442
1.48450,350.4148846
1.48500,438.0056797
1.48550,510.0315599
1.48600,530.4795852
1.48650,507.895199
1.48700,478.9017303
1.48750,444.7199566
1.48800,373.914854
1.48850,263.4344784
1.48900,152.343714
1.48950,73.90875126
1.49000,26.60361807
1.49050,-2.389850662
1.49100,-19.17554309
1.49150,-32.60409702
1.49200,-59.4612049
1.49250,-103.4091996
1.49300,-151.0195272
1.49350,-201.3766045
1.49400,-272.1817071
1.49450,-370.1491119
1.49500,-468.1165168
1.49550,-526.7138431
1.49600,-532.2073424
1.49650,-496.8047911
1.49700,-438.8178537
1.49750,-371.3698896
1.49800,-303.9219255
1.49850,-243.4934327
1.49900,-198.3246604
1.49950,-176.6558575
1.50000,-179.7078015
1.50050,-194.0519387
1.50100,-199.8506324
1.50150,-200.1558269
1.50200,-219.9934634
1.50250,-274.9284567
1.50300,-342.3764208
1.50350,-376.5581945
1.50400,-351.8374475
1.50450,-281.9479281
1.50500,-203.8181597
1.50550,-142.1688894
1.50600,-93.33778416
1.50650,-37.79240196
1.50700,32.09711741
1.50750,109.0061081
1.50800,187.4410709
1.50850,274.7266715
1.50900,371.1681044
1.50950,455.4017609
1.51000,504.8432549
1.51050,519.7977809
1.51100,511.8627263
1.51150,481.3432855
1.51200,423.3563481
1.51250,352.2460511
1.51300,285.1032814
1.51350,213.9929844
1.51400,122.7398565
1.51450,33.92828385
1.51500,-4.221017108
1.51550,18.36336906
1.51600,59.25941969
1.51650,80.92822264
1.51700,94.96716539
1.51750,124.2658285
1.51800,155.3956581
1.51850,157.8372134
1.51900,130.3697167
1.51950,96.79833184
1.52000,72.07758482
1.52050,48.57761542
1.52100,15.00623058
1.52150,-32.90929143
1.52200,-87.84428482
1.52250,-128.7403355
1.52300,-139.4221397
1.52350,-133.9286404
1.52400,-143.6948614
1.52450,-168.4156085
1.52500,-170.2467749
1.52550,-125.9935858
1.52600,-62.51314898
1.52650,-14.90282138
1.52700,16.22700821
1.52750,46.74644898
1.52800,69.33083515
1.52850,64.14253022
1.52900,33.01270063
1.52950,-5.441794739
1.53000,-38.09759636
1.53050,-53.96770556
1.53100,-40.23395722
1.53150,1.882871046
1.53200,47.05164339
1.53250,76.35030653
1.53300,102.5970256
1.53350,148.0709923
1.53400,206.3631242
1.53450,253.6682574
1.53500,277.4734212
1.53550,285.4084758
1.53600,287.8500311
1.53650,290.2915863
1.53700,286.9344478
1.53750,257.0253959
1.53800,187.1358765
1.53850,101.9866368
1.53900,47.6620322
1.53950,39.11658879
1.54000,50.40878187
1.54050,64.75291903
1.54100,95.88274862
1.54150,145.3242427
1.54200,177.0644611
1.54250,161.8047407
1.54300,117.856746
1.54350,78.79186179
1.54400,48.57761542
1.54450,16.53220262
1.54500,-11.54568289
1.54550,-24.66904242
1.54600,-31.6885138
1.54650,-41.14954044
1.54700,-34.74045788
1.54750,8.597148015
1.54800,73.60355686
1.54850,124.5710229
1.54900,152.343714
1.54950,174.3177114
1.55000,196.2917088
1.55050,203.0059857
1.55100,184.9995157
1.55150,149.29177
1.55200,100.4606647
1.55250,32.70750622
1.55300,-51.5261503
1.55350,-139.4221397
1.55400,-220.2986578
1.55450,-297.8180373
1.55500,-378.0841665
1.55550,-459.8762678
1.55600,-540.4475914
1.55650,-620.4085263
1.55700,-701.2850443
1.55750,-779.1096183
1.55800,-842.2848607
1.55850,-873.7198846
1.55900,-856.018609
1.55950,-785.8238952
1.56000,-679.6162414
1.56050,-563.6423664
1.56100,-454.9931573
1.56150,-358.8569189
1.56200,-276.1492344
1.56250,-206.259715
1.56300,-142.7792782
1.56350,-78.38325818
1.56400,-15.51321019
1.56450,37.59061675
1.56500,81.23341705
1.56550,126.7073838
1.56600,180.4215996
1.56650,236.5773706
1.56700,286.324059
1.56750,324.1681656
1.56800,344.6161909
1.56850,344.3109965
1.56900,329.6616649
1.56950,314.4019445
1.57000,300.0578074
1.57050,276.2526436
1.57100,239.6293146
1.57150,204.2267634
1.57200,182.252766
1.57250,170.6553785
1.57300,160.5839631
1.57350,154.4800749
1.57400,162.1099351
1.57450,189.2722374
1.57500,235.9669818
1.57550,294.564308
1.57600,348.2785238
1.57650,384.9018527
1.57700,418.1680432
1.57750,478.5965359
1.57800,575.9535519
1.57850,685.8235387
1.57900,779.5182219
1.57950,847.2713804
1.58000,886.641459
1.58050,882.6739317
1.58100,822.2454389
1.58150,709.3235081
1.58200,554.5899434
1.58250,362.3174665
1.58300,140.1359377
1.58350,-89.98064567
1.58400,-304.2271199
1.58450,-486.7333757
1.58500,-627.4279976
1.58550,-721.4278752
1.58600,-776.668063
1.58650,-805.6615317
1.58700,-805.6615317
1.58750,-766.5966475
1.58800,-695.4863506
1.58850,-616.440999
1.58900,-536.7852585
1.58950,-446.4477139
1.59000,-347.8699202
1.59050,-262.7206804
1.59100,-199.2402436
1.59150,-149.7987496
1.59200,-129.6559187
1.59250,-174.824691
1.59300,-272.4869015
1.59350,-342.9868097
1.59400,-319.4868403
1.59450,-219.6882689
1.59500,-102.188422
1.59550,15.00623058
1.59600,148.0709923
1.59650,284.4928926
1.59700,381.5447142
1.59750,422.7459593
1.59800,428.544653
1.59850,414.5057103
1.59900,374.5252428
1.59950,312.2655837
1.60000,252.4474798
1.60050,208.8046795
1.60100,174.6229058
1.60150,144.103465
1.60200,127.0125782
1.60250,125.4866062
1.60300,127.9281614
1.60350,127.622967
1.60400,136.7787993
1.60450,164.2462959
1.60500,200.8696249
1.60550,233.5254265
1.60600,259.4669511
1.60650,274.1162827
1.60700,260.3825344
1.60750,201.1748193
1.60800,97.71391506
1.60850,-32.29890262
1.60900,-169.9415805
1.60950,-301.4803702
1.61000,-420.2009948
1.61050,-519.0839829
1.61100,-588.6683079
1.61150,-622.8500815
1.61200,-635.9734411
1.61250,-654.5902999
1.61300,-680.5318246
1.61350,-672.2915756
1.61400,-583.7851973
1.61450,-420.8113836
1.61500,-234.0324061
1.61550,-61.59756576
1.61600,97.10352625
1.61650,250.3111189
1.61700,387.0382136
1.61750,496.2978115
1.61800,582.6678289
1.61850,645.2326825
1.61900,660.1872085
1.61950,613.1872697
1.62000,529.8691964
1.62050,450.213456
1.62100,380.629131
1.62150,295.7850857
1.62200,181.9475716
1.62250,54.98669799
1.62300,-63.12353779
1.62350,-171.7727469
1.62400,-272.1817071
1.62450,-350.9218643
1.62500,-391.2075261
1.62550,-394.869859
1.62600,-378.9997498
1.62650,-353.6686139
1.62700,-316.1297018
1.62750,-266.3830133
1.62800,-217.5519081
1.62850,-181.538968
1.62900,-155.9026377
1.62950,-133.3182516
1.63000,-116.5325591
1.63050,-113.7858095
1.63100,-123.8572249
1.63150,-133.623446
1.63200,-130.5715019
1.63250,-110.7338654
1.63300,-72.88975884
1.63350,-19.48073749
1.63400,36.98022793
1.63450,85.20094435
1.63500,128.2333558
1.63550,178.2852387
1.63600,231.3890656
1.63650,269.2331722
1.63700,286.0188646
1.63750,297.3110577
1.63800,304.9409179
1.63850,280.2201709
1.63900,202.3955969
1.63950,94.66197099
1.64000,1.882871046
1.64050,-62.51314898
1.64100,-114.3961983
1.64150,-156.2078321
1.64200,-168.4156085
1.64250,-144.6104447
1.64300,-110.1234766
1.64350,-91.50661771
1.64400,-86.01311837
1.64450,-76.55209173
1.64500,-52.44173352
1.64550,-12.46126612
1.64600,47.35683779
1.64650,127.0125782
1.64700,212.4670124
1.64750,284.1876982
1.64800,326.6097208
1.64850,332.1032202
1.64900,297.0058633
1.64950,228.0319272
1.65000,141.051521
1.65050,50.71397628
1.65100,-37.48720755
1.65150,-123.2468361
1.65200,-200.4610213
1.65250,-266.9934021
1.65300,-330.4738389
1.65350,-394.5646646
1.65400,-446.7529083
1.65450,-470.2528777
1.65500,-466.5905448
1.65550,-454.0775741
1.65600,-436.9866872
1.65650,-399.1425807
1.65700,-328.6426725
1.65750,-240.4414887
1.65800,-157.1234154
1.65850,-83.87675752
1.65900,-7.88335
1.65950,76.04511212
1.66000,158.1424078
1.66050,223.7592054
1.66100,269.5383666
1.66150,301.5837794
1.66200,333.3239978
1.66250,372.0836876
1.66300,412.3693494
1.66350,440.4472349
1.66400,451.1290392
1.66450,452.0446224
1.66500,448.0770951
1.66550,432.5121803
1.66600,396.1940458
1.66650,334.8499698
1.66700,246.648786
1.66750,143.1878818
1.66800,65.36330785
1.66850,50.40878187
1.66900,70.24641837
1.66950,39.7269776
1.67000,-79.60403581
1.67050,-215.7207416
1.67100,-258.1427643
1.67150,-177.8766351
1.67200,-37.18201314
1.67250,98.62949829
1.67300,210.0254571
1.67350,288.4604199
1.67400,316.8434998
1.67450,295.4798913
1.67500,249.0903413
1.67550,192.9345703
1.67600,117.2463572
1.67650,18.05817465
1.67700,-83.87675752
1.67750,-169.0259973
1.67800,-233.7272117
1.67850,-277.370012
1.67900,-293.85051
1.67950,-290.1881771
1.68000,-285.3050666
1.68050,-282.2531225
1.68100,-265.7726245
1.68150,-236.4739614
1.68200,-227.6233235
1.68250,-262.415486
1.68300,-317.6556738
1.68350,-352.4478363
1.68400,-356.720558
1.68450,-349.7010866
1.68500,-340.24006
1.68550,-317.9608682
1.68600,-279.8115673
1.68650,-240.1362943
1.68700,-206.8701038
1.68750,-170.2467749
1.68800,-122.9416417
1.68850,-78.38325818
1.68900,-48.47420622
1.68950,-19.48073749
1.69000,30.87633978
1.69050,98.01910947
1.69100,145.0190483
1.69150,142.577493
1.69200,98.62949829
1.69250,42.77892168
1.69300,-0.8638786233
1.69350,-26.19501446
1.69400,-36.26642992
1.69450,-41.45473485
1.69500,-53.66251116
1.69550,-70.75339799
1.69600,-68.61703713
1.69650,-25.58462565
1.69700,48.27242102
1.69750,120.6034956
1.69800,174.6229058
1.69850,219.7916781
1.69900,264.6552561
1.69950,292.4279472
1.70000,286.9344478
1.70050,257.6357847
1.70100,229.5578992
1.70150,210.9410403
1.70200,191.7137926
1.70250,170.9605729
1.70300,160.5839631
1.70350,159.9735742
1.70400,148.9865756
1.70450,114.8048019
1.70500,75.4347233
1.70550,51.32436509
1.70600,30.57114537
1.70650,-21.31190394
1.70700,-120.5000864
1.70750,-237.9999334
1.70800,-331.0842278
1.70850,-382.0516938
1.70900,-407.6880241
1.70950,-433.0191599
1.71000,-463.2334063
1.71050,-477.5775435
1.71100,-444.0061586
1.71150,-342.3764208
1.71200,-177.5714407
1.71250,18.05817465
1.71300,200.2592361
1.71350,330.8824425
1.71400,399.2459899
1.71450,419.3888208
1.71500,409.0122109
1.71550,373.6096596
1.71600,311.3500005
1.71650,226.8111495
1.71700,130.9801055
1.71750,33.92828385
1.71800,-55.18848319
1.71850,-123.8572249
1.71900,-162.0065259
1.71950,-169.3311917
1.72000,-150.103944
1.72050,-109.2078934
1.72100,-54.88328879
1.72150,2.493259861
1.72200,59.5646141
1.72250,117.856746
1.72300,169.7397953
1.72350,195.0709311
1.72400,188.6618486
1.72450,166.3826568
1.72500,140.4411321
1.72550,102.2918312
1.72600,47.05164339
1.72650,-6.967766777
1.72700,-46.94823419
1.72750,-90.8962289
1.72800,-162.0065259
1.72850,-246.5453768
1.72900,-309.1102304
1.72950,-337.1881159
1.73000,-339.9348656
1.73050,-311.8569801
1.73100,-238.6103222
1.73150,-134.5390292
1.73200,-41.14954044
1.73250,21.11011873
1.73300,72.07758482
1.73350,131.5904943
1.73400,194.7657367
1.73450,246.9539804
1.73500,286.0188646
1.73550,311.6551949
1.73600,318.0642774
1.73650,304.6357235
1.73700,283.8825038
1.73750,262.8240896
1.73800,235.0513985
1.73850,194.4605423
1.73900,148.3761867
1.73950,101.9866368
1.74000,46.44125457
1.74050,-29.24695854
1.74100,-118.9741144
1.74150,-198.019466
1.74200,-245.0194048
1.74250,-260.889514
1.74300,-263.0258748
1.74350,-263.3310692
1.74400,-247.46096
1.74450,-187.9480505
1.74500,-76.55209173
1.74550,62.61655818
1.74600,193.8501535
1.74650,296.3954745
1.74700,371.4732988
1.74750,423.9667369
1.74800,452.6550112
1.74850,454.4861777
1.74900,428.8498474
1.74950,380.629131
1.75000,315.9279166
1.75050,238.1033426
1.75100,145.6294371
1.75150,37.89581115
1.75200,-68.61703713
1.75250,-147.9675831
1.75300,-189.4740226
1.75350,-211.1428255
1.75400,-234.9479893
1.75450,-261.4999028
1.75500,-279.5063729
1.75550,-290.7985659
1.75600,-308.805036
1.75650,-329.2530613
1.75700,-330.1686445
1.75750,-305.7530919
1.75800,-280.7271505
1.75850,-275.84404
1.75900,-280.4219561
1.75950,-276.7596232
1.76000,-274.6232623
1.76050,-295.6816765
1.76100,-328.3374781
1.76150,-339.9348656
1.76200,-330.7790333
1.76250,-339.3244768
1.76300,-379.6101386
1.76350,-408.9088017
1.76400,-378.0841665
1.76450,-288.6622051
1.76500,-178.1818295
1.76550,-66.17548187
1.76600,51.6295595
1.76650,175.538489
1.76700,290.5967807
1.76750,387.9537968
1.76800,469.1355092
1.76850,534.1419181
1.76900,578.3951072
1.76950,594.5704108
1.77000,575.0379687
1.77050,514.609476
1.77100,423.3563481
1.77150,324.7785544
1.77200,224.6747887
1.77250,105.9541641
1.77300,-32.60409702
1.77350,-152.5454993
1.77400,-219.3830745
1.77450,-252.9544594
1.77500,-299.6492038
1.77550,-366.486779
1.77600,-414.7074955
1.77650,-418.9802172
1.77700,-395.4802478
1.77750,-365.8763902
1.77800,-329.2530613
1.77850,-280.1167617
1.77900,-231.5908508
1.77950,-200.4610213
1.78000,-184.2857177
1.78050,-165.05847
1.78100,-128.435141
1.78150,-73.80534206
1.78200,-8.493738816
1.78250,54.07111476
1.78300,100.1554703
1.78350,123.9606341
1.78400,129.4541335
1.78450,119.6879124
1.78500,91.61002691
1.78550,45.52567135
1.78600,-3.9158227
1.78650,-35.04565229
1.78700,-36.26642992
1.78750,-15.51321019
1.78800,8.291953608
1.78850,24.16206281
1.78900,33.92828385
1.78950,41.86333845
1.79000,42.16853286
1.79050,25.99322925
1.79100,1.272482231
1.79150,-8.798933224
1.79200,8.597148015
1.79250,47.35683779
1.79300,93.44119336
1.79350,143.7982706
1.79400,204.5319578
1.79450,278.9993932
1.79500,362.9278554
1.79550,441.973207
1.79600,496.2978115
1.79650,510.9471431
1.79700,496.6030059
1.79750,479.5121191
1.79800,469.4407036
1.79850,444.4147622
1.79900,380.9343254
1.79950,285.4084758
1.80000,178.8956275
1.80050,67.4996687
1.80100,-55.18848319
1.80150,-178.4870239
1.80200,-271.8765127
1.80250,-317.045285
1.80300,-323.1491732
1.80350,-301.7855646
1.80400,-248.6817377
1.80450,-157.4286098
1.80500,-42.37031807
1.80550,65.97369666
1.80600,149.29177
1.80650,213.9929844
1.80700,277.4734212
1.80750,341.8694412
1.80800,384.2914639
1.80850,378.4927701
1.80900,324.7785544
1.80950,246.0383972
1.81000,159.3631854
1.81050,60.78539173
1.81100,-52.13653912
1.81150,-160.4805539
1.81200,-244.1038216
1.81250,-307.8894528
1.81300,-366.1815846
1.81350,-413.4867178
1.81400,-439.4282425
1.81450,-462.0126287
1.81500,-510.5385395
1.81550,-575.5449483
1.81600,-602.7072506
1.81650,-547.7722572
1.81700,-419.590606
1.81750,-256.3115979
1.81800,-90.28584008
1.81850,56.81786443
1.81900,168.8242121
1.81950,239.9345091
1.82000,282.6617261
1.82050,305.5513067
1.82100,300.3630018
1.82150,254.2786462
1.82200,169.1294065
1.82250,62.31136377
1.82300,-41.75992926
1.82350,-124.1624193
1.82400,-181.538968
1.82450,-229.45449
1.82500,-281.9479281
1.82550,-328.0322837
1.82600,-344.2075873
1.82650,-324.9803396
1.82700,-289.8829827
1.82750,-257.2271811
1.82800,-233.4220173
1.82850,-219.6882689
1.82900,-216.0259361
1.82950,-214.1947696
1.83000,-205.9545206
1.83050,-194.0519387
1.83100,-184.8961065
1.83150,-170.2467749
1.83200,-136.6753901
1.83250,-86.9287016
1.83300,-35.6560411
1.83350,10.42831446
1.83400,54.98669799
1.83450,99.85027592
1.83500,147.1554091
1.83550,206.3631242
1.83600,279.9149765
1.83650,349.194107
1.83700,391.9213241
1.83750,410.538183
1.83800,422.1355705
1.83850,430.0706251
1.83900,427.3238754
1.83950,414.8109047
1.84000,396.8044346
1.84050,370.5577155
1.84100,335.1551643
1.84150,305.2461123
1.84200,284.4928926
1.84250,246.0383972
1.84300,169.1294065
1.84350,82.14900027
1.84400,36.06464471
1.84450,34.84386708
1.84500,33.01270063
1.84550,4.0192319
1.84600,-29.24695854
1.84650,-41.45473485
1.84700,-39.01317959
1.84750,-39.6235684
1.84800,-39.01317959
1.84850,-27.11059769
1.84900,-12.76646052
1.84950,-8.798933224
1.85000,-10.32490526
1.85050,-11.54568289
1.85100,-25.27943124
1.85150,-67.09106509
1.85200,-124.1624193
1.85250,-166.2792476
1.85300,-184.8961065
1.85350,-195.2727163
1.85400,-206.8701038
1.85450,-208.0908815
1.85500,-190.3896058
1.85550,-158.9545818
1.85600,-112.5650318
1.85650,-29.85734735
1.85700,106.5645529
1.85750,282.0513373
1.85800,458.7588994
1.85850,611.0509088
1.85900,734.3494495
1.85950,829.8752991
1.86000,891.2193751
1.86050,911.0570116
1.86100,882.6739317
1.86150,800.2714416
1.86200,660.4924029
1.86250,469.7458981
1.86300,243.5968419
1.86350,-4.831405923
1.86400,-265.1622357
1.86450,-521.2203438
1.86500,-748.5901775
1.86550,-919.8042402
1.86600,-1018.076839
1.86650,-1040.356031
1.86700,-997.3236198
1.86750,-907.2912695
1.86800,-790.0966169
1.86850,-662.2201601
1.86900,-531.5969536
1.86950,-396.395831
1.87000,-257.2271811
1.87050,-132.4026683
1.87100,-57.63003846
1.87150,-53.96770556
1.87200,-103.4091996
1.87250,-158.9545818
1.87300,-181.538968
1.87350,-156.818221
1.87400,-87.53909041
1.87450,13.48025854
1.87500,126.7073838
1.87550,228.0319272
1.87600,302.804557
1.87650,345.5317741
1.87700,356.5187728
1.87750,344.0058021
1.87800,325.6941376
1.87850,311.9603893
1.87900,293.6487248
1.87950,255.4994238
1.88000,207.2787074
1.88050,179.8112107
1.88100,185.9150989
1.88150,198.733264
1.88200,181.3371828
1.88250,130.3697167
1.88300,78.48666738
1.88350,58.95422529
1.88400,72.68797363
1.88450,90.69444369
1.88500,86.72691639
1.88550,65.05811344
1.88600,52.23994832
1.88650,63.83733581
1.88700,89.77886046
1.88750,118.1619404
1.88800,154.7852693
1.88850,206.3631242
1.88900,252.4474798
1.88950,256.4150071
1.89000,205.1423466
1.89050,115.4151907
1.89100,6.765981569
1.89150,-107.6819213
1.89200,-207.4804926
1.89250,-258.1427643
1.89300,-245.6297936
1.89350,-192.5259667
1.89400,-134.5390292
1.89450,-89.06506245
1.89500,-54.57809438
1.89550,-23.7534592
1.89600,12.86986972
1.89650,58.64903088
1.89700,92.22041573
1.89750,83.06458349
1.89800,35.7594503
1.89850,-9.714516447
1.89900,-37.18201314
1.89950,-86.01311837
1.90000,-190.9999946
1.90050,-316.1297018
1.90100,-394.869859
1.90150,-415.9282731
1.90200,-429.0516326
1.90250,-462.9282119
1.90300,-486.4281813
1.90350,-462.9282119
1.90400,-400.3633583
1.90450,-330.7790333
1.90500,-264.2466525
1.90550,-188.8636338
1.90600,-93.94817297
1.90650,17.44778584
1.90700,131.8956887
1.90750,230.4734824
1.90800,300.3630018
1.90850,343.3954133
1.90900,369.3369379
1.90950,378.4927701
1.91000,366.2849938
1.91050,332.713609
1.91100,277.4734212
1.91150,193.2397647
1.91200,84.89574994
1.91250,-12.46126612
1.91300,-63.12353779
1.91350,-70.14300917
1.91400,-66.78587069
1.91450,-70.14300917
1.91500,-68.61703713
1.91550,-60.98717694
1.91600,-68.92223154
1.91650,-107.6819213
1.91700,-167.1948308
1.91750,-231.8960453
1.91800,-298.1232317
1.91850,-363.1296406
1.91900,-415.0126899
1.91950,-443.7009642
1.92000,-442.4801866
1.92050,-397.0062198
1.92100,-298.4284261
1.92150,-171.4675525
1.92200,-61.29237135
1.92250,15.31142498
1.92300,80.92822264
1.92350,145.0190483
1.92400,181.6423772
1.92450,175.8436834
1.92500,160.5839631
1.92550,170.6553785
1.92600,188.0514597
1.92650,174.3177114
1.92700,138.6099657
1.92750,129.7593279
1.92800,162.7203239
1.92850,196.5969032
1.92900,198.4280696
1.92950,183.4735436
1.93000,180.726794
1.93050,188.3566542
1.93100,190.1878206
1.93150,190.1878206
1.93200,204.8371522
1.93250,233.8306209
1.93300,261.2981176
1.93350,282.6617261
1.93400,302.1941682
1.93450,308.9084452
1.93500,278.6941988
1.93550,202.7007913
1.93600,100.7658591
1.93650,-2.389850662
1.93700,-103.4091996
1.93750,-212.6687976
1.93800,-324.3699508
1.93850,-408.6036073
1.93900,-436.3762984
1.93950,-412.2659402
1.94000,-368.3179455
1.94050,-332.3050054
1.94100,-302.3959534
1.94150,-265.7726245
1.94200,-223.6557962
1.94250,-185.2013009
1.94300,-141.863695
1.94350,-70.44820358
1.94400,34.23347826
1.94450,145.6294371
1.94500,234.7462041
1.94550,302.804557
1.94600,369.0317435
1.94650,436.4797076
1.94700,483.174452
1.94750,485.6160073
1.94800,441.3628181
1.94850,364.4538274
1.94900,271.9799219
1.94950,175.538489
1.95000,80.62302823
1.95050,-12.15607171
1.95100,-105.5455605
1.95150,-194.9675219
1.95200,-260.2791252
1.95250,-273.7076791
1.95300,-229.45449
1.95350,-158.0389986
1.95400,-105.5455605
1.95450,-89.67545126
1.95500,-86.9287016
1.95550,-65.25989865
1.95600,-22.83787598
1.95650,20.80492432
1.95700,54.07111476
1.95750,80.31783383
1.95800,102.2918312
1.95850,118.7723292
1.95900,140.4411321
1.95950,188.3566542
1.96000,269.843561
1.96050,362.6226609
1.96100,423.6615425
1.96150,416.9472655
1.96200,335.1551643
1.96250,208.8046795
1.96300,90.69444369
1.96350,18.05817465
1.96400,-8.798933224
1.96450,-11.54568289
1.96500,-6.052183554
1.96550,-1.779461846
1.96600,-14.90282138
1.96650,-53.66251116
1.96700,-96.69492264
1.96750,-116.8377535
1.96800,-124.7728082
1.96850,-155.9026377
1.96900,-206.8701038
1.96950,-226.0973515
1.97000,-184.5909121
1.97050,-120.194892
1.97100,-86.01311837
1.97150,-81.13000785
1.97200,-68.31184273
1.97250,-37.79240196
1.97300,-9.104127631
1.97350,10.42831446
1.97400,35.7594503
1.97450,67.4996687
1.97500,86.72691639
1.97550,81.84380586
1.97600,58.95422529
1.97650,21.41531314
1.97700,-36.57162432
1.97750,-109.2078934
1.97800,-177.8766351
1.97850,-234.0324061
1.97900,-283.1687057
1.97950,-327.1167005
1.98000,-361.6036685
1.98050,-386.62961
1.98100,-395.7854422
1.98150,-364.6556126
1.98200,-276.7596232
1.98250,-163.5324979
1.98300,-83.2663687
1.98350,-54.27289997
1.98400,-38.09759636
1.98450,-6.357377962
1.98500,15.31142498
1.98550,-9.714516447
1.98600,-73.19495325
1.98650,-129.9611131
1.98700,-159.870165
1.98750,-180.3181904
1.98800,-210.8376311
1.98850,-247.1557656
1.98900,-275.84404
1.98950,-298.4284261
1.99000,-322.2335899
1.99050,-342.6816152
1.99100,-348.480309
1.99150,-342.9868097
1.99200,-344.8179761
1.99250,-359.1621133
1.99300,-358.24653
1.99350,-305.1427031
1.99400,-198.019466
1.99450,-74.41573088
1.99500,29.35036774
1.99550,110.2268858
1.99600,186.2202933
1.99650,271.0643386
1.99700,368.1161603
1.99750,471.5770645
1.99800,561.9146092
1.99850,614.4080473
1.99900,624.7846572
1.99950,614.1028529
2.00000,599.1483269
2.00050,571.9860246
2.00100,516.135448
2.00150,431.9017915
2.00200,328.1356929
2.00250,214.2981788
2.00300,105.6489697
2.00350,24.77245162
2.00400,-25.88982005
2.00450,-77.77286936
2.00500,-153.4610825
2.00550,-232.2012397
2.00600,-276.1492344
2.00650,-284.6946778
2.00700,-292.324538
2.00750,-313.9933409
2.00800,-325.8959228
2.00850,-303.0063422
2.00900,-250.2077097
2.00950,-189.4740226
2.01000,-135.149418
2.01050,-92.72739534
2.01100,-66.48067628
2.01150,-52.74692793
2.01200,-39.31837399
2.01250,-22.53268157
2.01300,-11.54568289
2.01350,-4.221017108
2.01400,28.73997892
2.01450,114.8048019
2.01500,229.5578992
2.01550,307.992862
2.01600,310.4344172
2.01650,264.3500617
2.01700,228.9475104
2.01750,230.7786768
2.01800,250.3111189
2.01850,264.0448673
2.01900,271.9799219
2.01950,283.8825038
2.02000,296.3954745
2.02050,302.804557
2.02100,308.2980564
2.02150,320.5058327
2.02200,330.5772481
2.02250,322.3369991
2.02300,294.8695024
2.02350,261.603312
2.02400,223.7592054
2.02450,163.0255183
2.02500,69.02564074
2.02550,-33.21448584
2.02600,-107.9871157
2.02650,-144.0000558
2.02700,-159.870165
2.02750,-169.3311917
2.02800,-166.584442
2.02850,-147.0519999
2.02900,-124.7728082
2.02950,-109.5130878
2.03000,-82.04559107
2.03050,-14.59762697
2.03100,85.50613876
2.03150,178.8956275
2.03200,235.9669818
2.03250,264.6552561
2.03300,283.5773094
2.03350,296.3954745
2.03400,298.5318353
2.03450,292.7331416
2.03500,275.0318659
2.03550,230.4734824
2.03600,158.1424078
2.03650,87.03211079
2.03700,41.86333845
2.03750,-0.8638786233
2.03800,-87.233896
2.03850,-219.3830745
2.03900,-347.8699202
2.03950,-433.3243543
2.04000,-486.1229869
2.04050,-537.7008418
2.04100,-594.4670016
2.04150,-637.8046075
2.04200,-653.3695223
2.04250,-637.4994131
2.04300,-592.0254463
2.04350,-527.3242319
2.04400,-460.1814622
2.04450,-394.2594702
2.04500,-312.1621745
2.04550,-198.3246604
2.04600,-60.68198253
2.04650,82.45419468
2.04700,223.1488166
2.04750,348.2785238
2.04800,432.8173747
2.04850,462.1160379
2.04900,448.6874839
2.04950,410.2329886
2.05000,338.2071083
2.05050,221.928039
2.05100,78.79186179
2.05150,-60.68198253
2.05200,-187.6428561
2.05250,-303.6167311
2.05300,-395.4802478
2.05350,-444.0061586
2.05400,-455.2983517
2.05450,-442.4801866
2.05500,-393.3438869
2.05550,-292.9349268
2.05600,-175.4350798
2.05650,-100.3572555
2.05700,-78.99364699
2.05750,-58.54562168
2.05800,4.934815123
2.05850,96.49313743
2.05900,171.8761561
2.05950,210.6358459
2.06000,215.8241508
2.06050,196.5969032
2.06100,166.6878512
2.06150,146.2398259
2.06200,145.0190483
2.06250,156.9216302
2.06300,172.7917394
2.06350,189.5774318
2.06400,201.7852081
2.06450,201.4800137
2.06500,190.1878206
2.06550,175.8436834
2.06600,161.8047407
2.06650,148.9865756
2.06700,144.4086594
2.06750,150.5125476
2.06800,150.817742
2.06850,127.3177726
2.06900,87.03211079
2.06950,52.85033713
2.07000,32.09711741
2.07050,14.09064735
2.07100,-5.441794739
2.07150,-24.66904242
2.07200,-44.81187333
2.07250,-64.95470424
2.07300,-72.27937003
2.07350,-58.54562168
2.07400,-43.89629011
2.07450,-54.57809438
2.07500,-85.09753515
2.07550,-105.2403661
2.07600,-107.3767269
2.07650,-116.5325591
2.07700,-156.2078321
2.07750,-219.9934634
2.07800,-281.9479281
2.07850,-317.045285
2.07900,-314.2985353
2.07950,-282.8635113
2.08000,-246.5453768
2.08050,-214.1947696
2.08100,-162.9221091
2.08150,-63.73392661
2.08200,77.26588975
2.08250,222.2332334
2.08300,338.5123027
2.08350,422.4407649
2.08400,484.700424
2.08450,529.564002
2.08500,552.4535825
2.08550,548.1808608
2.08600,513.6938928
2.08650,452.9602056
2.08700,372.0836876
2.08750,273.2006995
2.08800,157.532019
2.08850,39.42178319
2.08900,-60.07159372
2.08950,-133.9286404
2.09000,-194.3571331
2.09050,-248.9869321
2.09100,-285.9154554
2.09150,-294.1557044
2.09200,-281.0323449
2.09250,-263.3310692
2.09300,-249.9025153
2.09350,-244.409016
2.09400,-250.8180985
2.09450,-259.6687364
2.09500,-247.46096
2.09550,-206.8701038
2.09600,-159.5649706
2.09650,-123.2468361
2.09700,-82.35078548
2.09750,-14.90282138
2.09800,62.00616936
2.09850,107.4801361
2.09900,108.0905249
2.09950,93.74638776
2.10000,95.2723598
2.10050,109.9216914
2.10100,114.1944131
2.10150,94.96716539
2.10200,58.64903088
2.10250,23.55167399
2.10300,7.681564792
2.10350,12.86986972
2.10400,25.07764603
2.10450,33.62308945
2.10500,41.86333845
2.10550,54.37630917
2.10600,64.14253022
2.10650,71.77239041
2.10700,99.54508151
2.10750,153.8696861
2.10800,189.8826262
2.10850,155.3956581
2.10900,70.55161278
2.10950,27.21400689
2.11000,87.03211079
2.11050,212.161818
2.11100,316.8434998
2.11150,354.9928008
2.11200,340.6486636
2.11250,298.5318353
2.11300,235.9669818
2.11350,159.057991
2.11400,87.64249961
2.11450,41.86333845
2.11500,14.09064735
2.11550,-28.02618091
2.11600,-107.3767269
2.11650,-201.6817989
2.11700,-258.4479587
2.11750,-250.5129041
2.11800,-202.2921877
2.11850,-156.2078321
2.11900,-126.2987802
2.11950,-110.428671
2.12000,-122.9416417
2.12050,-183.3701344
2.12100,-280.7271505
2.12150,-376.8633889
2.12200,-449.8048524
2.12250,-498.6359576
2.12300,-519.3891773
2.12350,-506.5710122
2.12400,-476.0515714
2.12450,-451.02563
2.12500,-418.064634
2.12550,-341.1556432
2.12600,-218.4674913
2.12650,-90.8962289
2.12700,12.56467532
2.12750,101.6814424
2.12800,184.6943213
2.12850,248.1747581
2.12900,296.0902801
2.12950,364.4538274
2.13000,470.6614813
2.13050,585.4145786
2.13100,673.0053736
2.13150,728.8559502
2.13200,749.9143643
2.13250,702.6092311
2.13300,562.2198036
2.13350,357.7395504
2.13400,150.5125476
2.13450,-24.66904242
2.13500,-162.3117203
2.13550,-259.6687364
2.13600,-317.3504794
2.13650,-352.7530307
2.13700,-382.0516938
2.13750,-395.1750534
2.13800,-375.6426113
2.13850,-335.3569495
2.13900,-301.1751758
2.13950,-277.9804008
2.14000,-253.2596538
2.14050,-227.3181291
2.14100,-213.5843808
2.14150,-211.4480199
2.14200,-203.5129653
2.14250,-183.3701344
2.14300,-162.0065259
2.14350,-145.2208335
2.14400,-124.4676137
2.14450,-90.28584008
2.14500,-46.64303978
2.14550,-5.746989147
2.14600,18.05817465
2.14650,14.70103617
2.14700,-8.798933224
2.14750,-22.83787598
2.14800,2.188065454
2.14850,67.80486311
2.14900,144.7138539
2.14950,204.5319578
2.15000,236.882565
2.15050,247.2591748
2.15100,250.6163133
2.15150,268.9279778
2.15200,319.8954439
2.15250,395.2784626
2.15300,461.2004546
2.15350,480.1225079
2.15400,440.4472349
2.15450,361.7070777
2.15500,272.2851163
2.15550,185.3047101
2.15600,90.08405487
2.15650,-31.07812499
2.15700,-172.6883302
2.15750,-292.9349268
2.15800,-341.4608376
2.15850,-301.4803702
2.15900,-209.3116591
2.15950,-123.5520305
2.16000,-77.16248055
2.16050,-58.24042727
2.16100,-36.87681873
2.16150,-6.967766777
2.16200,7.9867592
2.16250,-9.714516447
2.16300,-56.10406642
2.16350,-118.0585312
2.16400,-194.9675219
2.16450,-286.8310386
2.16500,-375.3374169
2.16550,-433.6295487
2.16600,-451.02563
2.16650,-435.7659096
2.16700,-395.4802478
2.16750,-326.811506
2.16800,-225.7921571
2.16850,-97.61050586
2.16900,41.55814405
2.16950,168.2138232
2.17000,264.6552561
2.17050,326.3045264
2.17100,358.9603281
2.17150,364.148633
2.17200,342.1746356
2.17250,307.0772787
2.17300,274.7266715
2.17350,235.3565929
2.17400,167.29824
2.17450,83.3697779
2.17500,25.07764603
2.17550,-7.578155593
2.17600,-78.38325818
2.17650,-224.2661851
2.17700,-380.8309162
2.17750,-441.5646033
2.17800,-381.1361106
2.17850,-263.3310692
2.17900,-145.5260279
2.17950,-31.07812499
2.18000,77.26588975
2.18050,144.7138539
2.18100,148.3761867
2.18150,121.5190789
2.18200,111.7528578
2.18250,124.2658285
2.18300,130.0645223
2.18350,114.1944131
2.18400,87.03211079
2.18450,57.73344766
2.18500,22.94128518
2.18550,-15.8184046
2.18600,-47.25342859
2.18650,-61.90276016
2.18700,-60.98717694
2.18750,-48.47420622
2.18800,-25.27943124
2.18850,9.207536831
2.18900,58.95422529
2.18950,124.8762173
2.19000,196.5969032
2.19050,247.8695637
2.19100,257.3305903
2.19150,232.9150377
2.19200,206.6683186
2.19250,200.8696249
2.19300,205.1423466
2.19350,199.6488472
2.19400,184.3891269
2.19450,171.5709617
2.19500,160.2787686
2.19550,137.3891881
2.19600,106.2593585
2.19650,90.99963809
2.19700,102.90222
2.19750,118.7723292
2.19800,108.7009137
2.19850,75.4347233
2.19900,47.96722661
2.19950,48.88280983
2.20000,76.65550093
2.20050,117.856746
2.20100,154.7852693
2.20150,166.0774624
2.20200,138.3047713
2.20250,85.81133316
2.20300,38.50619997
2.20350,7.9867592
2.20400,-21.00670953
2.20450,-62.51314898
2.20500,-107.0715325
2.20550,-141.2533062
2.20600,-172.3831358
2.20650,-216.9415193
2.20700,-268.2141798
2.20750,-296.9024541
2.20800,-282.8635113
2.20850,-232.2012397
2.20900,-163.8376923
2.20950,-85.40272956
2.21000,3.408843085
2.21050,91.61002691
2.21100,148.0709923
2.21150,145.3242427
2.21200,92.22041573
2.21250,31.18153419
2.21300,0.05170459981
2.21350,-6.052183554
2.21400,-16.12359901
2.21450,-38.09759636
2.21500,-40.53915162
2.21550,6.460787162
2.21600,83.98016672
2.21650,131.8956887
2.21700,115.7203851
2.21750,66.58408548
2.21800,44.61008812
2.21850,66.58408548
2.21900,88.86327724
2.21950,70.85680719
2.22000,27.8243957
2.22050,0.3568990075
2.22100,-17.64957105
2.22150,-74.72092529
2.22200,-179.4026071
2.22250,-270.655735
2.22300,-288.9673995
2.22350,-246.2401824
2.22400,-197.7142716
2.22450,-169.9415805
2.22500,-149.4935552
2.22550,-126.6039746
2.22600,-115.3117815
2.22650,-134.2338348
2.22700,-189.4740226
2.22750,-267.603791
2.22800,-330.1686445
2.22850,-336.8829215
2.22900,-293.2401212
2.22950,-257.8375699
2.23000,-274.0128735
2.23050,-312.1621745
2.23100,-317.3504794
2.23150,-287.136233
2.23200,-266.3830133
2.23250,-272.1817071
2.23300,-273.4024847
2.23350,-244.7142104
2.23400,-199.545438
2.23450,-156.2078321
2.23500,-115.0065871
2.23550,-70.75339799
2.23600,-30.16254176
2.23650,0.3568990075
2.23700,22.02570195
2.23750,29.04517333
2.23800,16.53220262
2.23850,-1.474267439
2.23900,6.765981569
2.23950,62.61655818
2.24000,156.3112413
2.24050,261.9085064
2.24100,351.9408567
2.24150,405.9602668
2.24200,424.5771257
2.24250,433.4277635
2.24300,455.4017609
2.24350,477.9861471
2.24400,467.6095372
2.24450,417.2524599
2.24500,357.7395504
2.24550,317.759083
2.24600,295.7850857
2.24650,268.9279778
2.24700,221.928039
2.24750,154.1748805
2.24800,83.98016672
2.24850,44.91528253
2.24900,56.51267002
2.24950,96.49313743
2.25000,124.2658285
2.25050,134.9476328
2.25100,164.2462959
2.25150,222.2332334
2.25200,258.5513679
2.25250,215.213762
2.25300,99.2398871
2.25350,-35.04565229
2.25400,-159.5649706
2.25450,-292.6297324
2.25500,-446.4477139
2.25550,-585.9215582
2.25600,-653.9799111
2.25650,-632.0059137
2.25700,-562.7267832
2.25750,-513.2852892
2.25800,-515.7268444
2.25850,-546.856674
2.25900,-560.2852279
2.25950,-537.3956474
2.26000,-491.6164862
2.26050,-429.9672159
2.26100,-345.4283649
2.26150,-243.7986272
2.26200,-150.7143328
2.26250,-71.66898121
2.26300,13.48025854
2.26350,102.2918312
2.26400,152.343714
2.26450,153.5644917
2.26500,171.5709617
2.26550,271.369533
2.26600,422.1355705
2.26650,528.0380299
2.26700,541.4665839
2.26750,493.2458674
2.26800,430.9862083
2.26850,376.6616037
2.26900,338.8174971
2.26950,306.1616955
2.27000,238.1033426
2.27050,106.8697473
2.27100,-44.50667892
2.27150,-144.6104447
2.27200,-189.1688282
2.27250,-240.7466831
2.27300,-326.5063116
2.27350,-396.0906366
2.27400,-400.0581639
2.27450,-353.0582251
2.27500,-299.6492038
2.27550,-259.3635419
2.27600,-230.0648788
2.27650,-210.2272423
2.27700,-187.6428561
2.27750,-141.2533062
2.27800,-73.80534206
2.27850,-14.59762697
2.27900,21.41531314
2.27950,54.68150358
2.28000,97.71391506
2.28050,130.9801055
2.28100,137.9995769
2.28150,133.1164664
2.28200,140.4411321
2.28250,166.0774624
2.28300,207.2787074
2.28350,263.7396729
2.28400,324.1681656
2.28450,365.3694106
2.28500,378.4927701
2.28550,374.5252428
2.28600,356.2135784
2.28650,314.4019445
2.28700,258.8565623
2.28750,223.454011
2.28800,221.928039
2.28850,233.2202321
2.28900,245.122814
2.28950,276.8630324
2.29000,339.1226916
2.29050,405.0446836
2.29100,453.5705944
2.29150,503.0120885
2.29200,571.9860246
2.29250,632.1093229
2.29300,647.6742377
2.29350,631.8041285
2.29400,622.3431019
2.29450,609.5249368
2.29500,544.8237223
2.29550,404.4342948
2.29600,204.5319578
2.29650,-40.84434603
2.29700,-324.3699508
2.29750,-602.7072506
2.29800,-805.0511429
2.29850,-900.8821869
2.29900,-921.6354067
2.29950,-902.7133534
2.30000,-847.1679712
2.30050,-757.1356209
2.30100,-659.4734104
2.30150,-573.7137819
2.30200,-489.4801254
2.30250,-395.1750534
2.30300,-302.7011478
2.30350,-218.7726857
2.30400,-128.1299466
2.30450,-29.55215295
2.30500,39.11658879
2.30550,46.13606016
2.30600,11.03870328
2.30650,-17.34437664
2.30700,-18.56515427
2.30750,-8.798933224
2.30800,-10.63009967
2.30850,-26.50020887
2.30900,-41.75992926
2.30950,-34.13006906
2.31000,9.512731239
2.31050,76.35030653
2.31100,133.7268552
2.31150,156.3112413
2.31200,139.8307433
2.31250,89.16847165
2.31300,17.75298025
2.31350,-46.33784537
2.31400,-77.77286936
2.31450,-80.51961903
2.31500,-81.74039666
2.31550,-94.25336738
2.31600,-105.2403661
2.31650,-107.3767269
2.31700,-107.6819213
2.31750,-111.3442542
2.31800,-111.6494486
2.31850,-104.9351716
2.31900,-91.50661771
2.31950,-64.03912102
2.32000,-17.64957105
2.32050,31.791923
2.32100,70.24641837
2.32150,109.3113026
2.32200,165.1618792
2.32250,213.68779
2.32300,215.213762
2.32350,176.7592667
2.32400,150.5125476
2.32450,163.9411015
2.32500,187.4410709
2.32550,187.4410709
2.32600,170.3501841
2.32650,152.9541029
2.32700,129.7593279
2.32750,96.18794303
2.32800,77.87627856
2.32850,107.4801361
2.32900,175.8436834
2.32950,230.7786768
2.33000,226.2007607
2.33050,167.29824
2.33100,100.4606647
2.33150,60.78539173
2.33200,36.36983912
2.33250,-2.69504507
2.33300,-52.13653912
2.33350,-70.14300917
2.33400,-39.92876281
2.33450,0.9672878229
2.33500,9.512731239
2.33550,-15.20801579
2.33600,-52.44173352
2.33650,-102.7988108
2.33700,-176.3506631
2.33750,-256.6167923
2.33800,-310.331008
2.33850,-324.6751452
2.33900,-301.4803702
2.33950,-231.8960453
2.34000,-111.3442542
2.34050,25.07764603
2.34100,123.9606341
2.34150,169.4346009
2.34200,200.2592361
2.34250,253.6682574
2.34300,321.1162215
2.34350,365.0642162
2.34400,359.2655225
2.34450,304.0253347
2.34500,214.2981788
2.34550,101.376248
2.34600,-28.63656972
2.34650,-166.584442
2.34700,-287.4414275
2.34750,-361.9088629
2.34800,-377.7789721
2.34850,-349.3958922
2.34900,-299.0388149
2.34950,-244.1038216
2.35000,-198.6298548
2.35050,-173.298719
2.35100,-164.1428867
2.35150,-148.2727775
2.35200,-104.6299772
2.35250,-35.6560411
2.35300,35.7594503
2.35350,83.67497231
2.35400,97.10352625
2.35450,94.05158217
2.35500,113.8892187
2.35550,177.6748499
2.35600,257.9409791
2.35650,303.4149459
2.35700,298.8370297
2.35750,277.1682268
2.35800,270.1487554
2.35850,267.0968113
2.35900,239.6293146
2.35950,187.7462653
2.36000,135.863216
2.36050,92.22041573
2.36100,41.55814405
2.36150,-24.97423683
2.36200,-88.75986804
2.36250,-121.4156697
2.36300,-118.9741144
2.36350,-107.6819213
2.36400,-122.6364473
2.36450,-181.538968
2.36500,-270.0453462
2.36550,-346.0387537
2.36600,-371.675084
2.36650,-347.5647258
2.36700,-309.7206192
2.36750,-288.6622051
2.36800,-276.4544288
2.36850,-243.1882383
2.36900,-182.4545512
2.36950,-122.6364473
2.37000,-91.81181212
2.37050,-88.45467363
2.37100,-89.06506245
2.37150,-77.77286936
2.37200,-58.54562168
2.37250,-48.47420622
2.37300,-56.40926082
2.37350,-70.44820358
2.37400,-68.31184273
2.37450,-51.83134471
2.37500,-56.71445523
2.37550,-114.3961983
2.37600,-207.1752982
2.37650,-290.1881771
2.37700,-342.0712264
2.37750,-372.8958616
2.37800,-377.4737777
2.37850,-321.6232011
2.37900,-186.1168841
2.37950,-3.9158227
2.38000,167.6034344
2.38050,297.9214465
2.38100,392.5317129
2.38150,469.4407036
2.38200,528.6484187
2.38250,547.8756664
2.38300,506.6744214
2.38350,422.7459593
2.38400,351.0252735
2.38450,327.8304985
2.38500,325.999332
2.38550,293.3435304
2.38600,220.7072614
2.38650,138.9151601
2.38700,58.95422529
2.38750,-31.99370821
2.38800,-116.2273647
2.38850,-136.9805845
2.38900,-77.46767496
2.38950,0.9672878229
2.39000,35.45425589
2.39050,38.50619997
2.39100,68.11005752
2.39150,137.0839937
2.39200,196.2917088
2.39250,203.6163745
2.39300,170.0449897
2.39350,127.9281614
2.39400,79.09705619
2.39450,2.493259861
2.39500,-95.47414501
2.39550,-164.7532756
2.39600,-162.0065259
2.39650,-110.7338654
2.39700,-77.46767496
2.39750,-87.53909041
2.39800,-97.00011705
2.39850,-60.98717694
2.39900,-0.5586842156
2.39950,29.65556215
2.40000,15.00623058
2.40050,-13.37684934
2.40100,-28.02618091
2.40150,-31.07812499
2.40200,-35.35084669
2.40250,-54.88328879
2.40300,-100.9676443
2.40350,-164.4480812
2.40400,-205.9545206
2.40450,-197.1038828
2.40500,-161.3961371
2.40550,-140.3377229
2.40600,-132.7078628
2.40650,-102.188422
2.40700,-42.37031807
2.40750,13.48025854
2.40800,50.10358746
2.40850,88.25288843
2.40900,133.7268552
2.40950,152.6489085
2.41000,122.7398565
2.41050,76.96069534
2.41100,63.22694699
2.41150,81.53861146
2.41200,91.91522132
2.41250,66.27889107
2.41300,16.22700821
2.41350,-32.60409702
2.41400,-68.61703713
2.41450,-95.47414501
2.41500,-115.9221703
2.41550,-121.7208641
2.41600,-98.22089468
2.41650,-50.61056708
2.41700,-17.03918223
2.41750,-39.01317959
2.41800,-114.3961983
2.41850,-194.0519387
2.41900,-231.8960453
2.41950,-223.9609907
2.42000,-197.7142716
2.42050,-178.7922183
2.42100,-178.7922183
2.42150,-188.253245
2.42200,-183.06494
2.42250,-147.3571943
2.42300,-100.0520611
2.42350,-67.09106509
2.42400,-31.99370821
2.42450,47.35683779
2.42500,159.057991
2.42550,224.9799831
2.42600,202.3955969
2.42650,141.9671042
2.42700,104.428192
2.42750,71.77239041
2.42800,5.545203938
2.42850,-47.86381741
2.42900,-7.578155593
2.42950,106.5645529
2.43000,189.5774318
2.43050,210.3306515
2.43100,261.9085064
2.43150,408.0966277
2.43200,575.9535519
2.43250,654.9989035
2.43300,639.4339887
2.43350,597.9275493
2.43400,554.8951378
2.43450,482.2588688
2.43500,379.7135478
2.43550,289.3760031
2.43600,228.9475104
2.43650,171.8761561
2.43700,100.4606647
2.43750,31.18153419
2.43800,-21.31190394
2.43850,-67.3962595
2.43900,-118.3637256
2.43950,-172.6883302
2.44000,-231.8960453
2.44050,-298.7336205
2.44100,-357.9413356
2.44150,-387.2399988
2.44200,-393.3438869
2.44250,-408.2984129
2.44300,-441.8697978
2.44350,-466.2853504
2.44400,-458.0451014
2.44450,-425.6944941
2.44500,-378.6945554
2.44550,-298.1232317
2.44600,-166.584442
2.44650,-13.98723815
2.44700,98.62949829
2.44750,135.2528272
2.44800,106.2593585
2.44850,45.22047694
2.44900,-18.87034868
2.44950,-68.61703713
2.45000,-91.81181212
2.45050,-82.65597989
2.45100,-44.81187333
2.45150,2.188065454
2.45200,27.8243957
2.45250,17.75298025
2.45300,-0.8638786233
2.45350,13.17506413
2.45400,65.66850226
2.45450,116.0255795
2.45500,135.863216
2.45550,135.2528272
2.45600,121.2138845
2.45650,71.77239041
2.45700,-18.87034868
2.45750,-99.74686672
2.45800,-116.8377535
2.45850,-84.18195193
2.45900,-55.4936776
2.45950,-42.98070689
2.46000,-14.90282138
2.46050,40.94775523
2.46100,106.5645529
2.46150,172.1813505
2.46200,233.5254265
2.46250,255.4994238
2.46300,208.8046795
2.46350,146.8502147
2.46400,167.29824
2.46450,279.9149765
2.46500,378.7979646
2.46550,386.1226303
2.46600,348.2785238
2.46650,343.7006077
2.46700,360.4863001
2.46750,340.6486636
2.46800,286.9344478
2.46850,241.1552867
2.46900,182.252766
2.46950,49.49319865
2.47000,-136.9805845
2.47050,-276.7596232
2.47100,-320.0972291
2.47150,-319.7920347
2.47200,-325.5907284
2.47250,-306.9738695
2.47300,-235.2531837
2.47350,-161.3961371
2.47400,-148.577972
2.47450,-176.9610519
2.47500,-188.253245
2.47550,-189.4740226
2.47600,-237.694739
2.47650,-335.6621439
2.47700,-423.5581333
2.47750,-467.2009336
2.47800,-492.226875
2.47850,-514.8112612
2.47900,-505.3502346
2.47950,-441.2594089
2.48000,-348.7855034
2.48050,-262.415486
2.48100,-183.9805232
2.48150,-109.8182822
2.48200,-61.59756576
2.48250,-56.71445523
2.48300,-59.4612049
2.48350,-8.798933224
2.48400,107.7853305
2.48450,227.7267327
2.48500,270.1487554
2.48550,220.0968726
2.48600,141.9671042
2.48650,110.5320802
2.48700,133.7268552
2.48750,157.2268246
2.48800,140.7463266
2.48850,104.428192
2.48900,89.16847165
2.48950,100.1554703
2.49000,112.0580522
2.49050,109.9216914
2.49100,101.376248
2.49150,95.57755421
2.49200,93.74638776
2.49250,91.91522132
2.49300,82.45419468
2.49350,62.31136377
2.49400,48.88280983
2.49450,68.41525192
2.49500,109.616497
2.49550,121.8242733
2.49600,78.79186179
2.49650,20.49972992
2.49700,-3.000239477
2.49750,-2.389850662
2.49800,-23.44826479
2.49850,-77.16248055
2.49900,-136.0650012
2.49950,-183.9805232
2.50000,-227.6233235
2.50050,-256.9219867
2.50100,-243.4934327
2.50150,-185.8116897
2.50200,-112.5650318
2.50250,-38.70798518
2.50300,48.88280983
2.50350,148.0709923
2.50400,214.6033732
2.50450,206.3631242
2.50500,129.7593279
2.50550,37.89581115
2.50600,-10.63009967
2.50650,12.86986972
2.50700,90.08405487
2.50750,160.8891575
2.50800,177.9800443
2.50850,158.1424078
2.50900,159.9735742
2.50950,204.2267634
2.51000,253.0578686
2.51050,278.9993932
2.51100,310.4344172
2.51150,380.629131
2.51200,463.6420099
2.51250,509.7263655
2.51300,513.3886984
2.51350,507.2848102
2.51400,492.940673
2.51450,438.3108741
2.51500,339.1226916
2.51550,237.1877594
2.51600,158.1424078
2.51650,72.68797363
2.51700,-52.44173352
2.51750,-203.5129653
2.51800,-339.0192824
2.51850,-439.7334369
2.51900,-507.4865954
2.51950,-537.090453
2.52000,-527.6294263
2.52050,-505.0450401
2.52100,-495.8892079
2.52150,-486.4281813
2.52200,-435.1555208
2.52250,-336.2725327
2.52300,-235.5583781
2.52350,-176.9610519
2.52400,-156.2078321
2.52450,-144.9156391
2.52500,-140.9481118
2.52550,-163.8376923
2.52600,-211.7532143
2.52650,-246.5453768
2.52700,-234.9479893
2.52750,-189.4740226
2.52800,-152.2403048
2.52850,-138.8117509
2.52900,-122.6364473
2.52950,-76.85728614
2.53000,-9.714516447
2.53050,54.07111476
2.53100,115.4151907
2.53150,195.3761255
2.53200,297.0058633
2.53250,392.8369073
2.53300,452.0446224
2.53350,459.979677
2.53400,409.3174053
2.53450,298.2266409
2.53500,148.6813812
2.53550,2.493259861
2.53600,-111.0390598
2.53650,-194.3571331
2.53700,-253.5648482
2.53750,-276.7596232
2.53800,-259.0583475
2.53850,-232.2012397
2.53900,-230.0648788
2.53950,-238.3051278
2.54000,-208.7012703
2.54050,-127.8247522
2.54100,-36.87681873
2.54150,29.04517333
2.54200,86.42172198
2.54250,161.4995463
2.54300,240.5448979
2.54350,294.564308
2.54400,331.7980258
2.54450,380.629131
2.54500,424.8823201
2.54550,407.1810445
2.54600,307.6876676
2.54650,179.8112107
2.54700,82.45419468
2.54750,13.78545295
2.54800,-60.98717694
2.54850,-145.8312223
2.54900,-211.7532143
2.54950,-243.4934327
2.55000,-247.7661545
2.55050,-224.8765739
2.55100,-165.6688588
2.55150,-81.43520226
2.55200,-10.93529408
2.55250,9.512731239
2.55300,-22.53268157
2.55350,-88.45467363
2.55400,-164.4480812
2.55450,-227.0129347
2.55500,-256.3115979
2.55550,-247.7661545
2.55600,-212.0584088
2.55650,-162.6169147
2.55700,-101.8832276
2.55750,-25.27943124
2.55800,64.14253022
2.55850,152.9541029
2.55900,226.2007607
2.55950,275.0318659
2.56000,293.6487248
2.56050,282.0513373
2.56100,260.07734
2.56150,264.3500617
2.56200,309.8240284
2.56250,350.1096902
2.56300,307.3824732
2.56350,166.0774624
2.56400,15.9218138
2.56450,-31.07812499
2.56500,33.01270063
2.56550,110.5320802
2.56600,110.5320802
2.56650,43.08411609
2.56700,-24.66904242
2.56750,-61.59756576
2.56800,-83.87675752
2.56850,-100.9676443
2.56900,-94.25336738
2.56950,-57.32484405
2.57000,-22.22748716
2.57050,-16.42879342
2.57100,-28.02618091
2.57150,-29.55215295
2.57200,-21.92229275
2.57250,-24.97423683
2.57300,-34.74045788
2.57350,-27.7209865
2.57400,-6.967766777
2.57450,-9.104127631
2.57500,-54.27289997
2.57550,-117.4481424
2.57600,-163.2273035
2.57650,-187.9480505
2.57700,-202.2921877
2.57750,-196.1882996
2.57800,-152.5454993
2.57850,-79.90923022
2.57900,-7.88335
2.57950,49.18800424
2.58000,96.49313743
2.58050,134.0320496
2.58100,158.1424078
2.58150,180.726794
2.58200,218.2657061
2.58250,260.3825344
2.58300,272.2851163
2.58350,239.0189258
2.58400,180.1164051
2.58450,114.8048019
2.58500,25.99322925
2.58550,-110.428671
2.58600,-277.9804008
2.58650,-416.2334675
2.58700,-469.9476833
2.58750,-440.0386313
2.58800,-377.4737777
2.58850,-334.1361718
2.58900,-318.2660626
2.58950,-304.8375087
2.59000,-282.5583169
2.59050,-266.0778189
2.59100,-261.8050972
2.59150,-247.7661545
2.59200,-211.7532143
2.59250,-184.5909121
2.59300,-201.6817989
2.59350,-244.1038216
2.59400,-255.0908202
2.59450,-215.1103528
2.59500,-160.1753594
2.59550,-122.0260585
2.59600,-83.2663687
2.59650,-10.01971085
2.59700,94.05158217
2.59750,188.967043
2.59800,240.8500923
2.59850,248.7851469
2.59900,234.4410097
2.59950,217.9605117
2.60000,202.0904025
2.60050,185.3047101
2.60100,184.0839324
2.60150,225.5903719
2.60200,314.0967501
2.60250,416.0316823
2.60300,493.8562563
2.60350,526.2068635
2.60400,490.4991178
2.60450,362.6226609
2.60500,164.8566848
2.60550,-21.31190394
2.60600,-137.2857789
2.60650,-208.0908815
2.60700,-285.610261
2.60750,-358.24653
2.60800,-369.8439175
2.60850,-310.331008
2.60900,-222.1298242
2.60950,-131.7922795
2.61000,-41.75992926
2.61050,26.90881248
2.61100,45.52567135
2.61150,40.64256082
2.61200,76.65550093
2.61250,163.0255183
2.61300,238.7137314
2.61350,257.0253959
2.61400,231.0838712
2.61450,182.5579604
2.61500,106.5645529
2.61550,15.00623058
2.61600,-39.31837399
2.61650,-26.19501446
2.61700,24.46725722
2.61750,69.33083515
2.61800,101.6814424
2.61850,134.6424384
2.61900,165.772268
2.61950,186.8306821
2.62000,200.2592361
2.62050,202.0904025
2.62100,177.9800443
2.62150,133.7268552
2.62200,100.7658591
2.62250,94.96716539
2.62300,91.3048325
2.62350,64.14253022
2.62400,21.41531314
2.62450,-16.73398782
2.62500,-52.74692793
2.62550,-92.11700653
2.62600,-125.0780026
2.62650,-140.6429174
2.62700,-151.9351104
2.62750,-176.6558575
2.62800,-210.2272423
2.62850,-233.7272117
2.62900,-244.7142104
2.62950,-254.4804314
2.63000,-265.1622357
2.63050,-264.2466525
2.63100,-245.3245992
2.63150,-217.5519081
2.63200,-191.305189
2.63250,-166.584442
2.63300,-135.149418
2.63350,-93.64297856
2.63400,-48.47420622
2.63450,-9.409322039
2.63500,18.66856347
2.63550,40.94775523
2.63600,66.58408548
2.63650,102.2918312
2.63700,151.7333252
2.63750,208.8046795
2.63800,254.2786462
2.63850,264.6552561
2.63900,231.3890656
2.63950,166.6878512
2.64000,91.91522132
2.64050,29.96075655
2.64100,7.681564792
2.64150,38.20100556
2.64200,94.35677658
2.64250,118.4671348
2.64300,80.62302823
2.64350,16.83739702
2.64400,-9.714516447
2.64450,23.24647959
2.64500,87.03211079
2.64550,141.051521
2.64600,168.2138232
2.64650,175.2332946
2.64700,179.8112107
2.64750,195.9865143
2.64800,218.5709005
2.64850,219.4864837
2.64900,179.5060163
2.64950,119.0775236
2.65000,84.28536113
2.65050,96.79833184
2.65100,128.8437446
2.65150,131.8956887
2.65200,80.92822264
2.65250,-8.798933224
2.65300,-97.00011705
2.65350,-147.6623887
2.65400,-147.9675831
2.65450,-107.9871157
2.65500,-49.08459504
2.65550,14.09064735
2.65600,81.84380586
2.65650,164.5514904
2.65700,261.603312
2.65750,346.7525517
2.65800,380.3239366
2.65850,348.2785238
2.65900,269.2331722
2.65950,157.8372134
2.66000,2.798454269
2.66050,-197.1038828
2.66100,-399.4477751
2.66150,-550.8242013
2.66200,-645.1292733
2.66250,-700.6746555
2.66300,-701.8954331
2.66350,-614.9150269
2.66400,-465.6749616
2.66450,-340.24006
2.66500,-286.5258442
2.66550,-260.5843196
2.66600,-202.2921877
2.66650,-120.5000864
2.66700,-65.87028746
2.66750,-59.4612049
2.66800,-79.90923022
2.66850,-96.38972823
2.66900,-83.2663687
2.66950,-27.41579209
2.67000,47.6620322
2.67050,88.86327724
2.67100,76.04511212
2.67150,58.03864206
2.67200,88.55808283
2.67250,151.7333252
2.67300,195.0709311
2.67350,216.7397341
2.67400,264.0448673
2.67450,350.4148846
2.67500,420.9147928
2.67550,421.2199872
2.67600,355.908384
2.67650,258.5513679
2.67700,142.577493
2.67750,7.681564792
2.67800,-121.1104753
2.67850,-204.1233542
2.67900,-226.0973515
2.67950,-209.6168535
2.68000,-183.3701344
2.68050,-150.7143328
2.68100,-99.1364779
2.68150,-28.94176413
2.68200,30.57114537
2.68250,37.28542234
2.68300,-26.19501446
2.68350,-119.2793088
2.68400,-162.0065259
2.68450,-98.52608909
2.68500,47.6620322
2.68550,192.6293759
2.68600,258.5513679
2.68650,223.7592054
2.68700,123.9606341
2.68750,17.44778584
2.68800,-56.71445523
2.68850,-107.3767269
2.68900,-173.6039134
2.68950,-267.2985965
2.69000,-340.5452544
2.69050,-336.8829215
2.69100,-262.415486
2.69150,-176.3506631
2.69200,-118.3637256
2.69250,-79.2988414
2.69300,-41.45473485
2.69350,-10.01971085
2.69400,13.17506413
2.69450,45.83086576
2.69500,89.47366606
2.69550,112.3632466
2.69600,89.77886046
2.69650,44.61008812
2.69700,18.97375788
2.69750,22.94128518
2.69800,36.06464471
2.69850,43.38931049
2.69900,47.05164339
2.69950,47.6620322
2.70000,36.36983912
2.70050,6.155592754
2.70100,-38.40279077
2.70150,-83.2663687
2.70200,-105.5455605
2.70250,-90.28584008
2.70300,-48.47420622
2.70350,-10.63009967
2.70400,5.545203938
2.70450,8.902342423
2.70500,11.34389768
2.70550,9.207536831
2.70600,-2.389850662
2.70650,-13.37684934
2.70700,-11.8508773
2.70750,0.05170459981
2.70800,15.9218138
2.70850,40.33736642
2.70900,83.06458349
2.70950,137.9995769
2.71000,184.0839324
2.71050,202.7007913
2.71100,189.5774318
2.71150,150.817742
2.71200,97.71391506
2.71250,45.52567135
2.71300,5.240009531
2.71350,-21.61709835
2.71400,-44.20148452
2.71450,-71.97417562
2.71500,-108.2923101
2.71550,-149.7987496
2.71600,-189.779217
2.71650,-218.1622969
2.71700,-223.3506018
2.71750,-197.4090772
2.71800,-147.3571943
2.71850,-90.59103449
2.71900,-42.06512366
2.71950,-7.578155593
2.72000,5.850398346
2.72050,-12.76646052
2.72100,-60.68198253
2.72150,-105.8507549
2.72200,-114.0910039
2.72250,-84.79234074
2.72300,-49.08459504
2.72350,-26.19501446
2.72400,-6.66257237
2.72450,19.58414669
2.72500,42.47372727
2.72550,53.15553154
2.72600,70.85680719
2.72650,119.6879124
2.72700,185.3047101
2.72750,217.6553173
2.72800,182.252766
2.72850,100.1554703
2.72900,33.31789504
2.72950,31.791923
2.73000,89.77886046
2.73050,158.7527966
2.73100,196.5969032
2.73150,206.973513
2.73200,219.1812893
2.73250,243.9020364
2.73300,258.8565623
2.73350,238.408537
2.73400,174.012517
2.73450,73.29836245
2.73500,-43.89629011
2.73550,-141.863695
2.73600,-184.2857177
2.73650,-171.4675525
2.73700,-139.4221397
2.73750,-112.8702262
2.73800,-80.82481344
2.73850,-24.36384802
2.73900,48.57761542
2.73950,112.0580522
2.74000,148.0709923
2.74050,151.7333252
2.74100,131.5904943
2.74150,110.5320802
2.74200,110.8372746
2.74250,124.5710229
2.74300,119.6879124
2.74350,86.42172198
2.74400,49.79839306
2.74450,24.16206281
2.74500,-13.68204375
2.74550,-84.18195193
2.74600,-170.2467749
2.74650,-245.0194048
2.74700,-304.2271199
2.74750,-342.0712264
2.74800,-324.9803396
2.74850,-231.8960453
2.74900,-106.1559493
2.74950,-20.09112631
2.75000,3.408843085
2.75050,11.34389768
2.75100,56.51267002
2.75150,146.5450203
2.75200,253.9734518
2.75250,346.4473573
2.75300,402.6031284
2.75350,415.1160991
2.75400,389.7849632
2.75450,337.5967195
2.75500,264.6552561
2.75550,174.012517
2.75600,68.41525192
2.75650,-48.16901182
2.75700,-165.05847
2.75750,-256.9219867
2.75800,-302.7011478
2.75850,-310.9413968
2.75900,-307.5842584
2.75950,-299.3440094
2.76000,-269.129763
2.76050,-216.6363249
2.76100,-171.4675525
2.76150,-144.6104447
2.76200,-101.8832276
2.76250,-8.188544408
2.76300,110.5320802
2.76350,188.0514597
2.76400,194.1553479
2.76450,160.8891575
2.76500,132.2008831
2.76550,117.5515516
2.76600,105.9541641
2.76650,94.96716539
2.76700,91.3048325
2.76750,94.35677658
2.76800,99.2398871
2.76850,102.90222
2.76900,95.88274862
2.76950,61.39578055
2.77000,-1.169073031
2.77050,-58.54562168
2.77100,-71.97417562
2.77150,-38.40279077
2.77200,15.9218138
2.77250,72.38277923
2.77300,128.5385502
2.77350,174.012517
2.77400,189.8826262
2.77450,171.2657673
2.77500,134.337244
2.77550,94.96716539
2.77600,54.68150358
2.77650,7.376370385
2.77700,-56.40926082
2.77750,-140.3377229
2.77800,-227.6233235
2.77850,-284.6946778
2.77900,-299.3440094
2.77950,-304.2271199
2.78000,-338.1036991
2.78050,-395.1750534
2.78100,-427.2204662
2.78150,-390.9023317
2.78200,-279.8115673
2.78250,-125.9935858
2.78300,9.512731239
2.78350,78.18147297
2.78400,92.52561013
2.78450,115.4151907
2.78500,177.9800443
2.78550,250.9215077
2.78600,306.1616955
2.78650,353.7720231
2.78700,386.4278247
2.78750,354.3824119
2.78800,244.2072308
2.78850,125.4866062
2.78900,55.5970868
2.78950,0.05170459981
2.79000,-96.08453383
2.79050,-210.8376311
2.79100,-294.7660932
2.79150,-358.8569189
2.79200,-418.9802172
2.79250,-415.9282731
2.79300,-294.4608988
2.79350,-131.1818907
2.79400,-62.81834339
2.79450,-99.44167231
2.79500,-120.5000864
2.79550,-55.79887201
2.79600,30.57114537
2.79650,62.92175259
2.79700,49.49319865
2.79750,33.62308945
2.79800,18.36336906
2.79850,-7.578155593
2.79900,-28.94176413
2.79950,-27.7209865
2.80000,-15.20801579
2.80050,-9.104127631
2.80100,-4.526211516
2.80150,10.73350887
2.80200,32.09711741
2.80250,35.14906149
2.80300,-6.052183554
2.80350,-96.08453383
2.80400,-190.3896058
2.80450,-212.0584088
2.80500,-127.2143634
2.80550,8.291953608
2.80600,113.5840243
2.80650,172.7917394
2.80700,226.5059551
2.80750,290.9019751
2.80800,337.2915251
2.80850,347.9733294
2.80900,340.6486636
2.80950,322.6421935
2.81000,276.557838
2.81050,204.8371522
2.81100,142.2722986
2.81150,104.7333864
2.81200,58.34383647
2.81250,-25.27943124
2.81300,-124.7728082
2.81350,-200.1558269
2.81400,-251.4284873
2.81450,-296.2920653
2.81500,-317.9608682
2.81550,-281.3375393
2.81600,-197.7142716
2.81650,-130.8766963
2.81700,-121.4156697
2.81750,-143.389667
2.81800,-150.4091384
2.81850,-139.4221397
2.81900,-138.5065565
2.81950,-155.9026377
2.82000,-163.5324979
2.82050,-137.2857789
2.82100,-79.90923022
2.82150,-6.66257237
2.82200,69.94122396
2.82250,143.4930762
2.82300,204.2267634
2.82350,247.8695637
2.82400,278.08381
2.82450,294.8695024
2.82500,293.6487248
2.82550,276.557838
2.82600,257.6357847
2.82650,249.0903413
2.82700,246.648786
2.82750,239.9345091
2.82800,232.3046489
2.82850,231.0838712
2.82900,231.0838712
2.82950,213.68779
2.83000,162.7203239
2.83050,72.07758482
2.83100,-56.10406642
2.83150,-200.7662157
2.83200,-313.6881465
2.83250,-349.7010866
2.83300,-311.2465913
2.83350,-248.6817377
2.83400,-209.9220479
2.83450,-207.1752982
2.83500,-229.45449
2.83550,-261.8050972
2.83600,-279.5063729
2.83650,-249.2921265
2.83700,-164.1428867
2.83750,-57.01964964
2.83800,36.36983912
2.83850,116.3307739
2.83900,189.8826262
2.83950,233.8306209
2.84000,221.6228446
2.84050,175.2332946
2.84100,148.3761867
2.84150,156.3112413
2.84200,160.8891575
2.84250,133.7268552
2.84300,90.38924928
2.84350,42.47372727
2.84400,-35.04565229
2.84450,-156.5130266
2.84500,-270.0453462
2.84550,-297.5128429
2.84600,-225.7921571
2.84650,-116.2273647
2.84700,-33.21448584
2.84750,4.324426308
2.84800,3.103648677
2.84850,-29.55215295
2.84900,-71.3637868
2.84950,-83.2663687
2.85000,-54.88328879
2.85050,-31.38331939
2.85100,-62.51314898
2.85150,-136.9805845
2.85200,-194.0519387
2.85250,-193.1363555
2.85300,-147.6623887
2.85350,-88.75986804
2.85400,-25.88982005
2.85450,46.44125457
2.85500,125.4866062
2.85550,199.6488472
2.85600,264.0448673
2.85650,319.8954439
2.85700,361.0966889
2.85750,369.9473267
2.85800,337.2915251
2.85850,282.0513373
2.85900,240.8500923
2.85950,229.5578992
2.86000,218.8760949
2.86050,165.772268
2.86100,67.19447429
2.86150,-34.74045788
2.86200,-108.2923101
2.86250,-162.0065259
2.86300,-208.7012703
2.86350,-225.4869627
2.86400,-184.5909121
2.86450,-111.954643
2.86500,-70.75339799
2.86550,-88.45467363
2.86600,-129.3507243
2.86650,-152.5454993
2.86700,-159.2597762
2.86750,-170.5519693
2.86800,-185.2013009
2.86850,-184.8961065
2.86900,-166.584442
2.86950,-145.2208335
2.87000,-134.2338348
2.87050,-135.149418
2.87100,-142.1688894
2.87150,-139.7273341
2.87200,-108.9026989
2.87250,-46.64303978
2.87300,22.63609077
2.87350,71.77239041
2.87400,94.66197099
2.87450,105.6489697
2.87500,118.4671348
2.87550,135.5580216
2.87600,150.2073532
2.87650,145.3242427
2.87700,109.9216914
2.87750,62.31136377
2.87800,43.38931049
2.87850,66.27889107
2.87900,97.10352625
2.87950,105.0385808
2.88000,104.7333864
2.88050,122.7398565
2.88100,142.2722986
2.88150,128.5385502
2.88200,93.13599895
2.88250,85.20094435
2.88300,118.4671348
2.88350,147.7657979
2.88400,130.0645223
2.88450,72.38277923
2.88500,5.850398346
2.88550,-57.01964964
2.88600,-120.8052808
2.88650,-182.1493568
2.88700,-229.1492956
2.88750,-249.5973209
2.88800,-237.3895446
2.88850,-199.2402436
2.88900,-155.5974433
2.88950,-121.7208641
2.89000,-86.01311837
2.89050,-20.09112631
2.89100,80.92822264
2.89150,186.8306821
2.89200,255.1942294
2.89250,268.6227834
2.89300,245.4280084
2.89350,220.402067
2.89400,214.9085676
2.89450,214.6033732
2.89500,188.967043
2.89550,131.2852999
2.89600,58.34383647
2.89650,-24.36384802
2.89700,-128.435141
2.89750,-230.980462
2.89800,-268.8245686
2.89850,-211.7532143
2.89900,-112.8702262
2.89950,-50.61056708
2.90000,-40.23395722
2.90050,-43.28590129
2.90100,-39.92876281
2.90150,-41.75992926
2.90200,-52.13653912
2.90250,-59.76639931
2.90300,-71.97417562
2.90350,-101.2728388
2.90400,-129.3507243
2.90450,-126.909169
2.90500,-108.5975045
2.90550,-115.3117815
2.90600,-141.5585006
2.90650,-133.0130572
2.90700,-70.75339799
2.90750,-6.357377962
2.90800,14.09064735
2.90850,11.9542865
2.90900,24.16206281
2.90950,37.28542234
2.91000,15.00623058
2.91050,-30.77293058
2.91100,-54.57809438
2.91150,-48.77940063
2.91200,-53.05212234
2.91250,-82.35078548
2.91300,-96.08453383
2.91350,-54.27289997
2.91400,24.16206281
2.91450,92.22041573
2.91500,136.7787993
2.91550,180.4215996
2.91600,232.3046489
2.91650,269.5383666
2.91700,275.6422548
2.91750,265.2656449
2.91800,257.6357847
2.91850,249.0903413
2.91900,227.4215383
2.91950,199.0384584
2.92000,179.8112107
2.92050,168.5190177
2.92100,147.4606035
2.92150,111.7528578
2.92200,74.21394567
2.92250,40.64256082
2.92300,-2.389850662
2.92350,-66.17548187
2.92400,-139.7273341
2.92450,-203.8181597
2.92500,-248.0713489
2.92550,-274.9284567
2.92600,-287.136233
2.92650,-286.5258442
2.92700,-274.9284567
2.92750,-258.4479587
2.92800,-244.409016
2.92850,-235.8635726
2.92900,-223.0454074
2.92950,-190.6948002
2.93000,-136.0650012
2.93050,-76.85728614
2.93100,-32.29890262
2.93150,-5.441794739
2.93200,9.207536831
2.93250,12.86986972
2.93300,6.155592754
2.93350,-1.779461846
2.93400,-10.32490526
2.93450,-37.48720755
2.93500,-92.72739534
2.93550,-148.8831664
2.93600,-162.6169147
2.93650,-124.4676137
2.93700,-63.73392661
2.93750,-10.01971085
