type,name,time_units,begin_time,frequency,count,units
signal,"Noraxon Ultium-RT LAT. TRICEPS","s",0.00000,2000,51840,"uV"

time,value
0.00000,-1.214524272
0.00050,-0.9093298644
0.00100,0.006253358679
0.00150,0.6166421741
0.00200,0.9218365818
0.00250,1.532225397
0.00300,2.753003028
0.00350,4.278975066
0.00400,4.278975066
0.00450,3.363391843
0.00500,3.058197436
0.00550,3.058197436
0.00600,2.753003028
0.00650,1.532225397
0.00700,0.3114477664
0.00750,0.3114477664
0.00800,0.6166421741
0.00850,0.3114477664
0.00900,0.3114477664
0.00950,0.9218365818
0.01000,1.227030989
0.01050,0.9218365818
0.01100,0.3114477664
0.01150,0.006253358679
0.01200,0.006253358679
0.01250,-0.6041354567
0.01300,-1.824913088
0.01350,-1.824913088
0.01400,-0.6041354567
0.01450,0.006253358679
0.01500,-0.6041354567
0.01550,-1.51971868
0.01600,-0.9093298644
0.01650,0.006253358679
0.01700,0.6166421741
0.01750,0.006253358679
0.01800,-0.6041354567
0.01850,-0.9093298644
0.01900,-0.9093298644
0.01950,-0.6041354567
0.02000,0.006253358679
0.02050,0.6166421741
0.02100,1.227030989
0.02150,1.227030989
0.02200,1.227030989
0.02250,1.532225397
0.02300,1.532225397
0.02350,1.227030989
0.02400,0.3114477664
0.02450,0.3114477664
0.02500,0.3114477664
0.02550,0.3114477664
0.02600,0.006253358679
0.02650,0.006253358679
0.02700,0.006253358679
0.02750,-0.9093298644
0.02800,-1.51971868
0.02850,-0.9093298644
0.02900,0.006253358679
0.02950,0.3114477664
0.03000,-0.6041354567
0.03050,-1.824913088
0.03100,-1.824913088
0.03150,-1.51971868
0.03200,-1.214524272
0.03250,-1.214524272
0.03300,-0.9093298644
0.03350,-0.298941049
0.03400,-0.6041354567
0.03450,-1.214524272
0.03500,-1.824913088
0.03550,-2.130107495
0.03600,-1.824913088
0.03650,-0.6041354567
0.03700,0.3114477664
0.03750,0.3114477664
0.03800,-0.298941049
0.03850,-1.51971868
0.03900,-1.824913088
0.03950,-0.9093298644
0.04000,0.006253358679
0.04050,-0.298941049
0.04100,-1.214524272
0.04150,-1.51971868
0.04200,-1.51971868
0.04250,-0.9093298644
0.04300,-0.298941049
0.04350,-0.298941049
0.04400,-0.9093298644
0.04450,-1.214524272
0.04500,-1.214524272
0.04550,-1.214524272
0.04600,-1.51971868
0.04650,-2.435301903
0.04700,-3.350885126
0.04750,-3.350885126
0.04800,-2.740496311
0.04850,-2.130107495
0.04900,-1.51971868
0.04950,-0.9093298644
0.05000,0.006253358679
0.05050,0.3114477664
0.05100,0.006253358679
0.05150,-0.298941049
0.05200,-0.9093298644
0.05250,-0.6041354567
0.05300,0.006253358679
0.05350,0.006253358679
0.05400,-0.298941049
0.05450,0.006253358679
0.05500,0.3114477664
0.05550,0.3114477664
0.05600,-0.298941049
0.05650,-0.9093298644
0.05700,-1.51971868
0.05750,-1.824913088
0.05800,-2.130107495
0.05850,-2.130107495
0.05900,-1.214524272
0.05950,0.006253358679
0.06000,0.006253358679
0.06050,-1.51971868
0.06100,-2.740496311
0.06150,-2.435301903
0.06200,-1.214524272
0.06250,0.006253358679
0.06300,0.6166421741
0.06350,1.532225397
0.06400,1.837419805
0.06450,1.532225397
0.06500,0.6166421741
0.06550,1.227030989
0.06600,3.058197436
0.06650,5.19455829
0.06700,6.41533592
0.06750,7.636113551
0.06800,8.551696774
0.06850,8.856891182
0.06900,8.551696774
0.06950,8.246502367
0.07000,8.551696774
0.07050,8.551696774
0.07100,7.025724736
0.07150,5.19455829
0.07200,4.584169474
0.07250,5.19455829
0.07300,5.499752697
0.07350,4.889363882
0.07400,3.973780659
0.07450,3.973780659
0.07500,3.973780659
0.07550,2.753003028
0.07600,1.227030989
0.07650,0.9218365818
0.07700,1.227030989
0.07750,0.9218365818
0.07800,0.006253358679
0.07850,0.006253358679
0.07900,1.532225397
0.07950,2.753003028
0.08000,1.532225397
0.08050,-0.298941049
0.08100,-1.824913088
0.08150,-1.824913088
0.08200,-2.435301903
0.08250,-4.266468349
0.08300,-6.708023611
0.08350,-7.623606834
0.08400,-7.318412426
0.08450,-7.623606834
0.08500,-8.844384465
0.08550,-9.759967688
0.08600,-9.149578872
0.08650,-7.928801242
0.08700,-7.623606834
0.08750,-7.928801242
0.08800,-7.623606834
0.08850,-5.792440388
0.08900,-3.350885126
0.08950,-2.130107495
0.09000,-1.824913088
0.09050,-1.824913088
0.09100,-1.824913088
0.09150,-2.130107495
0.09200,-3.656079534
0.09250,-5.48724598
0.09300,-7.013218018
0.09350,-7.623606834
0.09400,-7.623606834
0.09450,-7.318412426
0.09500,-6.402829203
0.09550,-5.792440388
0.09600,-5.182051572
0.09650,-4.571662757
0.09700,-3.656079534
0.09750,-3.045690718
0.09800,-3.350885126
0.09850,-4.266468349
0.09900,-5.182051572
0.09950,-5.182051572
0.10000,-4.571662757
0.10050,-3.656079534
0.10100,-3.656079534
0.10150,-3.350885126
0.10200,-2.740496311
0.10250,-1.51971868
0.10300,-0.6041354567
0.10350,-0.9093298644
0.10400,-1.214524272
0.10450,-0.9093298644
0.10500,-0.298941049
0.10550,-0.298941049
0.10600,-0.6041354567
0.10650,-0.6041354567
0.10700,-0.6041354567
0.10750,-0.6041354567
0.10800,-0.6041354567
0.10850,-0.298941049
0.10900,0.006253358679
0.10950,0.3114477664
0.11000,0.6166421741
0.11050,0.9218365818
0.11100,0.6166421741
0.11150,-0.298941049
0.11200,-1.824913088
0.11250,-2.740496311
0.11300,-2.435301903
0.11350,-2.435301903
0.11400,-2.435301903
0.11450,-2.435301903
0.11500,-2.435301903
0.11550,-3.350885126
0.11600,-4.266468349
0.11650,-3.961273941
0.11700,-2.130107495
0.11750,-0.6041354567
0.11800,-0.6041354567
0.11850,-1.214524272
0.11900,-1.51971868
0.11950,-1.214524272
0.12000,-1.214524272
0.12050,-1.214524272
0.12100,-0.6041354567
0.12150,0.006253358679
0.12200,0.6166421741
0.12250,0.6166421741
0.12300,0.006253358679
0.12350,-0.9093298644
0.12400,-1.214524272
0.12450,-0.9093298644
0.12500,0.3114477664
0.12550,1.227030989
0.12600,0.9218365818
0.12650,0.006253358679
0.12700,-0.298941049
0.12750,-0.6041354567
0.12800,0.006253358679
0.12850,0.6166421741
0.12900,1.532225397
0.12950,2.44780862
0.13000,3.363391843
0.13050,4.584169474
0.13100,6.110141513
0.13150,7.636113551
0.13200,8.551696774
0.13250,8.551696774
0.13300,7.941307959
0.13350,7.330919144
0.13400,7.025724736
0.13450,7.330919144
0.13500,8.246502367
0.13550,8.551696774
0.13600,7.636113551
0.13650,6.110141513
0.13700,5.19455829
0.13750,4.889363882
0.13800,5.19455829
0.13850,5.804947105
0.13900,6.41533592
0.13950,6.110141513
0.14000,5.19455829
0.14050,4.889363882
0.14100,6.41533592
0.14150,8.551696774
0.14200,9.16208559
0.14250,7.330919144
0.14300,5.19455829
0.14350,3.973780659
0.14400,2.753003028
0.14450,0.9218365818
0.14500,-1.824913088
0.14550,-4.876857165
0.14600,-7.013218018
0.14650,-7.623606834
0.14700,-7.318412426
0.14750,-5.792440388
0.14800,-3.961273941
0.14850,-3.045690718
0.14900,-3.656079534
0.14950,-4.876857165
0.15000,-6.097634795
0.15050,-6.708023611
0.15100,-6.402829203
0.15150,-5.48724598
0.15200,-4.571662757
0.15250,-4.266468349
0.15300,-3.961273941
0.15350,-4.266468349
0.15400,-5.182051572
0.15450,-6.402829203
0.15500,-6.708023611
0.15550,-5.792440388
0.15600,-5.182051572
0.15650,-5.792440388
0.15700,-6.402829203
0.15750,-5.182051572
0.15800,-3.045690718
0.15850,-2.740496311
0.15900,-3.961273941
0.15950,-4.876857165
0.16000,-3.656079534
0.16050,-1.824913088
0.16100,-1.824913088
0.16150,-3.656079534
0.16200,-4.571662757
0.16250,-4.571662757
0.16300,-5.182051572
0.16350,-5.48724598
0.16400,-4.876857165
0.16450,-3.350885126
0.16500,-2.130107495
0.16550,-2.740496311
0.16600,-3.656079534
0.16650,-3.961273941
0.16700,-3.350885126
0.16750,-2.435301903
0.16800,-2.435301903
0.16850,-2.435301903
0.16900,-2.740496311
0.16950,-2.740496311
0.17000,-2.435301903
0.17050,-2.130107495
0.17100,-1.51971868
0.17150,-0.6041354567
0.17200,0.006253358679
0.17250,0.3114477664
0.17300,0.6166421741
0.17350,0.9218365818
0.17400,1.532225397
0.17450,2.142614213
0.17500,2.44780862
0.17550,2.44780862
0.17600,2.753003028
0.17650,3.973780659
0.17700,4.889363882
0.17750,4.584169474
0.17800,3.058197436
0.17850,1.837419805
0.17900,2.753003028
0.17950,4.889363882
0.18000,6.110141513
0.18050,5.804947105
0.18100,5.499752697
0.18150,6.720530328
0.18200,8.856891182
0.18250,9.467279997
0.18300,9.16208559
0.18350,8.856891182
0.18400,9.772474405
0.18450,11.29844644
0.18500,12.82441848
0.18550,13.12961289
0.18600,12.51922407
0.18650,11.60364085
0.18700,11.29844644
0.18750,12.21402967
0.18800,12.82441848
0.18850,12.21402967
0.18900,11.29844644
0.18950,11.29844644
0.19000,11.60364085
0.19050,10.07766881
0.19100,7.330919144
0.19150,4.889363882
0.19200,4.584169474
0.19250,5.19455829
0.19300,5.804947105
0.19350,5.19455829
0.19400,3.363391843
0.19450,1.532225397
0.19500,0.006253358679
0.19550,-0.9093298644
0.19600,-3.045690718
0.19650,-7.318412426
0.19700,-11.89632854
0.19750,-14.0326894
0.19800,-13.42230058
0.19850,-14.0326894
0.19900,-17.38982788
0.19950,-20.13657755
0.20000,-21.05216077
0.20050,-21.967744
0.20100,-25.32488248
0.20150,-28.37682656
0.20200,-28.07163215
0.20250,-25.32488248
0.20300,-22.88332722
0.20350,-20.74696637
0.20400,-17.38982788
0.20450,-13.11710617
0.20500,-10.3703565
0.20550,-9.759967688
0.20600,-8.844384465
0.20650,-8.233995649
0.20700,-8.539190057
0.20750,-10.0651621
0.20800,-10.67555091
0.20850,-10.3703565
0.20900,-10.3703565
0.20950,-10.0651621
0.21000,-7.928801242
0.21050,-4.571662757
0.21100,-3.350885126
0.21150,-3.961273941
0.21200,-3.961273941
0.21250,-2.130107495
0.21300,-0.6041354567
0.21350,-0.6041354567
0.21400,-1.214524272
0.21450,0.006253358679
0.21500,1.837419805
0.21550,2.753003028
0.21600,2.44780862
0.21650,1.532225397
0.21700,0.9218365818
0.21750,1.227030989
0.21800,1.532225397
0.21850,1.227030989
0.21900,0.6166421741
0.21950,0.3114477664
0.22000,1.227030989
0.22050,2.142614213
0.22100,1.837419805
0.22150,1.227030989
0.22200,1.227030989
0.22250,1.227030989
0.22300,0.9218365818
0.22350,0.6166421741
0.22400,1.532225397
0.22450,2.44780862
0.22500,2.142614213
0.22550,1.532225397
0.22600,1.837419805
0.22650,2.142614213
0.22700,1.227030989
0.22750,0.6166421741
0.22800,1.532225397
0.22850,3.668586251
0.22900,3.668586251
0.22950,1.837419805
0.23000,0.006253358679
0.23050,-0.298941049
0.23100,0.006253358679
0.23150,0.006253358679
0.23200,-0.298941049
0.23250,0.006253358679
0.23300,0.6166421741
0.23350,0.9218365818
0.23400,0.6166421741
0.23450,0.9218365818
0.23500,1.837419805
0.23550,3.363391843
0.23600,4.584169474
0.23650,4.584169474
0.23700,4.278975066
0.23750,4.584169474
0.23800,5.499752697
0.23850,5.804947105
0.23900,5.499752697
0.23950,4.584169474
0.24000,4.278975066
0.24050,4.889363882
0.24100,6.110141513
0.24150,7.025724736
0.24200,7.330919144
0.24250,7.025724736
0.24300,6.41533592
0.24350,6.110141513
0.24400,6.41533592
0.24450,6.720530328
0.24500,7.025724736
0.24550,6.720530328
0.24600,7.330919144
0.24650,9.16208559
0.24700,10.68805763
0.24750,10.07766881
0.24800,8.856891182
0.24850,9.16208559
0.24900,10.07766881
0.24950,10.68805763
0.25000,10.38286322
0.25050,10.68805763
0.25100,12.21402967
0.25150,13.4348073
0.25200,13.12961289
0.25250,11.60364085
0.25300,10.07766881
0.25350,8.551696774
0.25400,7.636113551
0.25450,7.025724736
0.25500,5.804947105
0.25550,4.278975066
0.25600,2.142614213
0.25650,1.227030989
0.25700,0.6166421741
0.25750,0.6166421741
0.25800,0.006253358679
0.25850,-1.214524272
0.25900,-3.656079534
0.25950,-5.792440388
0.26000,-6.708023611
0.26050,-5.48724598
0.26100,-4.266468349
0.26150,-5.182051572
0.26200,-7.623606834
0.26250,-8.844384465
0.26300,-8.539190057
0.26350,-6.708023611
0.26400,-4.571662757
0.26450,-2.740496311
0.26500,-1.51971868
0.26550,-0.9093298644
0.26600,0.006253358679
0.26650,1.837419805
0.26700,3.058197436
0.26750,3.668586251
0.26800,4.278975066
0.26850,5.499752697
0.26900,7.330919144
0.26950,7.941307959
0.27000,8.246502367
0.27050,8.856891182
0.27100,9.467279997
0.27150,9.467279997
0.27200,8.246502367
0.27250,7.025724736
0.27300,6.110141513
0.27350,5.499752697
0.27400,5.499752697
0.27450,6.110141513
0.27500,7.636113551
0.27550,9.467279997
0.27600,11.60364085
0.27650,12.51922407
0.27700,11.29844644
0.27750,8.551696774
0.27800,6.41533592
0.27850,6.110141513
0.27900,6.110141513
0.27950,5.19455829
0.28000,3.363391843
0.28050,1.837419805
0.28100,1.837419805
0.28150,2.44780862
0.28200,3.058197436
0.28250,2.142614213
0.28300,0.006253358679
0.28350,-3.045690718
0.28400,-4.876857165
0.28450,-6.708023611
0.28500,-9.45477328
0.28550,-12.50671736
0.28600,-14.0326894
0.28650,-14.0326894
0.28700,-12.81191176
0.28750,-10.3703565
0.28800,-7.318412426
0.28850,-4.266468349
0.28900,-3.961273941
0.28950,-6.402829203
0.29000,-8.844384465
0.29050,-10.0651621
0.29100,-10.67555091
0.29150,-11.89632854
0.29200,-12.81191176
0.29250,-13.42230058
0.29300,-13.11710617
0.29350,-12.20152295
0.29400,-10.3703565
0.29450,-7.928801242
0.29500,-5.182051572
0.29550,-2.130107495
0.29600,0.3114477664
0.29650,3.058197436
0.29700,4.278975066
0.29750,4.889363882
0.29800,5.804947105
0.29850,6.720530328
0.29900,7.025724736
0.29950,7.330919144
0.30000,8.551696774
0.30050,9.467279997
0.30100,9.772474405
0.30150,9.16208559
0.30200,8.246502367
0.30250,7.941307959
0.30300,7.025724736
0.30350,5.804947105
0.30400,5.19455829
0.30450,4.889363882
0.30500,3.973780659
0.30550,2.753003028
0.30600,1.837419805
0.30650,0.9218365818
0.30700,-0.9093298644
0.30750,-3.656079534
0.30800,-4.876857165
0.30850,-3.656079534
0.30900,-1.51971868
0.30950,-0.9093298644
0.31000,-2.130107495
0.31050,-4.876857165
0.31100,-7.623606834
0.31150,-10.0651621
0.31200,-11.59113413
0.31250,-13.42230058
0.31300,-15.55866143
0.31350,-17.38982788
0.31400,-17.69502229
0.31450,-17.38982788
0.31500,-16.47424466
0.31550,-14.94827262
0.31600,-11.89632854
0.31650,-8.233995649
0.31700,-6.708023611
0.31750,-6.708023611
0.31800,-7.013218018
0.31850,-6.097634795
0.31900,-5.792440388
0.31950,-6.708023611
0.32000,-7.013218018
0.32050,-5.792440388
0.32100,-3.961273941
0.32150,-2.740496311
0.32200,-2.130107495
0.32250,-2.130107495
0.32300,-2.130107495
0.32350,-3.045690718
0.32400,-3.045690718
0.32450,-2.435301903
0.32500,-1.214524272
0.32550,-0.9093298644
0.32600,-0.9093298644
0.32650,-0.6041354567
0.32700,-0.298941049
0.32750,0.006253358679
0.32800,0.006253358679
0.32850,0.6166421741
0.32900,0.9218365818
0.32950,0.6166421741
0.33000,0.6166421741
0.33050,1.837419805
0.33100,2.753003028
0.33150,2.142614213
0.33200,0.3114477664
0.33250,0.6166421741
0.33300,3.058197436
0.33350,4.584169474
0.33400,3.363391843
0.33450,1.227030989
0.33500,0.9218365818
0.33550,2.142614213
0.33600,2.44780862
0.33650,2.142614213
0.33700,2.142614213
0.33750,2.142614213
0.33800,1.532225397
0.33850,0.6166421741
0.33900,0.3114477664
0.33950,1.532225397
0.34000,2.44780862
0.34050,3.058197436
0.34100,3.973780659
0.34150,5.19455829
0.34200,5.804947105
0.34250,6.110141513
0.34300,7.025724736
0.34350,8.551696774
0.34400,9.16208559
0.34450,9.467279997
0.34500,10.68805763
0.34550,13.4348073
0.34600,16.18155697
0.34650,16.79194578
0.34700,16.18155697
0.34750,15.87636256
0.34800,15.57116815
0.34850,15.26597374
0.34900,14.96077934
0.34950,14.96077934
0.35000,15.26597374
0.35050,14.35039052
0.35100,12.51922407
0.35150,10.68805763
0.35200,8.856891182
0.35250,8.246502367
0.35300,8.246502367
0.35350,7.941307959
0.35400,6.110141513
0.35450,2.753003028
0.35500,-0.298941049
0.35550,-0.9093298644
0.35600,0.6166421741
0.35650,3.363391843
0.35700,5.499752697
0.35750,7.025724736
0.35800,8.551696774
0.35850,9.467279997
0.35900,8.246502367
0.35950,4.889363882
0.36000,0.6166421741
0.36050,-1.824913088
0.36100,-2.435301903
0.36150,-2.130107495
0.36200,-1.51971868
0.36250,-1.51971868
0.36300,-1.824913088
0.36350,-2.435301903
0.36400,-3.045690718
0.36450,-3.350885126
0.36500,-2.435301903
0.36550,-1.214524272
0.36600,-0.9093298644
0.36650,-1.51971868
0.36700,-1.214524272
0.36750,0.006253358679
0.36800,1.532225397
0.36850,2.142614213
0.36900,2.44780862
0.36950,2.753003028
0.37000,2.44780862
0.37050,0.6166421741
0.37100,-1.824913088
0.37150,-5.48724598
0.37200,-9.45477328
0.37250,-14.94827262
0.37300,-21.05216077
0.37350,-26.2404657
0.37400,-28.68202097
0.37450,-28.68202097
0.37500,-26.85085452
0.37550,-24.40929926
0.37600,-21.66254959
0.37650,-18.91579992
0.37700,-16.47424466
0.37750,-14.3378838
0.37800,-12.50671736
0.37850,-11.28593973
0.37900,-10.3703565
0.37950,-9.759967688
0.38000,-9.149578872
0.38050,-7.928801242
0.38100,-6.402829203
0.38150,-4.571662757
0.38200,-3.045690718
0.38250,-2.130107495
0.38300,-1.51971868
0.38350,-0.6041354567
0.38400,0.006253358679
0.38450,0.3114477664
0.38500,0.3114477664
0.38550,0.9218365818
0.38600,1.532225397
0.38650,2.142614213
0.38700,2.753003028
0.38750,3.668586251
0.38800,3.668586251
0.38850,3.058197436
0.38900,2.44780862
0.38950,2.753003028
0.39000,3.058197436
0.39050,3.363391843
0.39100,4.278975066
0.39150,6.720530328
0.39200,8.856891182
0.39250,8.551696774
0.39300,6.720530328
0.39350,5.19455829
0.39400,4.584169474
0.39450,4.584169474
0.39500,3.973780659
0.39550,2.142614213
0.39600,0.3114477664
0.39650,-0.298941049
0.39700,0.3114477664
0.39750,2.753003028
0.39800,4.889363882
0.39850,5.19455829
0.39900,4.889363882
0.39950,4.584169474
0.40000,4.584169474
0.40050,3.973780659
0.40100,3.973780659
0.40150,4.278975066
0.40200,4.584169474
0.40250,3.973780659
0.40300,4.278975066
0.40350,5.804947105
0.40400,7.330919144
0.40450,7.636113551
0.40500,7.330919144
0.40550,7.330919144
0.40600,7.330919144
0.40650,6.720530328
0.40700,6.110141513
0.40750,6.110141513
0.40800,6.110141513
0.40850,5.804947105
0.40900,5.19455829
0.40950,6.110141513
0.41000,7.636113551
0.41050,9.16208559
0.41100,9.467279997
0.41150,8.551696774
0.41200,7.330919144
0.41250,6.41533592
0.41300,6.720530328
0.41350,7.025724736
0.41400,6.720530328
0.41450,5.19455829
0.41500,4.584169474
0.41550,5.19455829
0.41600,5.499752697
0.41650,4.278975066
0.41700,1.837419805
0.41750,0.006253358679
0.41800,-1.214524272
0.41850,-2.435301903
0.41900,-3.656079534
0.41950,-3.656079534
0.42000,-2.740496311
0.42050,-2.130107495
0.42100,-1.824913088
0.42150,-1.824913088
0.42200,-2.130107495
0.42250,-2.435301903
0.42300,-2.435301903
0.42350,-2.435301903
0.42400,-3.350885126
0.42450,-5.182051572
0.42500,-7.013218018
0.42550,-7.928801242
0.42600,-7.623606834
0.42650,-7.928801242
0.42700,-8.233995649
0.42750,-7.623606834
0.42800,-6.402829203
0.42850,-6.402829203
0.42900,-7.013218018
0.42950,-6.708023611
0.43000,-5.792440388
0.43050,-5.48724598
0.43100,-6.402829203
0.43150,-7.013218018
0.43200,-6.708023611
0.43250,-6.097634795
0.43300,-5.792440388
0.43350,-5.48724598
0.43400,-4.571662757
0.43450,-3.656079534
0.43500,-3.656079534
0.43550,-4.876857165
0.43600,-5.48724598
0.43650,-5.182051572
0.43700,-4.876857165
0.43750,-5.48724598
0.43800,-4.876857165
0.43850,-3.045690718
0.43900,-1.824913088
0.43950,-2.740496311
0.44000,-4.266468349
0.44050,-3.961273941
0.44100,-2.740496311
0.44150,-2.130107495
0.44200,-2.435301903
0.44250,-1.824913088
0.44300,-0.298941049
0.44350,0.006253358679
0.44400,-0.6041354567
0.44450,-1.214524272
0.44500,0.3114477664
0.44550,2.753003028
0.44600,3.668586251
0.44650,3.058197436
0.44700,2.44780862
0.44750,2.753003028
0.44800,3.363391843
0.44850,3.058197436
0.44900,2.44780862
0.44950,2.753003028
0.45000,4.278975066
0.45050,5.499752697
0.45100,5.499752697
0.45150,5.499752697
0.45200,6.720530328
0.45250,7.941307959
0.45300,7.941307959
0.45350,6.110141513
0.45400,5.19455829
0.45450,7.025724736
0.45500,9.16208559
0.45550,9.467279997
0.45600,9.16208559
0.45650,10.68805763
0.45700,12.51922407
0.45750,12.82441848
0.45800,11.90883526
0.45850,11.60364085
0.45900,12.51922407
0.45950,12.82441848
0.46000,11.29844644
0.46050,9.16208559
0.46100,8.551696774
0.46150,8.856891182
0.46200,8.856891182
0.46250,7.636113551
0.46300,5.804947105
0.46350,3.973780659
0.46400,3.668586251
0.46450,4.278975066
0.46500,4.278975066
0.46550,3.363391843
0.46600,3.058197436
0.46650,3.973780659
0.46700,5.499752697
0.46750,5.804947105
0.46800,5.19455829
0.46850,4.889363882
0.46900,3.973780659
0.46950,1.532225397
0.47000,-2.130107495
0.47050,-6.402829203
0.47100,-9.45477328
0.47150,-11.89632854
0.47200,-13.11710617
0.47250,-12.20152295
0.47300,-9.759967688
0.47350,-8.233995649
0.47400,-8.844384465
0.47450,-9.759967688
0.47500,-9.45477328
0.47550,-8.233995649
0.47600,-8.233995649
0.47650,-8.844384465
0.47700,-8.539190057
0.47750,-7.623606834
0.47800,-8.844384465
0.47850,-12.81191176
0.47900,-17.08463347
0.47950,-19.22099433
0.48000,-18.91579992
0.48050,-18.91579992
0.48100,-20.44177196
0.48150,-21.967744
0.48200,-20.74696637
0.48250,-17.38982788
0.48300,-14.0326894
0.48350,-11.89632854
0.48400,-10.3703565
0.48450,-8.844384465
0.48500,-9.149578872
0.48550,-11.59113413
0.48600,-14.3378838
0.48650,-16.47424466
0.48700,-18.91579992
0.48750,-22.2729384
0.48800,-24.71449367
0.48850,-25.32488248
0.48900,-24.40929926
0.48950,-23.79891044
0.49000,-23.79891044
0.49050,-23.49371603
0.49100,-23.49371603
0.49150,-24.10410485
0.49200,-24.40929926
0.49250,-22.88332722
0.49300,-20.74696637
0.49350,-19.22099433
0.49400,-18.3054111
0.49450,-16.77943906
0.49500,-14.3378838
0.49550,-12.20152295
0.49600,-9.759967688
0.49650,-6.708023611
0.49700,-3.961273941
0.49750,-3.961273941
0.49800,-5.792440388
0.49850,-7.013218018
0.49900,-5.792440388
0.49950,-3.961273941
0.50000,-2.435301903
0.50050,-1.214524272
0.50100,0.6166421741
0.50150,2.142614213
0.50200,3.058197436
0.50250,3.058197436
0.50300,2.753003028
0.50350,2.44780862
0.50400,2.44780862
0.50450,3.668586251
0.50500,6.41533592
0.50550,7.636113551
0.50600,6.110141513
0.50650,4.584169474
0.50700,5.499752697
0.50750,6.720530328
0.50800,6.110141513
0.50850,4.889363882
0.50900,5.19455829
0.50950,6.41533592
0.51000,6.720530328
0.51050,6.110141513
0.51100,6.110141513
0.51150,7.941307959
0.51200,9.16208559
0.51250,8.856891182
0.51300,7.941307959
0.51350,7.636113551
0.51400,7.941307959
0.51450,8.246502367
0.51500,8.246502367
0.51550,7.636113551
0.51600,7.025724736
0.51650,6.41533592
0.51700,6.720530328
0.51750,7.025724736
0.51800,7.025724736
0.51850,6.720530328
0.51900,7.330919144
0.51950,7.941307959
0.52000,7.636113551
0.52050,5.804947105
0.52100,4.278975066
0.52150,3.058197436
0.52200,1.837419805
0.52250,1.227030989
0.52300,1.837419805
0.52350,3.058197436
0.52400,3.973780659
0.52450,3.363391843
0.52500,2.142614213
0.52550,2.44780862
0.52600,3.973780659
0.52650,5.499752697
0.52700,5.499752697
0.52750,4.584169474
0.52800,4.889363882
0.52850,6.720530328
0.52900,8.856891182
0.52950,9.772474405
0.53000,10.38286322
0.53050,10.99325204
0.53100,11.60364085
0.53150,10.99325204
0.53200,9.467279997
0.53250,8.246502367
0.53300,7.636113551
0.53350,7.330919144
0.53400,7.330919144
0.53450,7.941307959
0.53500,8.551696774
0.53550,10.07766881
0.53600,11.29844644
0.53650,10.99325204
0.53700,9.467279997
0.53750,7.636113551
0.53800,7.636113551
0.53850,8.551696774
0.53900,8.246502367
0.53950,6.41533592
0.54000,4.278975066
0.54050,3.668586251
0.54100,4.278975066
0.54150,4.889363882
0.54200,5.499752697
0.54250,5.804947105
0.54300,5.19455829
0.54350,4.584169474
0.54400,4.889363882
0.54450,5.19455829
0.54500,4.889363882
0.54550,4.584169474
0.54600,5.19455829
0.54650,5.804947105
0.54700,5.19455829
0.54750,4.889363882
0.54800,5.499752697
0.54850,7.330919144
0.54900,7.025724736
0.54950,4.889363882
0.55000,3.668586251
0.55050,4.584169474
0.55100,5.19455829
0.55150,4.278975066
0.55200,3.973780659
0.55250,5.499752697
0.55300,7.330919144
0.55350,7.636113551
0.55400,6.41533592
0.55450,6.110141513
0.55500,6.720530328
0.55550,6.41533592
0.55600,5.804947105
0.55650,6.41533592
0.55700,8.246502367
0.55750,10.07766881
0.55800,11.29844644
0.55850,11.90883526
0.55900,12.51922407
0.55950,11.60364085
0.56000,9.772474405
0.56050,8.856891182
0.56100,8.856891182
0.56150,9.16208559
0.56200,8.246502367
0.56250,8.246502367
0.56300,9.772474405
0.56350,10.99325204
0.56400,11.29844644
0.56450,10.68805763
0.56500,10.68805763
0.56550,11.29844644
0.56600,10.99325204
0.56650,10.38286322
0.56700,10.38286322
0.56750,10.38286322
0.56800,10.38286322
0.56850,9.467279997
0.56900,9.772474405
0.56950,10.38286322
0.57000,10.38286322
0.57050,8.856891182
0.57100,7.330919144
0.57150,5.499752697
0.57200,3.058197436
0.57250,-0.6041354567
0.57300,-4.266468349
0.57350,-6.097634795
0.57400,-6.097634795
0.57450,-6.097634795
0.57500,-7.013218018
0.57550,-8.539190057
0.57600,-10.3703565
0.57650,-11.28593973
0.57700,-12.81191176
0.57750,-14.94827262
0.57800,-18.3054111
0.57850,-21.66254959
0.57900,-23.49371603
0.57950,-24.10410485
0.58000,-24.40929926
0.58050,-23.49371603
0.58100,-21.35735518
0.58150,-18.61060551
0.58200,-17.69502229
0.58250,-18.91579992
0.58300,-20.44177196
0.58350,-21.05216077
0.58400,-21.35735518
0.58450,-21.05216077
0.58500,-18.91579992
0.58550,-15.86385584
0.58600,-14.0326894
0.58650,-14.94827262
0.58700,-17.08463347
0.58750,-18.61060551
0.58800,-18.61060551
0.58850,-17.38982788
0.58900,-15.86385584
0.58950,-14.0326894
0.59000,-11.89632854
0.59050,-8.844384465
0.59100,-5.182051572
0.59150,-2.435301903
0.59200,-1.824913088
0.59250,-2.435301903
0.59300,-2.130107495
0.59350,-0.6041354567
0.59400,0.6166421741
0.59450,1.532225397
0.59500,2.142614213
0.59550,2.142614213
0.59600,0.9218365818
0.59650,-1.214524272
0.59700,-2.435301903
0.59750,-1.51971868
0.59800,0.006253358679
0.59850,1.227030989
0.59900,1.532225397
0.59950,1.227030989
0.60000,0.9218365818
0.60050,1.227030989
0.60100,1.532225397
0.60150,1.227030989
0.60200,0.006253358679
0.60250,-1.824913088
0.60300,-1.824913088
0.60350,-0.298941049
0.60400,1.227030989
0.60450,2.44780862
0.60500,3.668586251
0.60550,3.668586251
0.60600,2.44780862
0.60650,1.227030989
0.60700,1.532225397
0.60750,3.363391843
0.60800,4.278975066
0.60850,3.363391843
0.60900,2.44780862
0.60950,2.753003028
0.61000,3.363391843
0.61050,3.363391843
0.61100,3.058197436
0.61150,2.753003028
0.61200,2.142614213
0.61250,1.227030989
0.61300,0.6166421741
0.61350,1.532225397
0.61400,2.142614213
0.61450,1.532225397
0.61500,0.9218365818
0.61550,1.227030989
0.61600,1.532225397
0.61650,0.9218365818
0.61700,0.006253358679
0.61750,0.9218365818
0.61800,2.753003028
0.61850,2.142614213
0.61900,0.006253358679
0.61950,-0.9093298644
0.62000,1.227030989
0.62050,3.668586251
0.62100,3.058197436
0.62150,1.837419805
0.62200,2.44780862
0.62250,3.668586251
0.62300,3.668586251
0.62350,3.058197436
0.62400,3.363391843
0.62450,3.973780659
0.62500,2.753003028
0.62550,0.9218365818
0.62600,1.837419805
0.62650,4.584169474
0.62700,5.804947105
0.62750,3.973780659
0.62800,2.44780862
0.62850,3.058197436
0.62900,4.278975066
0.62950,3.973780659
0.63000,2.753003028
0.63050,2.44780862
0.63100,2.44780862
0.63150,2.44780862
0.63200,2.753003028
0.63250,3.668586251
0.63300,4.278975066
0.63350,3.973780659
0.63400,3.058197436
0.63450,3.058197436
0.63500,3.668586251
0.63550,4.278975066
0.63600,5.19455829
0.63650,6.110141513
0.63700,6.41533592
0.63750,6.720530328
0.63800,7.636113551
0.63850,9.16208559
0.63900,10.07766881
0.63950,9.772474405
0.64000,9.16208559
0.64050,8.246502367
0.64100,7.330919144
0.64150,6.41533592
0.64200,6.41533592
0.64250,6.720530328
0.64300,5.499752697
0.64350,2.44780862
0.64400,0.3114477664
0.64450,0.3114477664
0.64500,0.6166421741
0.64550,0.006253358679
0.64600,-1.824913088
0.64650,-2.435301903
0.64700,-2.130107495
0.64750,-1.824913088
0.64800,-1.51971868
0.64850,-0.298941049
0.64900,1.227030989
0.64950,2.44780862
0.65000,3.058197436
0.65050,3.973780659
0.65100,4.278975066
0.65150,3.973780659
0.65200,2.44780862
0.65250,0.6166421741
0.65300,-1.824913088
0.65350,-4.876857165
0.65400,-7.623606834
0.65450,-8.844384465
0.65500,-9.149578872
0.65550,-9.759967688
0.65600,-9.759967688
0.65650,-8.539190057
0.65700,-7.318412426
0.65750,-7.928801242
0.65800,-9.149578872
0.65850,-8.233995649
0.65900,-4.876857165
0.65950,-1.51971868
0.66000,-0.6041354567
0.66050,-3.045690718
0.66100,-6.402829203
0.66150,-10.3703565
0.66200,-14.3378838
0.66250,-18.3054111
0.66300,-21.66254959
0.66350,-24.10410485
0.66400,-24.40929926
0.66450,-21.967744
0.66500,-18.3054111
0.66550,-15.25346703
0.66600,-14.0326894
0.66650,-14.0326894
0.66700,-12.81191176
0.66750,-10.98074532
0.66800,-8.844384465
0.66850,-7.928801242
0.66900,-7.318412426
0.66950,-7.928801242
0.67000,-8.844384465
0.67050,-8.844384465
0.67100,-6.097634795
0.67150,-3.045690718
0.67200,-1.824913088
0.67250,-2.130107495
0.67300,-2.130107495
0.67350,-0.298941049
0.67400,1.227030989
0.67450,1.837419805
0.67500,2.44780862
0.67550,3.058197436
0.67600,3.668586251
0.67650,3.668586251
0.67700,3.668586251
0.67750,3.363391843
0.67800,2.753003028
0.67850,1.837419805
0.67900,2.142614213
0.67950,3.363391843
0.68000,3.668586251
0.68050,3.058197436
0.68100,3.058197436
0.68150,4.584169474
0.68200,6.110141513
0.68250,6.110141513
0.68300,5.804947105
0.68350,7.025724736
0.68400,8.856891182
0.68450,9.467279997
0.68500,8.551696774
0.68550,7.941307959
0.68600,9.16208559
0.68650,11.29844644
0.68700,13.12961289
0.68750,13.74000171
0.68800,13.4348073
0.68850,12.51922407
0.68900,11.29844644
0.68950,9.772474405
0.69000,7.941307959
0.69050,6.720530328
0.69100,6.41533592
0.69150,6.110141513
0.69200,5.19455829
0.69250,3.973780659
0.69300,3.363391843
0.69350,3.668586251
0.69400,3.363391843
0.69450,2.753003028
0.69500,3.363391843
0.69550,5.804947105
0.69600,7.941307959
0.69650,8.856891182
0.69700,8.551696774
0.69750,8.246502367
0.69800,7.025724736
0.69850,5.19455829
0.69900,3.973780659
0.69950,3.058197436
0.70000,0.9218365818
0.70050,-1.824913088
0.70100,-4.571662757
0.70150,-5.48724598
0.70200,-5.48724598
0.70250,-6.097634795
0.70300,-7.013218018
0.70350,-6.708023611
0.70400,-6.097634795
0.70450,-6.097634795
0.70500,-7.318412426
0.70550,-8.539190057
0.70600,-9.149578872
0.70650,-10.0651621
0.70700,-10.3703565
0.70750,-10.3703565
0.70800,-8.844384465
0.70850,-7.013218018
0.70900,-5.48724598
0.70950,-4.571662757
0.71000,-3.961273941
0.71050,-3.350885126
0.71100,-2.740496311
0.71150,-2.130107495
0.71200,-2.435301903
0.71250,-2.740496311
0.71300,-3.045690718
0.71350,-2.740496311
0.71400,-2.435301903
0.71450,-2.130107495
0.71500,-1.51971868
0.71550,-0.6041354567
0.71600,0.006253358679
0.71650,0.006253358679
0.71700,1.227030989
0.71750,4.278975066
0.71800,7.330919144
0.71850,9.772474405
0.71900,11.60364085
0.71950,12.82441848
0.72000,13.4348073
0.72050,13.74000171
0.72100,14.35039052
0.72150,15.57116815
0.72200,16.18155697
0.72250,15.26597374
0.72300,13.74000171
0.72350,13.12961289
0.72400,13.12961289
0.72450,12.51922407
0.72500,11.90883526
0.72550,11.60364085
0.72600,11.60364085
0.72650,10.68805763
0.72700,8.246502367
0.72750,5.499752697
0.72800,3.973780659
0.72850,3.363391843
0.72900,3.973780659
0.72950,5.804947105
0.73000,7.025724736
0.73050,5.804947105
0.73100,1.837419805
0.73150,-2.130107495
0.73200,-5.182051572
0.73250,-7.928801242
0.73300,-11.28593973
0.73350,-14.94827262
0.73400,-18.91579992
0.73450,-21.35735518
0.73500,-21.967744
0.73550,-20.44177196
0.73600,-17.38982788
0.73650,-14.3378838
0.73700,-11.59113413
0.73750,-8.233995649
0.73800,-4.571662757
0.73850,-2.740496311
0.73900,-3.961273941
0.73950,-5.792440388
0.74000,-5.792440388
0.74050,-3.350885126
0.74100,-1.824913088
0.74150,-2.435301903
0.74200,-3.350885126
0.74250,-3.350885126
0.74300,-2.435301903
0.74350,-2.435301903
0.74400,-2.740496311
0.74450,-2.435301903
0.74500,-1.824913088
0.74550,-1.824913088
0.74600,-1.214524272
0.74650,0.006253358679
0.74700,2.142614213
0.74750,4.278975066
0.74800,5.804947105
0.74850,5.804947105
0.74900,3.973780659
0.74950,1.837419805
0.75000,2.142614213
0.75050,3.973780659
0.75100,5.499752697
0.75150,4.889363882
0.75200,4.584169474
0.75250,5.19455829
0.75300,6.110141513
0.75350,6.110141513
0.75400,6.41533592
0.75450,8.246502367
0.75500,10.38286322
0.75550,10.99325204
0.75600,10.68805763
0.75650,10.68805763
0.75700,10.07766881
0.75750,8.551696774
0.75800,7.330919144
0.75850,7.330919144
0.75900,7.330919144
0.75950,5.499752697
0.76000,2.142614213
0.76050,0.006253358679
0.76100,-1.51971868
0.76150,-3.045690718
0.76200,-3.656079534
0.76250,-2.130107495
0.76300,-0.6041354567
0.76350,-0.6041354567
0.76400,-1.51971868
0.76450,-1.51971868
0.76500,-0.9093298644
0.76550,-1.51971868
0.76600,-3.656079534
0.76650,-5.48724598
0.76700,-7.013218018
0.76750,-9.759967688
0.76800,-12.20152295
0.76850,-11.59113413
0.76900,-7.928801242
0.76950,-4.876857165
0.77000,-3.961273941
0.77050,-4.571662757
0.77100,-4.266468349
0.77150,-3.045690718
0.77200,-1.51971868
0.77250,0.006253358679
0.77300,0.3114477664
0.77350,0.3114477664
0.77400,1.227030989
0.77450,3.363391843
0.77500,3.668586251
0.77550,0.6166421741
0.77600,-4.571662757
0.77650,-8.233995649
0.77700,-8.233995649
0.77750,-6.402829203
0.77800,-5.182051572
0.77850,-4.571662757
0.77900,-3.350885126
0.77950,-0.6041354567
0.78000,1.532225397
0.78050,2.753003028
0.78100,1.227030989
0.78150,-2.130107495
0.78200,-5.792440388
0.78250,-7.623606834
0.78300,-7.013218018
0.78350,-5.792440388
0.78400,-5.48724598
0.78450,-5.182051572
0.78500,-4.266468349
0.78550,-3.045690718
0.78600,-2.130107495
0.78650,-1.214524272
0.78700,0.006253358679
0.78750,1.227030989
0.78800,0.9218365818
0.78850,0.006253358679
0.78900,-0.6041354567
0.78950,0.006253358679
0.79000,0.9218365818
0.79050,1.227030989
0.79100,0.6166421741
0.79150,-0.298941049
0.79200,0.006253358679
0.79250,0.6166421741
0.79300,0.9218365818
0.79350,1.227030989
0.79400,2.753003028
0.79450,5.499752697
0.79500,7.330919144
0.79550,6.720530328
0.79600,5.499752697
0.79650,4.889363882
0.79700,3.973780659
0.79750,2.142614213
0.79800,0.006253358679
0.79850,0.006253358679
0.79900,0.9218365818
0.79950,1.227030989
0.80000,1.227030989
0.80050,1.837419805
0.80100,3.363391843
0.80150,3.973780659
0.80200,3.668586251
0.80250,2.44780862
0.80300,0.9218365818
0.80350,-0.9093298644
0.80400,-3.656079534
0.80450,-5.48724598
0.80500,-6.097634795
0.80550,-6.097634795
0.80600,-6.097634795
0.80650,-5.792440388
0.80700,-5.48724598
0.80750,-5.48724598
0.80800,-6.097634795
0.80850,-8.233995649
0.80900,-10.98074532
0.80950,-13.72749499
0.81000,-15.55866143
0.81050,-15.86385584
0.81100,-13.72749499
0.81150,-9.759967688
0.81200,-6.402829203
0.81250,-4.266468349
0.81300,-3.350885126
0.81350,-1.51971868
0.81400,0.6166421741
0.81450,1.532225397
0.81500,0.3114477664
0.81550,-1.214524272
0.81600,-1.51971868
0.81650,-0.6041354567
0.81700,0.006253358679
0.81750,0.006253358679
0.81800,1.227030989
0.81850,3.058197436
0.81900,4.278975066
0.81950,5.19455829
0.82000,6.110141513
0.82050,6.720530328
0.82100,7.636113551
0.82150,9.16208559
0.82200,10.99325204
0.82250,12.51922407
0.82300,12.51922407
0.82350,11.60364085
0.82400,10.99325204
0.82450,10.68805763
0.82500,10.99325204
0.82550,11.29844644
0.82600,10.68805763
0.82650,8.551696774
0.82700,4.889363882
0.82750,2.44780862
0.82800,1.837419805
0.82850,1.227030989
0.82900,0.3114477664
0.82950,0.006253358679
0.83000,0.6166421741
0.83050,1.532225397
0.83100,1.227030989
0.83150,0.006253358679
0.83200,-0.298941049
0.83250,-0.298941049
0.83300,-1.214524272
0.83350,-2.435301903
0.83400,-2.740496311
0.83450,-3.656079534
0.83500,-5.792440388
0.83550,-8.539190057
0.83600,-9.149578872
0.83650,-8.233995649
0.83700,-8.539190057
0.83750,-10.67555091
0.83800,-12.20152295
0.83850,-11.89632854
0.83900,-11.28593973
0.83950,-11.28593973
0.84000,-10.67555091
0.84050,-8.233995649
0.84100,-5.792440388
0.84150,-3.961273941
0.84200,-1.824913088
0.84250,0.6166421741
0.84300,1.837419805
0.84350,0.9218365818
0.84400,0.006253358679
0.84450,1.837419805
0.84500,4.584169474
0.84550,4.889363882
0.84600,2.44780862
0.84650,1.227030989
0.84700,2.142614213
0.84750,2.44780862
0.84800,1.227030989
0.84850,0.3114477664
0.84900,2.44780862
0.84950,5.804947105
0.85000,7.330919144
0.85050,6.720530328
0.85100,5.19455829
0.85150,4.584169474
0.85200,4.584169474
0.85250,5.499752697
0.85300,7.330919144
0.85350,8.856891182
0.85400,9.772474405
0.85450,10.07766881
0.85500,10.07766881
0.85550,9.16208559
0.85600,7.025724736
0.85650,4.889363882
0.85700,3.973780659
0.85750,2.44780862
0.85800,0.006253358679
0.85850,-1.824913088
0.85900,-2.740496311
0.85950,-4.266468349
0.86000,-7.013218018
0.86050,-8.539190057
0.86100,-7.013218018
0.86150,-3.961273941
0.86200,-4.266468349
0.86250,-7.623606834
0.86300,-10.3703565
0.86350,-10.0651621
0.86400,-7.928801242
0.86450,-6.097634795
0.86500,-4.571662757
0.86550,-3.350885126
0.86600,-3.350885126
0.86650,-3.656079534
0.86700,-3.350885126
0.86750,-1.824913088
0.86800,0.006253358679
0.86850,0.9218365818
0.86900,1.227030989
0.86950,0.006253358679
0.87000,-2.740496311
0.87050,-5.48724598
0.87100,-6.708023611
0.87150,-7.013218018
0.87200,-7.318412426
0.87250,-6.402829203
0.87300,-3.350885126
0.87350,-0.298941049
0.87400,0.3114477664
0.87450,0.9218365818
0.87500,4.278975066
0.87550,10.07766881
0.87600,14.35039052
0.87650,16.18155697
0.87700,18.01272341
0.87750,20.75947308
0.87800,21.67505631
0.87850,19.53869545
0.87900,14.35039052
0.87950,8.856891182
0.88000,5.19455829
0.88050,3.973780659
0.88100,4.889363882
0.88150,5.499752697
0.88200,4.278975066
0.88250,2.753003028
0.88300,3.363391843
0.88350,5.804947105
0.88400,7.025724736
0.88450,5.19455829
0.88500,2.753003028
0.88550,2.142614213
0.88600,2.142614213
0.88650,0.9218365818
0.88700,-1.51971868
0.88750,-4.266468349
0.88800,-6.402829203
0.88850,-9.45477328
0.88900,-13.42230058
0.88950,-16.47424466
0.89000,-18.0002167
0.89050,-18.0002167
0.89100,-16.77943906
0.89150,-14.94827262
0.89200,-14.3378838
0.89250,-15.25346703
0.89300,-16.77943906
0.89350,-17.38982788
0.89400,-17.08463347
0.89450,-16.16905025
0.89500,-15.25346703
0.89550,-14.0326894
0.89600,-13.11710617
0.89650,-13.72749499
0.89700,-14.3378838
0.89750,-13.72749499
0.89800,-11.59113413
0.89850,-9.45477328
0.89900,-7.928801242
0.89950,-6.402829203
0.90000,-4.266468349
0.90050,-2.740496311
0.90100,-2.435301903
0.90150,-2.435301903
0.90200,-1.51971868
0.90250,-0.9093298644
0.90300,-0.9093298644
0.90350,-0.298941049
0.90400,1.227030989
0.90450,3.668586251
0.90500,4.584169474
0.90550,4.889363882
0.90600,5.19455829
0.90650,5.499752697
0.90700,5.804947105
0.90750,6.720530328
0.90800,8.551696774
0.90850,10.07766881
0.90900,9.467279997
0.90950,8.246502367
0.91000,9.16208559
0.91050,11.60364085
0.91100,12.51922407
0.91150,10.99325204
0.91200,10.38286322
0.91250,12.82441848
0.91300,15.87636256
0.91350,15.87636256
0.91400,13.74000171
0.91450,11.90883526
0.91500,11.90883526
0.91550,11.60364085
0.91600,8.856891182
0.91650,5.19455829
0.91700,3.363391843
0.91750,3.058197436
0.91800,3.058197436
0.91850,1.227030989
0.91900,-1.51971868
0.91950,-4.876857165
0.92000,-7.013218018
0.92050,-8.233995649
0.92100,-8.844384465
0.92150,-8.233995649
0.92200,-6.402829203
0.92250,-2.740496311
0.92300,1.227030989
0.92350,5.499752697
0.92400,8.246502367
0.92450,8.856891182
0.92500,8.551696774
0.92550,7.941307959
0.92600,7.636113551
0.92650,6.720530328
0.92700,6.110141513
0.92750,5.804947105
0.92800,5.499752697
0.92850,4.889363882
0.92900,5.499752697
0.92950,7.636113551
0.93000,10.07766881
0.93050,11.60364085
0.93100,12.82441848
0.93150,16.18155697
0.93200,21.3698619
0.93250,25.64258361
0.93300,26.86336124
0.93350,26.25297242
0.93400,25.64258361
0.93450,25.64258361
0.93500,25.64258361
0.93550,24.72700038
0.93600,22.89583394
0.93650,20.14908427
0.93700,16.79194578
0.93750,14.96077934
0.93800,15.26597374
0.93850,17.4023346
0.93900,19.53869545
0.93950,18.92830664
0.94000,14.96077934
0.94050,8.551696774
0.94100,1.837419805
0.94150,-4.266468349
0.94200,-10.3703565
0.94250,-16.77943906
0.94300,-22.2729384
0.94350,-25.9352713
0.94400,-27.76643774
0.94450,-28.68202097
0.94500,-28.68202097
0.94550,-27.76643774
0.94600,-27.46124333
0.94650,-27.15604893
0.94700,-25.63007689
0.94750,-23.49371603
0.94800,-22.57813281
0.94850,-24.10410485
0.94900,-26.54566011
0.94950,-27.76643774
0.95000,-27.15604893
0.95050,-24.71449367
0.95100,-20.44177196
0.95150,-17.08463347
0.95200,-16.77943906
0.95250,-19.22099433
0.95300,-21.35735518
0.95350,-21.967744
0.95400,-21.35735518
0.95450,-20.74696637
0.95500,-18.91579992
0.95550,-16.47424466
0.95600,-16.77943906
0.95650,-19.52618873
0.95700,-21.35735518
0.95750,-20.44177196
0.95800,-18.0002167
0.95850,-17.08463347
0.95900,-16.16905025
0.95950,-14.3378838
0.96000,-14.3378838
0.96050,-16.77943906
0.96100,-18.3054111
0.96150,-14.94827262
0.96200,-9.149578872
0.96250,-6.097634795
0.96300,-5.48724598
0.96350,-4.266468349
0.96400,-0.6041354567
0.96450,2.142614213
0.96500,3.058197436
0.96550,3.973780659
0.96600,6.110141513
0.96650,8.246502367
0.96700,8.856891182
0.96750,8.856891182
0.96800,9.16208559
0.96850,9.16208559
0.96900,8.551696774
0.96950,7.941307959
0.97000,7.636113551
0.97050,7.025724736
0.97100,5.19455829
0.97150,3.973780659
0.97200,5.499752697
0.97250,8.246502367
0.97300,9.772474405
0.97350,9.16208559
0.97400,7.636113551
0.97450,7.330919144
0.97500,7.636113551
0.97550,7.636113551
0.97600,7.636113551
0.97650,7.636113551
0.97700,8.246502367
0.97750,8.551696774
0.97800,8.246502367
0.97850,8.246502367
0.97900,8.551696774
0.97950,7.941307959
0.98000,6.41533592
0.98050,5.499752697
0.98100,6.720530328
0.98150,9.772474405
0.98200,12.21402967
0.98250,14.04519611
0.98300,15.87636256
0.98350,17.70752901
0.98400,18.01272341
0.98450,15.57116815
0.98500,12.82441848
0.98550,10.38286322
0.98600,7.330919144
0.98650,2.753003028
0.98700,-0.9093298644
0.98750,-1.51971868
0.98800,0.6166421741
0.98850,3.363391843
0.98900,4.584169474
0.98950,5.19455829
0.99000,7.025724736
0.99050,9.16208559
0.99100,10.38286322
0.99150,11.60364085
0.99200,13.4348073
0.99250,16.18155697
0.99300,18.92830664
0.99350,20.75947308
0.99400,22.89583394
0.99450,25.3373892
0.99500,27.47375005
0.99550,28.69452768
0.99600,28.69452768
0.99650,28.08413887
0.99700,26.86336124
0.99750,25.3373892
0.99800,23.81141716
0.99850,22.28544512
0.99900,21.3698619
0.99950,21.67505631
1.00000,23.50622275
1.00050,26.25297242
1.00100,28.08413887
1.00150,28.38933327
1.00200,26.86336124
1.00250,25.03219479
1.00300,25.03219479
1.00350,25.64258361
1.00400,25.03219479
1.00450,21.3698619
1.00500,15.26597374
1.00550,8.246502367
1.00600,1.532225397
1.00650,-6.097634795
1.00700,-15.55866143
1.00750,-25.9352713
1.00800,-35.09110353
1.00850,-41.50018609
1.00900,-44.85732457
1.00950,-45.7729078
1.01000,-45.46771339
1.01050,-44.24693576
1.01100,-41.19499168
1.01150,-36.31188116
1.01200,-31.73396504
1.01250,-28.37682656
1.01300,-27.15604893
1.01350,-27.15604893
1.01400,-28.68202097
1.01450,-31.42877063
1.01500,-33.8703259
1.01550,-34.1755203
1.01600,-31.73396504
1.01650,-27.76643774
1.01700,-23.49371603
1.01750,-19.22099433
1.01800,-14.64307821
1.01850,-11.28593973
1.01900,-8.844384465
1.01950,-7.623606834
1.02000,-7.013218018
1.02050,-7.013218018
1.02100,-7.623606834
1.02150,-7.318412426
1.02200,-6.708023611
1.02250,-6.097634795
1.02300,-6.708023611
1.02350,-7.623606834
1.02400,-7.318412426
1.02450,-3.961273941
1.02500,0.3114477664
1.02550,3.058197436
1.02600,1.532225397
1.02650,-2.435301903
1.02700,-6.097634795
1.02750,-7.318412426
1.02800,-6.402829203
1.02850,-6.097634795
1.02900,-7.013218018
1.02950,-7.928801242
1.03000,-8.539190057
1.03050,-7.928801242
1.03100,-6.402829203
1.03150,-5.48724598
1.03200,-6.097634795
1.03250,-7.623606834
1.03300,-8.233995649
1.03350,-7.318412426
1.03400,-6.402829203
1.03450,-6.402829203
1.03500,-6.097634795
1.03550,-3.350885126
1.03600,0.9218365818
1.03650,5.19455829
1.03700,7.330919144
1.03750,8.246502367
1.03800,9.16208559
1.03850,10.07766881
1.03900,11.90883526
1.03950,14.65558493
1.04000,17.4023346
1.04050,18.92830664
1.04100,20.14908427
1.04150,22.28544512
1.04200,26.25297242
1.04250,29.61011091
1.04300,30.83088854
1.04350,29.91530531
1.04400,27.47375005
1.04450,25.3373892
1.04500,24.42180597
1.04550,25.3373892
1.04600,26.86336124
1.04650,25.94777801
1.04700,22.28544512
1.04750,19.23350104
1.04800,20.75947308
1.04850,24.11661157
1.04900,23.81141716
1.04950,18.31791782
1.05000,12.82441848
1.05050,10.99325204
1.05100,11.29844644
1.05150,10.38286322
1.05200,8.246502367
1.05250,6.41533592
1.05300,5.19455829
1.05350,1.837419805
1.05400,-2.130107495
1.05450,-5.182051572
1.05500,-6.708023611
1.05550,-7.928801242
1.05600,-8.233995649
1.05650,-5.792440388
1.05700,-1.824913088
1.05750,-0.6041354567
1.05800,-2.130107495
1.05850,-2.435301903
1.05900,0.006253358679
1.05950,0.9218365818
1.06000,-0.9093298644
1.06050,-3.961273941
1.06100,-5.48724598
1.06150,-7.623606834
1.06200,-12.81191176
1.06250,-18.0002167
1.06300,-18.91579992
1.06350,-15.86385584
1.06400,-13.42230058
1.06450,-13.11710617
1.06500,-12.81191176
1.06550,-13.11710617
1.06600,-16.77943906
1.06650,-23.49371603
1.06700,-29.59760419
1.06750,-31.42877063
1.06800,-30.81838182
1.06850,-30.81838182
1.06900,-31.42877063
1.06950,-32.03915945
1.07000,-31.73396504
1.07050,-29.9027986
1.07100,-25.63007689
1.07150,-20.13657755
1.07200,-15.25346703
1.07250,-12.50671736
1.07300,-10.67555091
1.07350,-7.928801242
1.07400,-3.656079534
1.07450,0.006253358679
1.07500,1.837419805
1.07550,1.227030989
1.07600,0.006253358679
1.07650,0.006253358679
1.07700,1.837419805
1.07750,3.668586251
1.07800,3.668586251
1.07850,2.44780862
1.07900,1.837419805
1.07950,2.44780862
1.08000,3.363391843
1.08050,3.363391843
1.08100,3.058197436
1.08150,2.753003028
1.08200,2.44780862
1.08250,2.142614213
1.08300,1.227030989
1.08350,0.3114477664
1.08400,-0.298941049
1.08450,-0.6041354567
1.08500,-0.6041354567
1.08550,-2.130107495
1.08600,-5.48724598
1.08650,-8.844384465
1.08700,-9.759967688
1.08750,-9.149578872
1.08800,-9.759967688
1.08850,-10.98074532
1.08900,-10.3703565
1.08950,-7.623606834
1.09000,-7.013218018
1.09050,-10.67555091
1.09100,-15.25346703
1.09150,-16.47424466
1.09200,-15.55866143
1.09250,-15.86385584
1.09300,-18.3054111
1.09350,-19.83138314
1.09400,-19.83138314
1.09450,-20.13657755
1.09500,-20.44177196
1.09550,-18.3054111
1.09600,-14.0326894
1.09650,-11.59113413
1.09700,-10.0651621
1.09750,-5.48724598
1.09800,2.44780862
1.09850,9.467279997
1.09900,13.12961289
1.09950,16.18155697
1.10000,21.67505631
1.10050,28.38933327
1.10100,33.88283261
1.10150,38.76594314
1.10200,43.03866484
1.10250,44.25944248
1.10300,42.12308162
1.10350,39.37633195
1.10400,38.15555432
1.10450,36.32438788
1.10500,32.96724939
1.10550,30.52569413
1.10600,29.61011091
1.10650,27.16855564
1.10700,22.59063953
1.10750,18.92830664
1.10800,19.23350104
1.10850,19.23350104
1.10900,14.35039052
1.10950,7.330919144
1.11000,3.973780659
1.11050,2.142614213
1.11100,-3.045690718
1.11150,-12.20152295
1.11200,-17.69502229
1.11250,-17.69502229
1.11300,-16.77943906
1.11350,-19.22099433
1.11400,-22.2729384
1.11450,-21.66254959
1.11500,-18.0002167
1.11550,-14.94827262
1.11600,-13.72749499
1.11650,-12.50671736
1.11700,-11.89632854
1.11750,-11.59113413
1.11800,-10.98074532
1.11850,-7.623606834
1.11900,-3.961273941
1.11950,-4.571662757
1.12000,-8.844384465
1.12050,-11.59113413
1.12100,-10.0651621
1.12150,-6.097634795
1.12200,-3.656079534
1.12250,-1.214524272
1.12300,3.058197436
1.12350,8.551696774
1.12400,11.90883526
1.12450,12.51922407
1.12500,12.51922407
1.12550,12.82441848
1.12600,12.82441848
1.12650,11.90883526
1.12700,11.90883526
1.12750,12.51922407
1.12800,12.21402967
1.12850,10.99325204
1.12900,11.29844644
1.12950,11.90883526
1.13000,10.99325204
1.13050,8.246502367
1.13100,6.110141513
1.13150,6.110141513
1.13200,5.19455829
1.13250,2.142614213
1.13300,-1.214524272
1.13350,-3.045690718
1.13400,-5.48724598
1.13450,-9.759967688
1.13500,-14.3378838
1.13550,-17.08463347
1.13600,-18.3054111
1.13650,-20.13657755
1.13700,-23.18852163
1.13750,-25.32488248
1.13800,-25.9352713
1.13850,-24.71449367
1.13900,-21.66254959
1.13950,-16.16905025
1.14000,-9.759967688
1.14050,-6.097634795
1.14100,-6.402829203
1.14150,-8.233995649
1.14200,-9.149578872
1.14250,-9.45477328
1.14300,-10.67555091
1.14350,-13.11710617
1.14400,-15.25346703
1.14450,-14.64307821
1.14500,-10.3703565
1.14550,-5.48724598
1.14600,-2.435301903
1.14650,-1.51971868
1.14700,0.6166421741
1.14750,4.889363882
1.14800,7.636113551
1.14850,6.41533592
1.14900,3.668586251
1.14950,2.753003028
1.15000,3.363391843
1.15050,2.142614213
1.15100,-1.214524272
1.15150,-3.350885126
1.15200,-2.130107495
1.15250,0.006253358679
1.15300,1.227030989
1.15350,3.058197436
1.15400,5.804947105
1.15450,7.330919144
1.15500,6.720530328
1.15550,6.720530328
1.15600,10.07766881
1.15650,14.96077934
1.15700,18.31791782
1.15750,20.14908427
1.15800,21.67505631
1.15850,23.20102834
1.15900,23.20102834
1.15950,21.98025071
1.16000,21.06466749
1.16050,20.75947308
1.16100,19.53869545
1.16150,16.48675137
1.16200,12.21402967
1.16250,9.772474405
1.16300,11.90883526
1.16350,19.23350104
1.16400,27.16855564
1.16450,32.05166617
1.16500,33.57763821
1.16550,36.62958228
1.16600,41.51269281
1.16650,44.86983129
1.16700,44.56463688
1.16750,43.64905366
1.16800,44.86983129
1.16850,46.70099774
1.16900,45.78541451
1.16950,42.12308162
1.17000,38.15555432
1.17050,34.49322143
1.17100,29.91530531
1.17150,26.25297242
1.17200,24.42180597
1.17250,23.50622275
1.17300,21.3698619
1.17350,17.70752901
1.17400,13.74000171
1.17450,9.16208559
1.17500,2.44780862
1.17550,-4.266468349
1.17600,-8.844384465
1.17650,-12.50671736
1.17700,-18.3054111
1.17750,-26.54566011
1.17800,-33.56513149
1.17850,-36.31188116
1.17900,-35.70149234
1.17950,-34.48071471
1.18000,-32.34435386
1.18050,-28.07163215
1.18100,-21.66254959
1.18150,-14.3378838
1.18200,-6.708023611
1.18250,-1.214524272
1.18300,-0.9093298644
1.18350,-4.876857165
1.18400,-10.3703565
1.18450,-14.3378838
1.18500,-17.38982788
1.18550,-21.05216077
1.18600,-24.10410485
1.18650,-25.01968807
1.18700,-24.40929926
1.18750,-25.63007689
1.18800,-28.37682656
1.18850,-29.29240978
1.18900,-26.2404657
1.18950,-20.44177196
1.19000,-14.94827262
1.19050,-12.20152295
1.19100,-12.50671736
1.19150,-14.0326894
1.19200,-14.94827262
1.19250,-13.72749499
1.19300,-13.11710617
1.19350,-14.94827262
1.19400,-19.22099433
1.19450,-22.88332722
1.19500,-25.9352713
1.19550,-29.9027986
1.19600,-36.00668675
1.19650,-43.33135253
1.19700,-48.51965747
1.19750,-49.13004628
1.19800,-46.0781022
1.19850,-41.50018609
1.19900,-37.8378532
1.19950,-34.78590912
1.20000,-31.73396504
1.20050,-28.07163215
1.20100,-26.85085452
1.20150,-28.68202097
1.20200,-30.207993
1.20250,-27.46124333
1.20300,-20.74696637
1.20350,-14.64307821
1.20400,-10.67555091
1.20450,-7.013218018
1.20500,-1.214524272
1.20550,5.499752697
1.20600,10.99325204
1.20650,15.26597374
1.20700,21.06466749
1.20750,28.08413887
1.20800,35.40880465
1.20850,42.12308162
1.20900,46.39580333
1.20950,47.31138655
1.21000,44.86983129
1.21050,40.59710958
1.21100,36.01919347
1.21150,32.05166617
1.21200,28.69452768
1.21250,26.55816683
1.21300,25.3373892
1.21350,24.42180597
1.21400,23.50622275
1.21450,22.59063953
1.21500,22.28544512
1.21550,21.67505631
1.21600,20.14908427
1.21650,18.62311223
1.21700,18.62311223
1.21750,20.75947308
1.21800,22.28544512
1.21850,21.06466749
1.21900,17.70752901
1.21950,15.87636256
1.22000,16.18155697
1.22050,16.48675137
1.22100,13.12961289
1.22150,6.41533592
1.22200,-1.214524272
1.22250,-8.844384465
1.22300,-16.47424466
1.22350,-24.40929926
1.22400,-31.12357623
1.22450,-34.48071471
1.22500,-34.1755203
1.22550,-31.73396504
1.22600,-28.07163215
1.22650,-25.01968807
1.22700,-24.10410485
1.22750,-23.79891044
1.22800,-21.66254959
1.22850,-16.16905025
1.22900,-10.0651621
1.22950,-7.318412426
1.23000,-7.623606834
1.23050,-7.013218018
1.23100,-5.792440388
1.23150,-5.792440388
1.23200,-8.233995649
1.23250,-9.759967688
1.23300,-8.233995649
1.23350,-5.48724598
1.23400,-4.571662757
1.23450,-4.266468349
1.23500,-2.740496311
1.23550,-0.6041354567
1.23600,-0.298941049
1.23650,-0.6041354567
1.23700,1.227030989
1.23750,5.19455829
1.23800,7.636113551
1.23850,7.330919144
1.23900,6.720530328
1.23950,5.804947105
1.24000,2.753003028
1.24050,-2.740496311
1.24100,-6.402829203
1.24150,-5.182051572
1.24200,-1.214524272
1.24250,2.142614213
1.24300,4.889363882
1.24350,9.467279997
1.24400,16.79194578
1.24450,25.64258361
1.24500,32.35686058
1.24550,34.18802702
1.24600,29.91530531
1.24650,22.89583394
1.24700,18.62311223
1.24750,19.53869545
1.24800,21.67505631
1.24850,21.06466749
1.24900,17.4023346
1.24950,12.82441848
1.25000,8.551696774
1.25050,4.889363882
1.25100,1.532225397
1.25150,-0.298941049
1.25200,-1.51971868
1.25250,-2.435301903
1.25300,-1.824913088
1.25350,0.3114477664
1.25400,3.363391843
1.25450,5.804947105
1.25500,6.720530328
1.25550,6.720530328
1.25600,6.110141513
1.25650,4.889363882
1.25700,2.753003028
1.25750,-0.298941049
1.25800,-5.182051572
1.25850,-10.67555091
1.25900,-15.25346703
1.25950,-18.3054111
1.26000,-19.52618873
1.26050,-16.77943906
1.26100,-9.149578872
1.26150,0.9218365818
1.26200,9.772474405
1.26250,15.26597374
1.26300,16.79194578
1.26350,16.48675137
1.26400,16.18155697
1.26450,19.23350104
1.26500,26.55816683
1.26550,34.79841584
1.26600,38.76594314
1.26650,36.93477669
1.26700,31.74647176
1.26750,26.25297242
1.26800,22.59063953
1.26850,21.98025071
1.26900,22.59063953
1.26950,22.89583394
1.27000,22.28544512
1.27050,21.67505631
1.27100,20.45427867
1.27150,14.65558493
1.27200,5.19455829
1.27250,-3.045690718
1.27300,-5.792440388
1.27350,-5.182051572
1.27400,-6.708023611
1.27450,-10.0651621
1.27500,-11.28593973
1.27550,-11.28593973
1.27600,-14.94827262
1.27650,-23.18852163
1.27700,-28.98721537
1.27750,-29.29240978
1.27800,-29.59760419
1.27850,-38.1430476
1.27900,-51.57160154
1.27950,-60.72743377
1.28000,-60.72743377
1.28050,-54.31835121
1.28100,-46.68849102
1.28150,-39.05863083
1.28200,-31.12357623
1.28250,-24.71449367
1.28300,-21.05216077
1.28350,-19.22099433
1.28400,-18.3054111
1.28450,-19.83138314
1.28500,-23.79891044
1.28550,-26.2404657
1.28600,-25.01968807
1.28650,-21.967744
1.28700,-21.66254959
1.28750,-23.79891044
1.28800,-25.01968807
1.28850,-24.10410485
1.28900,-22.88332722
1.28950,-21.66254959
1.29000,-18.61060551
1.29050,-12.81191176
1.29100,-6.402829203
1.29150,-1.214524272
1.29200,2.753003028
1.29250,7.636113551
1.29300,10.68805763
1.29350,11.60364085
1.29400,11.29844644
1.29450,12.21402967
1.29500,14.65558493
1.29550,15.87636256
1.29600,15.26597374
1.29650,13.4348073
1.29700,11.29844644
1.29750,9.467279997
1.29800,8.246502367
1.29850,7.636113551
1.29900,7.330919144
1.29950,7.330919144
1.30000,7.941307959
1.30050,8.246502367
1.30100,6.41533592
1.30150,2.142614213
1.30200,-2.740496311
1.30250,-5.792440388
1.30300,-5.48724598
1.30350,-3.350885126
1.30400,0.006253358679
1.30450,1.837419805
1.30500,1.532225397
1.30550,-1.51971868
1.30600,-4.266468349
1.30650,-3.961273941
1.30700,-0.298941049
1.30750,2.753003028
1.30800,3.058197436
1.30850,1.532225397
1.30900,0.006253358679
1.30950,-2.130107495
1.31000,-4.266468349
1.31050,-4.266468349
1.31100,0.006253358679
1.31150,4.889363882
1.31200,6.41533592
1.31250,3.973780659
1.31300,2.142614213
1.31350,6.110141513
1.31400,13.4348073
1.31450,20.14908427
1.31500,24.42180597
1.31550,27.16855564
1.31600,28.99972209
1.31650,28.69452768
1.31700,28.08413887
1.31750,28.38933327
1.31800,27.77894446
1.31850,24.72700038
1.31900,19.84388986
1.31950,15.87636256
1.32000,12.21402967
1.32050,4.278975066
1.32100,-7.928801242
1.32150,-20.13657755
1.32200,-27.46124333
1.32250,-29.29240978
1.32300,-28.37682656
1.32350,-25.9352713
1.32400,-22.88332722
1.32450,-20.44177196
1.32500,-18.0002167
1.32550,-14.94827262
1.32600,-12.50671736
1.32650,-13.72749499
1.32700,-18.3054111
1.32750,-23.79891044
1.32800,-29.29240978
1.32850,-36.00668675
1.32900,-42.1105749
1.32950,-43.33135253
1.33000,-39.66901964
1.33050,-35.70149234
1.33100,-33.8703259
1.33150,-31.73396504
1.33200,-26.54566011
1.33250,-20.74696637
1.33300,-16.16905025
1.33350,-12.50671736
1.33400,-7.928801242
1.33450,-5.48724598
1.33500,-6.097634795
1.33550,-6.708023611
1.33600,-3.045690718
1.33650,2.753003028
1.33700,6.41533592
1.33750,7.025724736
1.33800,7.941307959
1.33850,9.467279997
1.33900,11.29844644
1.33950,14.04519611
1.34000,19.53869545
1.34050,26.25297242
1.34100,31.13608294
1.34150,34.49322143
1.34200,38.15555432
1.34250,41.81788721
1.34300,42.12308162
1.34350,39.37633195
1.34400,37.85035991
1.34450,38.46074873
1.34500,35.71399906
1.34550,27.47375005
1.34600,18.31791782
1.34650,13.74000171
1.34700,11.60364085
1.34750,6.720530328
1.34800,0.6166421741
1.34850,-2.130107495
1.34900,-1.51971868
1.34950,-1.824913088
1.35000,-4.571662757
1.35050,-7.013218018
1.35100,-6.708023611
1.35150,-4.266468349
1.35200,-1.51971868
1.35250,2.44780862
1.35300,8.246502367
1.35350,11.90883526
1.35400,10.99325204
1.35450,6.720530328
1.35500,3.363391843
1.35550,1.837419805
1.35600,1.837419805
1.35650,2.142614213
1.35700,3.058197436
1.35750,4.889363882
1.35800,6.110141513
1.35850,6.720530328
1.35900,7.941307959
1.35950,10.99325204
1.36000,15.57116815
1.36050,20.45427867
1.36100,24.42180597
1.36150,25.64258361
1.36200,23.50622275
1.36250,19.53869545
1.36300,16.48675137
1.36350,15.87636256
1.36400,15.26597374
1.36450,11.90883526
1.36500,4.889363882
1.36550,-2.435301903
1.36600,-7.318412426
1.36650,-9.759967688
1.36700,-10.67555091
1.36750,-10.0651621
1.36800,-6.402829203
1.36850,-1.214524272
1.36900,3.363391843
1.36950,7.330919144
1.37000,11.60364085
1.37050,16.79194578
1.37100,20.14908427
1.37150,19.53869545
1.37200,15.26597374
1.37250,10.07766881
1.37300,6.720530328
1.37350,4.889363882
1.37400,4.889363882
1.37450,5.804947105
1.37500,7.025724736
1.37550,7.330919144
1.37600,7.330919144
1.37650,6.720530328
1.37700,4.889363882
1.37750,3.058197436
1.37800,3.363391843
1.37850,7.025724736
1.37900,11.90883526
1.37950,14.35039052
1.38000,12.21402967
1.38050,6.720530328
1.38100,0.006253358679
1.38150,-6.708023611
1.38200,-13.72749499
1.38250,-19.83138314
1.38300,-21.35735518
1.38350,-17.38982788
1.38400,-10.98074532
1.38450,-7.013218018
1.38500,-8.233995649
1.38550,-11.59113413
1.38600,-11.59113413
1.38650,-6.402829203
1.38700,0.6166421741
1.38750,3.973780659
1.38800,1.837419805
1.38850,-1.824913088
1.38900,-1.824913088
1.38950,0.6166421741
1.39000,1.532225397
1.39050,0.006253358679
1.39100,-2.435301903
1.39150,-2.130107495
1.39200,-0.298941049
1.39250,0.3114477664
1.39300,0.6166421741
1.39350,1.227030989
1.39400,0.9218365818
1.39450,-1.51971868
1.39500,-5.48724598
1.39550,-7.928801242
1.39600,-8.539190057
1.39650,-8.844384465
1.39700,-8.844384465
1.39750,-7.318412426
1.39800,-5.182051572
1.39850,-5.182051572
1.39900,-8.539190057
1.39950,-12.20152295
1.40000,-12.81191176
1.40050,-10.98074532
1.40100,-11.59113413
1.40150,-15.25346703
1.40200,-19.52618873
1.40250,-19.52618873
1.40300,-15.55866143
1.40350,-11.28593973
1.40400,-10.3703565
1.40450,-11.59113413
1.40500,-12.20152295
1.40550,-9.45477328
1.40600,-4.266468349
1.40650,0.006253358679
1.40700,1.532225397
1.40750,2.753003028
1.40800,5.499752697
1.40850,8.856891182
1.40900,10.68805763
1.40950,11.29844644
1.41000,13.12961289
1.41050,16.79194578
1.41100,18.92830664
1.41150,15.57116815
1.41200,8.246502367
1.41250,1.532225397
1.41300,0.006253358679
1.41350,1.837419805
1.41400,4.584169474
1.41450,6.41533592
1.41500,8.246502367
1.41550,10.07766881
1.41600,10.68805763
1.41650,9.16208559
1.41700,7.330919144
1.41750,6.720530328
1.41800,8.246502367
1.41850,10.38286322
1.41900,12.21402967
1.41950,13.4348073
1.42000,13.12961289
1.42050,11.29844644
1.42100,10.07766881
1.42150,10.68805763
1.42200,11.29844644
1.42250,9.16208559
1.42300,4.584169474
1.42350,1.227030989
1.42400,0.3114477664
1.42450,0.006253358679
1.42500,-0.9093298644
1.42550,-0.6041354567
1.42600,2.44780862
1.42650,6.110141513
1.42700,5.804947105
1.42750,1.837419805
1.42800,-2.435301903
1.42850,-5.48724598
1.42900,-8.233995649
1.42950,-10.98074532
1.43000,-12.50671736
1.43050,-12.20152295
1.43100,-9.759967688
1.43150,-7.013218018
1.43200,-4.876857165
1.43250,-4.876857165
1.43300,-7.013218018
1.43350,-8.844384465
1.43400,-7.928801242
1.43450,-4.876857165
1.43500,-2.435301903
1.43550,-1.51971868
1.43600,-0.9093298644
1.43650,0.3114477664
1.43700,1.532225397
1.43750,2.753003028
1.43800,3.668586251
1.43850,4.584169474
1.43900,5.804947105
1.43950,7.941307959
1.44000,12.21402967
1.44050,15.57116815
1.44100,14.65558493
1.44150,9.772474405
1.44200,6.720530328
1.44250,10.38286322
1.44300,17.4023346
1.44350,20.75947308
1.44400,17.4023346
1.44450,10.68805763
1.44500,6.110141513
1.44550,4.889363882
1.44600,4.889363882
1.44650,4.278975066
1.44700,2.142614213
1.44750,-0.298941049
1.44800,-2.740496311
1.44850,-4.571662757
1.44900,-7.013218018
1.44950,-9.149578872
1.45000,-9.45477328
1.45050,-8.844384465
1.45100,-8.539190057
1.45150,-9.149578872
1.45200,-9.45477328
1.45250,-8.844384465
1.45300,-7.623606834
1.45350,-4.876857165
1.45400,-1.214524272
1.45450,0.3114477664
1.45500,-1.214524272
1.45550,-5.182051572
1.45600,-8.844384465
1.45650,-11.89632854
1.45700,-16.47424466
1.45750,-20.13657755
1.45800,-19.83138314
1.45850,-16.47424466
1.45900,-14.94827262
1.45950,-15.86385584
1.46000,-15.55866143
1.46050,-14.3378838
1.46100,-14.94827262
1.46150,-17.08463347
1.46200,-15.55866143
1.46250,-9.45477328
1.46300,-3.961273941
1.46350,-1.51971868
1.46400,2.142614213
1.46450,9.467279997
1.46500,15.26597374
1.46550,16.48675137
1.46600,16.48675137
1.46650,19.84388986
1.46700,22.89583394
1.46750,18.92830664
1.46800,10.68805763
1.46850,4.278975066
1.46900,0.006253358679
1.46950,-6.708023611
1.47000,-16.16905025
1.47050,-21.66254959
1.47100,-19.83138314
1.47150,-13.72749499
1.47200,-7.623606834
1.47250,-1.51971868
1.47300,4.278975066
1.47350,8.246502367
1.47400,8.246502367
1.47450,7.941307959
1.47500,9.467279997
1.47550,11.90883526
1.47600,11.29844644
1.47650,8.551696774
1.47700,6.720530328
1.47750,6.720530328
1.47800,6.720530328
1.47850,5.499752697
1.47900,3.973780659
1.47950,2.44780862
1.48000,0.6166421741
1.48050,-2.130107495
1.48100,-5.792440388
1.48150,-8.539190057
1.48200,-9.149578872
1.48250,-6.708023611
1.48300,-3.045690718
1.48350,-1.51971868
1.48400,-3.656079534
1.48450,-7.013218018
1.48500,-7.623606834
1.48550,-5.182051572
1.48600,-2.435301903
1.48650,-1.824913088
1.48700,-2.435301903
1.48750,-3.350885126
1.48800,-6.097634795
1.48850,-10.0651621
1.48900,-14.3378838
1.48950,-19.22099433
1.49000,-26.85085452
1.49050,-36.61707557
1.49100,-43.63654694
1.49150,-43.33135253
1.49200,-36.61707557
1.49250,-29.9027986
1.49300,-27.76643774
1.49350,-29.29240978
1.49400,-29.29240978
1.49450,-26.2404657
1.49500,-21.967744
1.49550,-18.91579992
1.49600,-17.69502229
1.49650,-16.77943906
1.49700,-14.3378838
1.49750,-10.0651621
1.49800,-3.961273941
1.49850,1.227030989
1.49900,4.584169474
1.49950,6.110141513
1.50000,7.330919144
1.50050,9.16208559
1.50100,10.38286322
1.50150,10.68805763
1.50200,11.90883526
1.50250,14.35039052
1.50300,17.70752901
1.50350,20.75947308
1.50400,23.20102834
1.50450,24.11661157
1.50500,24.42180597
1.50550,25.3373892
1.50600,28.69452768
1.50650,33.2724438
1.50700,35.71399906
1.50750,34.79841584
1.50800,32.66205498
1.50850,32.05166617
1.50900,32.05166617
1.50950,31.13608294
1.51000,28.69452768
1.51050,27.47375005
1.51100,28.69452768
1.51150,30.83088854
1.51200,32.05166617
1.51250,32.35686058
1.51300,32.66205498
1.51350,32.35686058
1.51400,28.38933327
1.51450,20.14908427
1.51500,10.68805763
1.51550,4.278975066
1.51600,0.006253358679
1.51650,-5.182051572
1.51700,-12.81191176
1.51750,-17.69502229
1.51800,-16.77943906
1.51850,-12.50671736
1.51900,-8.233995649
1.51950,-3.656079534
1.52000,1.227030989
1.52050,3.668586251
1.52100,-0.298941049
1.52150,-9.149578872
1.52200,-15.55866143
1.52250,-18.3054111
1.52300,-20.44177196
1.52350,-24.71449367
1.52400,-28.68202097
1.52450,-29.29240978
1.52500,-28.37682656
1.52550,-28.07163215
1.52600,-28.98721537
1.52650,-28.07163215
1.52700,-25.01968807
1.52750,-21.05216077
1.52800,-19.22099433
1.52850,-21.35735518
1.52900,-25.01968807
1.52950,-25.9352713
1.53000,-23.18852163
1.53050,-20.44177196
1.53100,-18.3054111
1.53150,-13.72749499
1.53200,-6.097634795
1.53250,-1.214524272
1.53300,-3.656079534
1.53350,-10.3703565
1.53400,-14.0326894
1.53450,-12.50671736
1.53500,-9.759967688
1.53550,-8.233995649
1.53600,-6.402829203
1.53650,-4.266468349
1.53700,-3.350885126
1.53750,-3.656079534
1.53800,-1.824913088
1.53850,3.668586251
1.53900,9.467279997
1.53950,10.68805763
1.54000,6.41533592
1.54050,-0.298941049
1.54100,-5.792440388
1.54150,-7.928801242
1.54200,-7.928801242
1.54250,-7.318412426
1.54300,-7.928801242
1.54350,-7.928801242
1.54400,-7.013218018
1.54450,-4.571662757
1.54500,-3.045690718
1.54550,-3.350885126
1.54600,-5.182051572
1.54650,-6.402829203
1.54700,-4.876857165
1.54750,0.006253358679
1.54800,6.110141513
1.54850,9.772474405
1.54900,9.772474405
1.54950,9.16208559
1.55000,9.772474405
1.55050,10.68805763
1.55100,10.38286322
1.55150,7.941307959
1.55200,3.363391843
1.55250,-3.045690718
1.55300,-10.0651621
1.55350,-14.0326894
1.55400,-11.89632854
1.55450,-5.792440388
1.55500,-0.298941049
1.55550,1.532225397
1.55600,0.6166421741
1.55650,-1.824913088
1.55700,-5.48724598
1.55750,-7.623606834
1.55800,-7.318412426
1.55850,-6.708023611
1.55900,-5.792440388
1.55950,-3.656079534
1.56000,0.006253358679
1.56050,3.668586251
1.56100,4.889363882
1.56150,3.973780659
1.56200,3.973780659
1.56250,5.499752697
1.56300,6.110141513
1.56350,6.720530328
1.56400,9.467279997
1.56450,14.65558493
1.56500,18.62311223
1.56550,17.4023346
1.56600,11.60364085
1.56650,5.804947105
1.56700,3.668586251
1.56750,4.278975066
1.56800,4.278975066
1.56850,1.837419805
1.56900,-1.824913088
1.56950,-5.182051572
1.57000,-6.097634795
1.57050,-5.48724598
1.57100,-4.571662757
1.57150,-3.656079534
1.57200,-3.045690718
1.57250,-3.045690718
1.57300,-3.961273941
1.57350,-4.571662757
1.57400,-3.350885126
1.57450,-1.824913088
1.57500,-2.130107495
1.57550,-4.876857165
1.57600,-7.928801242
1.57650,-9.149578872
1.57700,-8.844384465
1.57750,-8.844384465
1.57800,-10.0651621
1.57850,-10.67555091
1.57900,-8.233995649
1.57950,-3.350885126
1.58000,1.532225397
1.58050,4.278975066
1.58100,5.499752697
1.58150,8.551696774
1.58200,13.4348073
1.58250,16.79194578
1.58300,14.65558493
1.58350,9.16208559
1.58400,5.499752697
1.58450,7.025724736
1.58500,11.29844644
1.58550,14.96077934
1.58600,16.48675137
1.58650,14.35039052
1.58700,8.856891182
1.58750,2.142614213
1.58800,-1.824913088
1.58850,-2.740496311
1.58900,-3.045690718
1.58950,-2.435301903
1.59000,1.227030989
1.59050,8.551696774
1.59100,14.96077934
1.59150,16.18155697
1.59200,14.96077934
1.59250,15.57116815
1.59300,18.01272341
1.59350,18.01272341
1.59400,14.04519611
1.59450,10.68805763
1.59500,12.51922407
1.59550,17.09714019
1.59600,18.31791782
1.59650,16.18155697
1.59700,12.82441848
1.59750,9.16208559
1.59800,3.668586251
1.59850,-2.130107495
1.59900,-6.097634795
1.59950,-7.013218018
1.60000,-7.928801242
1.60050,-10.0651621
1.60100,-12.81191176
1.60150,-16.16905025
1.60200,-21.35735518
1.60250,-27.46124333
1.60300,-29.59760419
1.60350,-26.2404657
1.60400,-19.22099433
1.60450,-13.11710617
1.60500,-10.0651621
1.60550,-10.3703565
1.60600,-12.20152295
1.60650,-12.81191176
1.60700,-9.759967688
1.60750,-4.876857165
1.60800,-0.9093298644
1.60850,2.753003028
1.60900,9.467279997
1.60950,16.18155697
1.61000,16.79194578
1.61050,9.772474405
1.61100,1.532225397
1.61150,-1.51971868
1.61200,-2.435301903
1.61250,-4.266468349
1.61300,-6.708023611
1.61350,-7.623606834
1.61400,-7.013218018
1.61450,-6.708023611
1.61500,-7.318412426
1.61550,-6.402829203
1.61600,-3.350885126
1.61650,0.6166421741
1.61700,4.278975066
1.61750,7.025724736
1.61800,10.07766881
1.61850,13.4348073
1.61900,15.57116815
1.61950,14.96077934
1.62000,12.21402967
1.62050,9.16208559
1.62100,5.499752697
1.62150,-1.51971868
1.62200,-11.59113413
1.62250,-18.61060551
1.62300,-18.3054111
1.62350,-12.50671736
1.62400,-7.013218018
1.62450,-4.571662757
1.62500,-3.045690718
1.62550,-1.214524272
1.62600,-0.298941049
1.62650,-0.6041354567
1.62700,-1.214524272
1.62750,-1.214524272
1.62800,-0.298941049
1.62850,2.142614213
1.62900,5.804947105
1.62950,7.941307959
1.63000,6.41533592
1.63050,2.142614213
1.63100,-3.045690718
1.63150,-8.844384465
1.63200,-13.72749499
1.63250,-15.55866143
1.63300,-14.64307821
1.63350,-12.81191176
1.63400,-11.89632854
1.63450,-9.759967688
1.63500,-4.876857165
1.63550,0.6166421741
1.63600,4.889363882
1.63650,8.246502367
1.63700,12.51922407
1.63750,17.4023346
1.63800,21.67505631
1.63850,23.81141716
1.63900,24.42180597
1.63950,24.11661157
1.64000,23.50622275
1.64050,21.98025071
1.64100,18.31791782
1.64150,12.21402967
1.64200,6.41533592
1.64250,3.668586251
1.64300,3.363391843
1.64350,1.837419805
1.64400,-1.51971868
1.64450,-4.571662757
1.64500,-3.656079534
1.64550,0.006253358679
1.64600,2.44780862
1.64650,0.3114477664
1.64700,-5.48724598
1.64750,-12.81191176
1.64800,-18.61060551
1.64850,-21.967744
1.64900,-23.49371603
1.64950,-22.88332722
1.65000,-18.0002167
1.65050,-9.45477328
1.65100,-0.9093298644
1.65150,1.837419805
1.65200,0.3114477664
1.65250,-0.9093298644
1.65300,0.9218365818
1.65350,6.110141513
1.65400,11.60364085
1.65450,14.65558493
1.65500,14.35039052
1.65550,10.68805763
1.65600,7.025724736
1.65650,5.19455829
1.65700,4.278975066
1.65750,1.837419805
1.65800,-1.824913088
1.65850,-4.266468349
1.65900,-2.740496311
1.65950,1.532225397
1.66000,7.636113551
1.66050,14.04519611
1.66100,19.53869545
1.66150,22.28544512
1.66200,22.89583394
1.66250,22.59063953
1.66300,20.45427867
1.66350,15.26597374
1.66400,8.856891182
1.66450,3.973780659
1.66500,1.837419805
1.66550,0.3114477664
1.66600,-1.214524272
1.66650,-2.435301903
1.66700,-3.961273941
1.66750,-6.402829203
1.66800,-8.539190057
1.66850,-7.623606834
1.66900,-3.656079534
1.66950,0.3114477664
1.67000,1.837419805
1.67050,0.006253358679
1.67100,-4.876857165
1.67150,-10.67555091
1.67200,-14.94827262
1.67250,-15.86385584
1.67300,-16.16905025
1.67350,-20.74696637
1.67400,-28.98721537
1.67450,-36.00668675
1.67500,-37.53265879
1.67550,-35.70149234
1.67600,-34.1755203
1.67650,-32.64954827
1.67700,-28.98721537
1.67750,-23.49371603
1.67800,-18.3054111
1.67850,-15.25346703
1.67900,-13.42230058
1.67950,-13.11710617
1.68000,-14.94827262
1.68050,-18.3054111
1.68100,-21.66254959
1.68150,-23.18852163
1.68200,-23.18852163
1.68250,-23.49371603
1.68300,-25.63007689
1.68350,-30.81838182
1.68400,-36.61707557
1.68450,-36.61707557
1.68500,-28.68202097
1.68550,-16.16905025
1.68600,-5.792440388
1.68650,0.6166421741
1.68700,5.499752697
1.68750,10.38286322
1.68800,14.65558493
1.68850,18.31791782
1.68900,22.89583394
1.68950,28.38933327
1.69000,32.96724939
1.69050,34.79841584
1.69100,34.49322143
1.69150,34.49322143
1.69200,34.79841584
1.69250,34.18802702
1.69300,32.35686058
1.69350,28.69452768
1.69400,25.3373892
1.69450,23.50622275
1.69500,23.81141716
1.69550,24.42180597
1.69600,23.50622275
1.69650,21.67505631
1.69700,21.06466749
1.69750,21.98025071
1.69800,22.59063953
1.69850,21.67505631
1.69900,21.3698619
1.69950,21.67505631
1.70000,21.06466749
1.70050,17.09714019
1.70100,12.51922407
1.70150,11.29844644
1.70200,14.65558493
1.70250,20.14908427
1.70300,23.50622275
1.70350,24.42180597
1.70400,23.81141716
1.70450,22.28544512
1.70500,19.23350104
1.70550,14.65558493
1.70600,10.07766881
1.70650,7.025724736
1.70700,4.889363882
1.70750,2.44780862
1.70800,0.006253358679
1.70850,-0.9093298644
1.70900,-1.51971868
1.70950,-3.656079534
1.71000,-7.318412426
1.71050,-8.233995649
1.71100,-4.571662757
1.71150,0.6166421741
1.71200,2.753003028
1.71250,1.227030989
1.71300,-0.298941049
1.71350,-0.298941049
1.71400,-0.9093298644
1.71450,-2.130107495
1.71500,-2.740496311
1.71550,-2.435301903
1.71600,-3.961273941
1.71650,-8.844384465
1.71700,-13.11710617
1.71750,-12.20152295
1.71800,-6.708023611
1.71850,-0.9093298644
1.71900,0.9218365818
1.71950,-0.298941049
1.72000,-3.350885126
1.72050,-6.708023611
1.72100,-10.0651621
1.72150,-13.42230058
1.72200,-17.08463347
1.72250,-20.13657755
1.72300,-23.18852163
1.72350,-25.63007689
1.72400,-26.2404657
1.72450,-23.49371603
1.72500,-18.61060551
1.72550,-11.89632854
1.72600,-4.571662757
1.72650,2.44780862
1.72700,8.856891182
1.72750,11.90883526
1.72800,11.90883526
1.72850,11.29844644
1.72900,12.21402967
1.72950,13.4348073
1.73000,12.21402967
1.73050,7.941307959
1.73100,3.058197436
1.73150,-0.298941049
1.73200,-2.435301903
1.73250,-4.876857165
1.73300,-8.844384465
1.73350,-13.72749499
1.73400,-17.38982788
1.73450,-16.47424466
1.73500,-10.98074532
1.73550,-3.045690718
1.73600,4.278975066
1.73650,10.68805763
1.73700,15.57116815
1.73750,19.53869545
1.73800,23.20102834
1.73850,25.3373892
1.73900,24.42180597
1.73950,19.23350104
1.74000,10.99325204
1.74050,3.058197436
1.74100,-0.6041354567
1.74150,-2.435301903
1.74200,-6.402829203
1.74250,-16.16905025
1.74300,-29.29240978
1.74350,-39.36382523
1.74400,-42.41576931
1.74450,-39.05863083
1.74500,-33.25993708
1.74550,-28.07163215
1.74600,-24.71449367
1.74650,-23.79891044
1.74700,-24.10410485
1.74750,-24.40929926
1.74800,-26.54566011
1.74850,-30.51318741
1.74900,-32.03915945
1.74950,-25.01968807
1.75000,-13.11710617
1.75050,-5.182051572
1.75100,-3.656079534
1.75150,-3.045690718
1.75200,-0.298941049
1.75250,0.006253358679
1.75300,-4.571662757
1.75350,-6.708023611
1.75400,-2.130107495
1.75450,1.532225397
1.75500,-4.266468349
1.75550,-14.94827262
1.75600,-17.69502229
1.75650,-12.50671736
1.75700,-8.844384465
1.75750,-11.28593973
1.75800,-12.81191176
1.75850,-8.233995649
1.75900,-0.6041354567
1.75950,5.804947105
1.76000,11.90883526
1.76050,16.18155697
1.76100,16.79194578
1.76150,15.57116815
1.76200,17.09714019
1.76250,21.67505631
1.76300,22.89583394
1.76350,21.06466749
1.76400,21.67505631
1.76450,27.16855564
1.76500,33.57763821
1.76550,36.93477669
1.76600,39.98672077
1.76650,43.03866484
1.76700,42.73347044
1.76750,37.54516551
1.76800,30.52569413
1.76850,24.42180597
1.76900,16.79194578
1.76950,7.330919144
1.77000,0.3114477664
1.77050,-0.6041354567
1.77100,1.532225397
1.77150,2.44780862
1.77200,1.227030989
1.77250,0.3114477664
1.77300,2.142614213
1.77350,6.720530328
1.77400,10.68805763
1.77450,11.29844644
1.77500,8.856891182
1.77550,9.16208559
1.77600,15.87636256
1.77650,22.59063953
1.77700,20.45427867
1.77750,10.07766881
1.77800,1.227030989
1.77850,0.9218365818
1.77900,6.41533592
1.77950,11.60364085
1.78000,11.90883526
1.78050,4.889363882
1.78100,-9.149578872
1.78150,-24.40929926
1.78200,-30.81838182
1.78250,-26.54566011
1.78300,-19.22099433
1.78350,-15.55866143
1.78400,-13.72749499
1.78450,-8.233995649
1.78500,0.006253358679
1.78550,6.720530328
1.78600,10.07766881
1.78650,12.82441848
1.78700,16.18155697
1.78750,17.4023346
1.78800,13.12961289
1.78850,3.058197436
1.78900,-9.45477328
1.78950,-19.52618873
1.79000,-23.49371603
1.79050,-21.35735518
1.79100,-15.86385584
1.79150,-10.67555091
1.79200,-10.3703565
1.79250,-15.25346703
1.79300,-20.44177196
1.79350,-18.0002167
1.79400,-8.233995649
1.79450,1.532225397
1.79500,4.584169474
1.79550,2.44780862
1.79600,1.227030989
1.79650,1.837419805
1.79700,0.9218365818
1.79750,-2.435301903
1.79800,-8.233995649
1.79850,-14.64307821
1.79900,-21.05216077
1.79950,-25.01968807
1.80000,-23.79891044
1.80050,-18.3054111
1.80100,-12.81191176
1.80150,-9.45477328
1.80200,-5.792440388
1.80250,0.006253358679
1.80300,6.41533592
1.80350,10.07766881
1.80400,10.68805763
1.80450,12.21402967
1.80500,16.79194578
1.80550,21.3698619
1.80600,21.3698619
1.80650,14.96077934
1.80700,6.720530328
1.80750,2.142614213
1.80800,0.6166421741
1.80850,-0.298941049
1.80900,-3.656079534
1.80950,-6.097634795
1.81000,-6.402829203
1.81050,-6.708023611
1.81100,-9.759967688
1.81150,-13.72749499
1.81200,-13.11710617
1.81250,-6.097634795
1.81300,3.058197436
1.81350,10.68805763
1.81400,15.87636256
1.81450,20.14908427
1.81500,23.81141716
1.81550,25.03219479
1.81600,21.98025071
1.81650,14.65558493
1.81700,5.499752697
1.81750,-1.824913088
1.81800,-5.48724598
1.81850,-3.961273941
1.81900,-0.298941049
1.81950,1.532225397
1.82000,0.9218365818
1.82050,0.006253358679
1.82100,1.837419805
1.82150,6.110141513
1.82200,11.29844644
1.82250,17.09714019
1.82300,23.50622275
1.82350,29.3049165
1.82400,30.83088854
1.82450,27.16855564
1.82500,20.75947308
1.82550,14.35039052
1.82600,9.467279997
1.82650,7.025724736
1.82700,7.330919144
1.82750,10.07766881
1.82800,11.90883526
1.82850,11.29844644
1.82900,9.772474405
1.82950,10.38286322
1.83000,14.04519611
1.83050,18.31791782
1.83100,21.06466749
1.83150,22.28544512
1.83200,22.89583394
1.83250,21.3698619
1.83300,18.31791782
1.83350,15.26597374
1.83400,15.57116815
1.83450,17.09714019
1.83500,15.57116815
1.83550,9.467279997
1.83600,3.973780659
1.83650,2.44780862
1.83700,2.44780862
1.83750,-0.298941049
1.83800,-4.876857165
1.83850,-5.792440388
1.83900,-2.130107495
1.83950,1.227030989
1.84000,2.44780862
1.84050,1.227030989
1.84100,-0.9093298644
1.84150,-4.571662757
1.84200,-9.759967688
1.84250,-14.94827262
1.84300,-18.91579992
1.84350,-20.13657755
1.84400,-17.69502229
1.84450,-13.11710617
1.84500,-10.3703565
1.84550,-12.20152295
1.84600,-17.08463347
1.84650,-22.2729384
1.84700,-27.76643774
1.84750,-34.48071471
1.84800,-40.88979727
1.84850,-42.41576931
1.84900,-38.1430476
1.84950,-31.42877063
1.85000,-25.9352713
1.85050,-20.44177196
1.85100,-14.3378838
1.85150,-8.539190057
1.85200,-4.266468349
1.85250,-2.130107495
1.85300,-0.9093298644
1.85350,-1.51971868
1.85400,-3.961273941
1.85450,-5.48724598
1.85500,-5.792440388
1.85550,-6.097634795
1.85600,-6.402829203
1.85650,-4.876857165
1.85700,-0.6041354567
1.85750,3.973780659
1.85800,6.720530328
1.85850,9.16208559
1.85900,13.74000171
1.85950,18.92830664
1.86000,21.3698619
1.86050,21.3698619
1.86100,21.3698619
1.86150,19.53869545
1.86200,12.82441848
1.86250,2.142614213
1.86300,-4.266468349
1.86350,-2.740496311
1.86400,2.753003028
1.86450,6.41533592
1.86500,7.636113551
1.86550,10.68805763
1.86600,15.87636256
1.86650,16.18155697
1.86700,6.720530328
1.86750,-8.233995649
1.86800,-19.52618873
1.86850,-21.967744
1.86900,-19.83138314
1.86950,-21.05216077
1.87000,-27.76643774
1.87050,-34.48071471
1.87100,-37.53265879
1.87150,-36.00668675
1.87200,-31.42877063
1.87250,-24.10410485
1.87300,-16.47424466
1.87350,-12.50671736
1.87400,-11.89632854
1.87450,-11.89632854
1.87500,-11.59113413
1.87550,-15.25346703
1.87600,-22.57813281
1.87650,-28.68202097
1.87700,-29.29240978
1.87750,-26.54566011
1.87800,-23.79891044
1.87850,-20.13657755
1.87900,-14.3378838
1.87950,-10.0651621
1.88000,-10.0651621
1.88050,-12.50671736
1.88100,-12.81191176
1.88150,-10.98074532
1.88200,-10.98074532
1.88250,-12.81191176
1.88300,-12.81191176
1.88350,-8.233995649
1.88400,0.006253358679
1.88450,9.772474405
1.88500,18.01272341
1.88550,22.28544512
1.88600,22.59063953
1.88650,20.45427867
1.88700,17.70752901
1.88750,13.12961289
1.88800,7.941307959
1.88850,4.584169474
1.88900,3.058197436
1.88950,2.142614213
1.89000,0.3114477664
1.89050,0.006253358679
1.89100,2.44780862
1.89150,4.584169474
1.89200,4.584169474
1.89250,3.973780659
1.89300,7.941307959
1.89350,15.57116815
1.89400,23.20102834
1.89450,26.86336124
1.89500,27.77894446
1.89550,27.77894446
1.89600,25.94777801
1.89650,18.31791782
1.89700,6.110141513
1.89750,-5.182051572
1.89800,-10.0651621
1.89850,-10.67555091
1.89900,-14.94827262
1.89950,-24.71449367
1.90000,-30.81838182
1.90050,-25.01968807
1.90100,-11.28593973
1.90150,0.6166421741
1.90200,8.246502367
1.90250,14.04519611
1.90300,18.92830664
1.90350,19.84388986
1.90400,17.70752901
1.90450,17.4023346
1.90500,20.14908427
1.90550,21.67505631
1.90600,20.75947308
1.90650,21.06466749
1.90700,25.3373892
1.90750,29.3049165
1.90800,28.08413887
1.90850,21.67505631
1.90900,14.96077934
1.90950,10.38286322
1.91000,8.246502367
1.91050,7.330919144
1.91100,6.41533592
1.91150,5.499752697
1.91200,5.499752697
1.91250,5.499752697
1.91300,2.753003028
1.91350,-4.266468349
1.91400,-11.28593973
1.91450,-12.50671736
1.91500,-7.013218018
1.91550,0.3114477664
1.91600,5.499752697
1.91650,7.636113551
1.91700,8.246502367
1.91750,8.246502367
1.91800,8.551696774
1.91850,10.99325204
1.91900,15.26597374
1.91950,18.92830664
1.92000,20.14908427
1.92050,18.62311223
1.92100,14.35039052
1.92150,9.467279997
1.92200,7.025724736
1.92250,8.246502367
1.92300,8.856891182
1.92350,6.41533592
1.92400,2.44780862
1.92450,0.6166421741
1.92500,0.006253358679
1.92550,-3.045690718
1.92600,-6.708023611
1.92650,-3.656079534
1.92700,4.584169474
1.92750,9.772474405
1.92800,5.19455829
1.92850,-2.435301903
1.92900,-3.656079534
1.92950,1.837419805
1.93000,7.025724736
1.93050,6.720530328
1.93100,2.753003028
1.93150,-1.214524272
1.93200,-5.48724598
1.93250,-9.45477328
1.93300,-11.28593973
1.93350,-9.759967688
1.93400,-5.48724598
1.93450,0.006253358679
1.93500,7.025724736
1.93550,12.51922407
1.93600,13.12961289
1.93650,8.551696774
1.93700,3.668586251
1.93750,2.753003028
1.93800,4.584169474
1.93850,5.499752697
1.93900,3.973780659
1.93950,0.9218365818
1.94000,-0.298941049
1.94050,0.006253358679
1.94100,0.3114477664
1.94150,-1.51971868
1.94200,-5.792440388
1.94250,-9.759967688
1.94300,-9.759967688
1.94350,-6.708023611
1.94400,-3.045690718
1.94450,-0.6041354567
1.94500,-0.9093298644
1.94550,-3.045690718
1.94600,-3.045690718
1.94650,2.142614213
1.94700,10.99325204
1.94750,14.96077934
1.94800,10.68805763
1.94850,4.889363882
1.94900,5.804947105
1.94950,13.12961289
1.95000,19.23350104
1.95050,18.62311223
1.95100,13.4348073
1.95150,7.330919144
1.95200,0.9218365818
1.95250,-5.792440388
1.95300,-12.20152295
1.95350,-17.08463347
1.95400,-19.83138314
1.95450,-19.83138314
1.95500,-15.86385584
1.95550,-9.149578872
1.95600,-3.045690718
1.95650,1.227030989
1.95700,6.720530328
1.95750,13.74000171
1.95800,17.4023346
1.95850,12.82441848
1.95900,0.3114477664
1.95950,-12.81191176
1.96000,-21.05216077
1.96050,-23.49371603
1.96100,-22.88332722
1.96150,-22.2729384
1.96200,-20.13657755
1.96250,-14.3378838
1.96300,-6.708023611
1.96350,-2.740496311
1.96400,-5.48724598
1.96450,-10.0651621
1.96500,-9.45477328
1.96550,-3.656079534
1.96600,1.532225397
1.96650,1.532225397
1.96700,-1.824913088
1.96750,-5.48724598
1.96800,-8.844384465
1.96850,-13.11710617
1.96900,-18.61060551
1.96950,-22.88332722
1.97000,-25.9352713
1.97050,-27.76643774
1.97100,-28.68202097
1.97150,-27.76643774
1.97200,-25.32488248
1.97250,-20.44177196
1.97300,-12.50671736
1.97350,-3.350885126
1.97400,4.889363882
1.97450,12.51922407
1.97500,20.75947308
1.97550,29.91530531
1.97600,37.2399711
1.97650,39.68152636
1.97700,37.54516551
1.97750,32.66205498
1.97800,28.08413887
1.97850,25.03219479
1.97900,23.50622275
1.97950,20.14908427
1.98000,12.51922407
1.98050,4.889363882
1.98100,2.44780862
1.98150,5.19455829
1.98200,6.110141513
1.98250,3.058197436
1.98300,1.837419805
1.98350,6.720530328
1.98400,11.60364085
1.98450,10.38286322
1.98500,4.889363882
1.98550,2.142614213
1.98600,3.363391843
1.98650,5.19455829
1.98700,5.19455829
1.98750,4.889363882
1.98800,3.668586251
1.98850,0.006253358679
1.98900,-5.792440388
1.98950,-9.149578872
1.99000,-7.928801242
1.99050,-3.961273941
1.99100,0.006253358679
1.99150,2.753003028
1.99200,3.973780659
1.99250,1.532225397
1.99300,-3.656079534
1.99350,-9.149578872
1.99400,-12.81191176
1.99450,-14.0326894
1.99500,-14.64307821
1.99550,-14.64307821
1.99600,-13.11710617
1.99650,-11.89632854
1.99700,-13.72749499
1.99750,-17.69502229
1.99800,-21.35735518
1.99850,-21.66254959
1.99900,-20.44177196
1.99950,-21.05216077
2.00000,-26.2404657
2.00050,-34.1755203
2.00100,-41.8053805
2.00150,-46.68849102
2.00200,-46.38329661
2.00250,-39.36382523
2.00300,-26.54566011
2.00350,-13.72749499
2.00400,-5.48724598
2.00450,-1.824913088
2.00500,1.837419805
2.00550,9.467279997
2.00600,18.92830664
2.00650,24.72700038
2.00700,24.72700038
2.00750,23.20102834
2.00800,23.81141716
2.00850,26.55816683
2.00900,27.47375005
2.00950,25.94777801
2.01000,23.81141716
2.01050,22.89583394
2.01100,21.3698619
2.01150,16.79194578
2.01200,10.07766881
2.01250,2.753003028
2.01300,-4.266468349
2.01350,-11.59113413
2.01400,-16.77943906
2.01450,-20.44177196
2.01500,-23.79891044
2.01550,-28.68202097
2.01600,-32.34435386
2.01650,-31.42877063
2.01700,-24.71449367
2.01750,-16.16905025
2.01800,-9.149578872
2.01850,-4.876857165
2.01900,-2.435301903
2.01950,-2.435301903
2.02000,-5.182051572
2.02050,-8.844384465
2.02100,-10.98074532
2.02150,-9.45477328
2.02200,-5.182051572
2.02250,-1.824913088
2.02300,-2.130107495
2.02350,-6.097634795
2.02400,-10.98074532
2.02450,-15.55866143
2.02500,-19.22099433
2.02550,-23.18852163
2.02600,-29.29240978
2.02650,-36.61707557
2.02700,-41.8053805
2.02750,-42.1105749
2.02800,-39.36382523
2.02850,-38.44824201
2.02900,-40.27940846
2.02950,-41.50018609
2.03000,-40.27940846
2.03050,-38.1430476
2.03100,-35.70149234
2.03150,-30.207993
2.03200,-18.91579992
2.03250,-5.792440388
2.03300,3.058197436
2.03350,7.636113551
2.03400,9.467279997
2.03450,7.941307959
2.03500,1.227030989
2.03550,-7.928801242
2.03600,-14.64307821
2.03650,-15.86385584
2.03700,-14.3378838
2.03750,-11.89632854
2.03800,-6.708023611
2.03850,-0.9093298644
2.03900,0.3114477664
2.03950,-4.571662757
2.04000,-11.89632854
2.04050,-15.55866143
2.04100,-15.25346703
2.04150,-13.72749499
2.04200,-11.59113413
2.04250,-10.0651621
2.04300,-10.67555091
2.04350,-14.64307821
2.04400,-19.52618873
2.04450,-20.13657755
2.04500,-14.94827262
2.04550,-6.708023611
2.04600,1.837419805
2.04650,10.07766881
2.04700,16.79194578
2.04750,21.06466749
2.04800,23.20102834
2.04850,23.50622275
2.04900,21.67505631
2.04950,16.79194578
2.05000,10.68805763
2.05050,6.720530328
2.05100,7.025724736
2.05150,11.60364085
2.05200,17.70752901
2.05250,24.11661157
2.05300,28.99972209
2.05350,31.74647176
2.05400,32.35686058
2.05450,30.83088854
2.05500,26.25297242
2.05550,20.14908427
2.05600,15.57116815
2.05650,15.87636256
2.05700,19.53869545
2.05750,23.20102834
2.05800,25.3373892
2.05850,28.08413887
2.05900,32.35686058
2.05950,35.71399906
2.06000,35.10361024
2.06050,30.52569413
2.06100,24.11661157
2.06150,17.4023346
2.06200,12.82441848
2.06250,12.82441848
2.06300,17.09714019
2.06350,19.23350104
2.06400,13.74000171
2.06450,3.668586251
2.06500,-1.51971868
2.06550,-0.298941049
2.06600,0.9218365818
2.06650,-1.51971868
2.06700,-5.182051572
2.06750,-7.013218018
2.06800,-10.67555091
2.06850,-18.3054111
2.06900,-23.49371603
2.06950,-18.61060551
2.07000,-7.928801242
2.07050,-1.824913088
2.07100,-3.350885126
2.07150,-6.097634795
2.07200,-3.961273941
2.07250,-0.298941049
2.07300,0.006253358679
2.07350,-0.6041354567
2.07400,0.3114477664
2.07450,3.973780659
2.07500,6.41533592
2.07550,5.804947105
2.07600,5.19455829
2.07650,7.330919144
2.07700,11.90883526
2.07750,14.65558493
2.07800,12.21402967
2.07850,6.41533592
2.07900,2.753003028
2.07950,3.363391843
2.08000,3.363391843
2.08050,-2.435301903
2.08100,-12.50671736
2.08150,-21.66254959
2.08200,-28.37682656
2.08250,-35.09110353
2.08300,-42.72096372
2.08350,-47.29887984
2.08400,-46.0781022
2.08450,-39.97421405
2.08500,-31.42877063
2.08550,-21.967744
2.08600,-13.72749499
2.08650,-7.013218018
2.08700,-1.51971868
2.08750,4.584169474
2.08800,12.51922407
2.08850,19.84388986
2.08900,23.81141716
2.08950,22.89583394
2.09000,19.23350104
2.09050,14.35039052
2.09100,10.07766881
2.09150,8.246502367
2.09200,10.07766881
2.09250,14.96077934
2.09300,19.53869545
2.09350,18.62311223
2.09400,11.90883526
2.09450,3.363391843
2.09500,-3.350885126
2.09550,-8.233995649
2.09600,-11.28593973
2.09650,-10.3703565
2.09700,-4.266468349
2.09750,2.142614213
2.09800,3.668586251
2.09850,-0.298941049
2.09900,-6.402829203
2.09950,-11.59113413
2.10000,-15.25346703
2.10050,-15.86385584
2.10100,-13.11710617
2.10150,-10.3703565
2.10200,-9.759967688
2.10250,-6.708023611
2.10300,3.058197436
2.10350,15.57116815
2.10400,20.75947308
2.10450,16.18155697
2.10500,10.99325204
2.10550,11.90883526
2.10600,14.04519611
2.10650,10.99325204
2.10700,3.363391843
2.10750,-3.350885126
2.10800,-7.928801242
2.10850,-10.3703565
2.10900,-10.67555091
2.10950,-8.233995649
2.11000,-7.013218018
2.11050,-7.928801242
2.11100,-7.623606834
2.11150,-1.214524272
2.11200,8.856891182
2.11250,17.70752901
2.11300,23.20102834
2.11350,26.86336124
2.11400,28.69452768
2.11450,27.47375005
2.11500,24.11661157
2.11550,21.3698619
2.11600,17.70752901
2.11650,10.68805763
2.11700,1.227030989
2.11750,-5.792440388
2.11800,-7.623606834
2.11850,-5.792440388
2.11900,-3.350885126
2.11950,-1.824913088
2.12000,0.6166421741
2.12050,4.889363882
2.12100,11.90883526
2.12150,20.45427867
2.12200,28.69452768
2.12250,34.18802702
2.12300,36.32438788
2.12350,35.10361024
2.12400,29.91530531
2.12450,21.67505631
2.12500,13.4348073
2.12550,8.551696774
2.12600,7.025724736
2.12650,6.720530328
2.12700,3.668586251
2.12750,-1.824913088
2.12800,-7.928801242
2.12850,-10.98074532
2.12900,-11.59113413
2.12950,-10.67555091
2.13000,-7.318412426
2.13050,-0.6041354567
2.13100,7.025724736
2.13150,10.07766881
2.13200,7.636113551
2.13250,4.889363882
2.13300,7.025724736
2.13350,11.29844644
2.13400,10.38286322
2.13450,2.753003028
2.13500,-7.318412426
2.13550,-15.25346703
2.13600,-18.91579992
2.13650,-18.61060551
2.13700,-15.86385584
2.13750,-14.0326894
2.13800,-14.64307821
2.13850,-15.55866143
2.13900,-14.0326894
2.13950,-9.759967688
2.14000,-4.266468349
2.14050,1.837419805
2.14100,9.772474405
2.14150,17.09714019
2.14200,21.06466749
2.14250,22.28544512
2.14300,22.28544512
2.14350,21.67505631
2.14400,19.23350104
2.14450,17.09714019
2.14500,16.48675137
2.14550,16.48675137
2.14600,14.35039052
2.14650,10.68805763
2.14700,7.941307959
2.14750,6.41533592
2.14800,4.584169474
2.14850,4.584169474
2.14900,8.246502367
2.14950,14.04519611
2.15000,17.70752901
2.15050,17.4023346
2.15100,15.26597374
2.15150,14.04519611
2.15200,12.51922407
2.15250,10.38286322
2.15300,7.025724736
2.15350,2.142614213
2.15400,-3.350885126
2.15450,-6.097634795
2.15500,-3.350885126
2.15550,-0.298941049
2.15600,-5.182051572
2.15650,-17.08463347
2.15700,-25.63007689
2.15750,-24.40929926
2.15800,-19.52618873
2.15850,-19.52618873
2.15900,-25.63007689
2.15950,-31.42877063
2.16000,-32.95474267
2.16050,-29.59760419
2.16100,-24.10410485
2.16150,-18.61060551
2.16200,-14.64307821
2.16250,-10.98074532
2.16300,-3.656079534
2.16350,8.551696774
2.16400,21.06466749
2.16450,24.42180597
2.16500,15.87636256
2.16550,1.837419805
2.16600,-8.539190057
2.16650,-12.20152295
2.16700,-11.89632854
2.16750,-10.0651621
2.16800,-5.792440388
2.16850,0.9218365818
2.16900,5.499752697
2.16950,3.668586251
2.17000,0.3114477664
2.17050,3.973780659
2.17100,15.26597374
2.17150,24.72700038
2.17200,25.94777801
2.17250,25.64258361
2.17300,31.13608294
2.17350,36.93477669
2.17400,32.35686058
2.17450,18.31791782
2.17500,7.636113551
2.17550,6.110141513
2.17600,7.330919144
2.17650,3.363391843
2.17700,-2.740496311
2.17750,-6.402829203
2.17800,-8.233995649
2.17850,-11.59113413
2.17900,-16.16905025
2.17950,-17.38982788
2.18000,-14.3378838
2.18050,-8.844384465
2.18100,-1.824913088
2.18150,4.889363882
2.18200,8.856891182
2.18250,7.941307959
2.18300,4.278975066
2.18350,1.837419805
2.18400,0.006253358679
2.18450,-5.48724598
2.18500,-14.3378838
2.18550,-22.88332722
2.18600,-28.68202097
2.18650,-32.64954827
2.18700,-34.78590912
2.18750,-33.56513149
2.18800,-29.29240978
2.18850,-25.32488248
2.18900,-23.18852163
2.18950,-19.22099433
2.19000,-10.3703565
2.19050,0.3114477664
2.19100,9.772474405
2.19150,16.79194578
2.19200,24.11661157
2.19250,32.05166617
2.19300,35.71399906
2.19350,32.66205498
2.19400,26.55816683
2.19450,23.20102834
2.19500,23.50622275
2.19550,22.89583394
2.19600,18.92830664
2.19650,12.51922407
2.19700,3.973780659
2.19750,-6.097634795
2.19800,-14.64307821
2.19850,-16.47424466
2.19900,-11.89632854
2.19950,-9.149578872
2.20000,-16.77943906
2.20050,-30.207993
2.20100,-38.1430476
2.20150,-35.70149234
2.20200,-29.29240978
2.20250,-26.2404657
2.20300,-26.2404657
2.20350,-22.88332722
2.20400,-13.72749499
2.20450,-3.045690718
2.20500,3.363391843
2.20550,6.110141513
2.20600,7.025724736
2.20650,8.551696774
2.20700,10.07766881
2.20750,8.856891182
2.20800,4.584169474
2.20850,-1.214524272
2.20900,-6.097634795
2.20950,-8.844384465
2.21000,-10.0651621
2.21050,-11.28593973
2.21100,-13.42230058
2.21150,-15.86385584
2.21200,-19.22099433
2.21250,-21.35735518
2.21300,-21.35735518
2.21350,-19.22099433
2.21400,-17.08463347
2.21450,-15.55866143
2.21500,-14.0326894
2.21550,-12.20152295
2.21600,-9.45477328
2.21650,-4.266468349
2.21700,3.363391843
2.21750,10.68805763
2.21800,13.74000171
2.21850,11.90883526
2.21900,7.636113551
2.21950,2.142614213
2.22000,-3.656079534
2.22050,-8.844384465
2.22100,-10.98074532
2.22150,-11.59113413
2.22200,-12.50671736
2.22250,-10.67555091
2.22300,-3.350885126
2.22350,6.720530328
2.22400,13.4348073
2.22450,16.18155697
2.22500,19.84388986
2.22550,28.08413887
2.22600,36.01919347
2.22650,40.29191518
2.22700,43.34385925
2.22750,48.83735859
2.22800,53.41527471
2.22850,52.80488589
2.22900,47.00619214
2.22950,39.98672077
2.23000,34.79841584
2.23050,30.83088854
2.23100,28.08413887
2.23150,26.25297242
2.23200,25.64258361
2.23250,25.64258361
2.23300,28.08413887
2.23350,34.49322143
2.23400,42.12308162
2.23450,44.25944248
2.23500,37.2399711
2.23550,24.72700038
2.23600,14.04519611
2.23650,9.467279997
2.23700,8.246502367
2.23750,3.973780659
2.23800,-4.571662757
2.23850,-12.81191176
2.23900,-16.16905025
2.23950,-17.69502229
2.24000,-22.57813281
2.24050,-31.42877063
2.24100,-39.66901964
2.24150,-44.85732457
2.24200,-45.7729078
2.24250,-42.41576931
2.24300,-35.09110353
2.24350,-28.68202097
2.24400,-27.46124333
2.24450,-28.98721537
2.24500,-27.15604893
2.24550,-21.05216077
2.24600,-16.16905025
2.24650,-15.25346703
2.24700,-16.47424466
2.24750,-18.3054111
2.24800,-23.18852163
2.24850,-31.42877063
2.24900,-37.53265879
2.24950,-36.92226997
2.25000,-32.64954827
2.25050,-30.81838182
2.25100,-32.34435386
2.25150,-33.25993708
2.25200,-28.68202097
2.25250,-18.61060551
2.25300,-6.708023611
2.25350,2.753003028
2.25400,9.467279997
2.25450,14.96077934
2.25500,21.06466749
2.25550,28.08413887
2.25600,35.10361024
2.25650,41.2074984
2.25700,45.78541451
2.25750,44.86983129
2.25800,37.2399711
2.25850,27.47375005
2.25900,22.28544512
2.25950,23.50622275
2.26000,26.86336124
2.26050,27.47375005
2.26100,27.16855564
2.26150,28.69452768
2.26200,30.52569413
2.26250,28.69452768
2.26300,21.67505631
2.26350,12.21402967
2.26400,3.058197436
2.26450,-3.045690718
2.26500,-6.097634795
2.26550,-5.182051572
2.26600,-2.130107495
2.26650,0.3114477664
2.26700,2.753003028
2.26750,7.025724736
2.26800,14.35039052
2.26850,20.45427867
2.26900,22.28544512
2.26950,21.3698619
2.27000,21.06466749
2.27050,18.31791782
2.27100,5.499752697
2.27150,-15.86385584
2.27200,-35.39629793
2.27250,-42.72096372
2.27300,-40.58460287
2.27350,-37.53265879
2.27400,-36.31188116
2.27450,-34.48071471
2.27500,-33.25993708
2.27550,-36.00668675
2.27600,-40.27940846
2.27650,-39.36382523
2.27700,-32.03915945
2.27750,-24.40929926
2.27800,-19.83138314
2.27850,-14.94827262
2.27900,-6.097634795
2.27950,4.584169474
2.28000,12.21402967
2.28050,17.4023346
2.28100,22.59063953
2.28150,26.25297242
2.28200,25.64258361
2.28250,20.14908427
2.28300,13.74000171
2.28350,10.99325204
2.28400,12.82441848
2.28450,13.4348073
2.28500,7.330919144
2.28550,-4.571662757
2.28600,-14.3378838
2.28650,-17.38982788
2.28700,-18.91579992
2.28750,-27.15604893
2.28800,-40.58460287
2.28850,-49.13004628
2.28900,-50.35082391
2.28950,-50.65601832
2.29000,-53.7079624
2.29050,-54.0131568
2.29100,-46.68849102
2.29150,-38.1430476
2.29200,-35.70149234
2.29250,-36.00668675
2.29300,-32.95474267
2.29350,-27.76643774
2.29400,-25.63007689
2.29450,-23.18852163
2.29500,-12.50671736
2.29550,3.973780659
2.29600,14.65558493
2.29650,15.26597374
2.29700,15.26597374
2.29750,24.11661157
2.29800,37.2399711
2.29850,43.95424807
2.29900,39.98672077
2.29950,31.74647176
2.30000,26.55816683
2.30050,26.55816683
2.30100,29.61011091
2.30150,32.96724939
2.30200,34.18802702
2.30250,31.74647176
2.30300,26.86336124
2.30350,22.28544512
2.30400,19.23350104
2.30450,15.57116815
2.30500,10.38286322
2.30550,4.584169474
2.30600,0.006253358679
2.30650,-1.214524272
2.30700,0.006253358679
2.30750,3.363391843
2.30800,9.16208559
2.30850,15.57116815
2.30900,22.59063953
2.30950,30.22049972
2.31000,36.93477669
2.31050,38.15555432
2.31100,32.05166617
2.31150,20.75947308
2.31200,7.941307959
2.31250,-5.48724598
2.31300,-18.91579992
2.31350,-27.15604893
2.31400,-26.54566011
2.31450,-19.83138314
2.31500,-13.42230058
2.31550,-9.45477328
2.31600,-5.48724598
2.31650,-0.298941049
2.31700,2.142614213
2.31750,0.6166421741
2.31800,-2.435301903
2.31850,-4.571662757
2.31900,-8.233995649
2.31950,-15.55866143
2.32000,-23.49371603
2.32050,-25.63007689
2.32100,-20.74696637
2.32150,-14.3378838
2.32200,-11.89632854
2.32250,-13.42230058
2.32300,-14.64307821
2.32350,-11.89632854
2.32400,-8.233995649
2.32450,-6.708023611
2.32500,-5.792440388
2.32550,-2.435301903
2.32600,1.227030989
2.32650,-1.214524272
2.32700,-9.759967688
2.32750,-17.69502229
2.32800,-20.44177196
2.32850,-23.79891044
2.32900,-29.9027986
2.32950,-32.34435386
2.33000,-26.85085452
2.33050,-20.13657755
2.33100,-19.83138314
2.33150,-21.967744
2.33200,-17.38982788
2.33250,-7.928801242
2.33300,-4.266468349
2.33350,-9.759967688
2.33400,-17.69502229
2.33450,-22.57813281
2.33500,-25.9352713
2.33550,-27.15604893
2.33600,-22.57813281
2.33650,-13.11710617
2.33700,-3.350885126
2.33750,4.889363882
2.33800,15.87636256
2.33850,26.86336124
2.33900,29.61011091
2.33950,22.59063953
2.34000,13.12961289
2.34050,7.636113551
2.34100,4.278975066
2.34150,-2.130107495
2.34200,-10.67555091
2.34250,-15.55866143
2.34300,-16.47424466
2.34350,-17.69502229
2.34400,-21.967744
2.34450,-26.85085452
2.34500,-28.98721537
2.34550,-26.85085452
2.34600,-22.2729384
2.34650,-16.16905025
2.34700,-9.759967688
2.34750,-5.48724598
2.34800,-5.48724598
2.34850,-10.0651621
2.34900,-12.20152295
2.34950,-4.876857165
2.35000,8.551696774
2.35050,19.23350104
2.35100,20.75947308
2.35150,18.01272341
2.35200,15.87636256
2.35250,12.82441848
2.35300,6.720530328
2.35350,1.837419805
2.35400,3.973780659
2.35450,10.99325204
2.35500,15.26597374
2.35550,12.51922407
2.35600,7.330919144
2.35650,3.363391843
2.35700,0.9218365818
2.35750,0.006253358679
2.35800,3.363391843
2.35850,10.38286322
2.35900,17.09714019
2.35950,20.45427867
2.36000,21.67505631
2.36050,23.50622275
2.36100,26.25297242
2.36150,28.08413887
2.36200,28.08413887
2.36250,27.47375005
2.36300,26.86336124
2.36350,24.72700038
2.36400,20.14908427
2.36450,12.82441848
2.36500,3.973780659
2.36550,-4.876857165
2.36600,-13.11710617
2.36650,-19.52618873
2.36700,-23.18852163
2.36750,-22.88332722
2.36800,-18.91579992
2.36850,-13.42230058
2.36900,-9.149578872
2.36950,-8.233995649
2.37000,-9.759967688
2.37050,-11.28593973
2.37100,-11.59113413
2.37150,-11.89632854
2.37200,-15.25346703
2.37250,-21.35735518
2.37300,-25.63007689
2.37350,-22.88332722
2.37400,-15.25346703
2.37450,-9.149578872
2.37500,-7.013218018
2.37550,-3.961273941
2.37600,3.058197436
2.37650,11.29844644
2.37700,15.57116815
2.37750,16.79194578
2.37800,18.62311223
2.37850,21.06466749
2.37900,20.14908427
2.37950,15.87636256
2.38000,11.60364085
2.38050,8.856891182
2.38100,6.110141513
2.38150,2.142614213
2.38200,-3.350885126
2.38250,-9.45477328
2.38300,-14.0326894
2.38350,-12.81191176
2.38400,-6.097634795
2.38450,1.227030989
2.38500,5.499752697
2.38550,8.856891182
2.38600,12.82441848
2.38650,13.74000171
2.38700,5.804947105
2.38750,-5.48724598
2.38800,-10.0651621
2.38850,-5.182051572
2.38900,0.006253358679
2.38950,-1.214524272
2.39000,-6.708023611
2.39050,-10.98074532
2.39100,-12.81191176
2.39150,-13.42230058
2.39200,-10.0651621
2.39250,-0.6041354567
2.39300,10.99325204
2.39350,20.45427867
2.39400,26.86336124
2.39450,34.79841584
2.39500,44.56463688
2.39550,52.19449708
2.39600,53.41527471
2.39650,49.142553
2.39700,42.42827603
2.39750,35.40880465
2.39800,28.08413887
2.39850,21.06466749
2.39900,15.87636256
2.39950,12.51922407
2.40000,10.07766881
2.40050,7.941307959
2.40100,5.499752697
2.40150,3.363391843
2.40200,0.9218365818
2.40250,-0.6041354567
2.40300,-1.824913088
2.40350,-2.435301903
2.40400,-2.740496311
2.40450,-3.656079534
2.40500,-4.571662757
2.40550,-6.708023611
2.40600,-10.67555091
2.40650,-15.55866143
2.40700,-18.3054111
2.40750,-17.08463347
2.40800,-15.86385584
2.40850,-18.3054111
2.40900,-22.88332722
2.40950,-23.79891044
2.41000,-19.83138314
2.41050,-14.0326894
2.41100,-9.149578872
2.41150,-2.130107495
2.41200,8.856891182
2.41250,20.45427867
2.41300,29.91530531
2.41350,40.90230399
2.41400,56.77241319
2.41450,71.42174476
2.41500,73.25291121
2.41550,61.96071812
2.41600,47.61658096
2.41650,38.15555432
2.41700,31.13608294
2.41750,23.20102834
2.41800,17.4023346
2.41850,17.4023346
2.41900,21.3698619
2.41950,23.20102834
2.42000,21.98025071
2.42050,22.28544512
2.42100,28.08413887
2.42150,36.01919347
2.42200,38.76594314
2.42250,32.96724939
2.42300,22.28544512
2.42350,14.04519611
2.42400,9.16208559
2.42450,3.363391843
2.42500,-3.350885126
2.42550,-4.876857165
2.42600,1.227030989
2.42650,7.941307959
2.42700,7.025724736
2.42750,2.142614213
2.42800,1.837419805
2.42850,5.804947105
2.42900,7.025724736
2.42950,5.804947105
2.43000,8.856891182
2.43050,14.35039052
2.43100,10.38286322
2.43150,-7.623606834
2.43200,-28.07163215
2.43250,-39.66901964
2.43300,-43.63654694
2.43350,-45.7729078
2.43400,-44.24693576
2.43450,-34.78590912
2.43500,-20.74696637
2.43550,-10.67555091
2.43600,-8.233995649
2.43650,-11.59113413
2.43700,-19.22099433
2.43750,-28.37682656
2.43800,-32.03915945
2.43850,-25.9352713
2.43900,-14.0326894
2.43950,-5.48724598
2.44000,-3.350885126
2.44050,-2.435301903
2.44100,0.006253358679
2.44150,2.142614213
2.44200,2.753003028
2.44250,3.363391843
2.44300,4.584169474
2.44350,4.584169474
2.44400,0.006253358679
2.44450,-7.318412426
2.44500,-13.11710617
2.44550,-14.0326894
2.44600,-10.98074532
2.44650,-6.097634795
2.44700,0.006253358679
2.44750,8.551696774
2.44800,18.62311223
2.44850,25.03219479
2.44900,25.64258361
2.44950,22.28544512
2.45000,18.92830664
2.45050,16.18155697
2.45100,12.51922407
2.45150,8.551696774
2.45200,7.941307959
2.45250,12.51922407
2.45300,18.92830664
2.45350,21.98025071
2.45400,19.84388986
2.45450,14.65558493
2.45500,10.07766881
2.45550,7.330919144
2.45600,5.804947105
2.45650,3.363391843
2.45700,1.227030989
2.45750,0.006253358679
2.45800,0.006253358679
2.45850,-1.51971868
2.45900,-3.656079534
2.45950,-4.571662757
2.46000,-4.266468349
2.46050,-6.402829203
2.46100,-14.64307821
2.46150,-26.54566011
2.46200,-36.31188116
2.46250,-41.50018609
2.46300,-44.24693576
2.46350,-44.85732457
2.46400,-40.27940846
2.46450,-28.37682656
2.46500,-12.20152295
2.46550,2.753003028
2.46600,14.35039052
2.46650,21.98025071
2.46700,24.11661157
2.46750,18.01272341
2.46800,6.41533592
2.46850,-3.656079534
2.46900,-9.45477328
2.46950,-14.0326894
2.47000,-19.83138314
2.47050,-25.32488248
2.47100,-26.85085452
2.47150,-26.54566011
2.47200,-28.07163215
2.47250,-29.29240978
2.47300,-25.32488248
2.47350,-13.72749499
2.47400,-1.214524272
2.47450,6.41533592
2.47500,10.68805763
2.47550,14.96077934
2.47600,21.06466749
2.47650,27.47375005
2.47700,33.57763821
2.47750,37.54516551
2.47800,35.71399906
2.47850,28.69452768
2.47900,20.14908427
2.47950,14.96077934
2.48000,12.82441848
2.48050,11.29844644
2.48100,9.772474405
2.48150,9.16208559
2.48200,7.941307959
2.48250,3.058197436
2.48300,-3.656079534
2.48350,-7.623606834
2.48400,-6.402829203
2.48450,-3.656079534
2.48500,-3.350885126
2.48550,-6.097634795
2.48600,-11.28593973
2.48650,-18.3054111
2.48700,-25.9352713
2.48750,-29.59760419
2.48800,-27.15604893
2.48850,-20.44177196
2.48900,-12.81191176
2.48950,-5.48724598
2.49000,2.142614213
2.49050,8.246502367
2.49100,10.07766881
2.49150,9.467279997
2.49200,9.467279997
2.49250,9.467279997
2.49300,4.584169474
2.49350,-7.318412426
2.49400,-19.22099433
2.49450,-22.88332722
2.49500,-18.0002167
2.49550,-11.89632854
2.49600,-10.0651621
2.49650,-10.0651621
2.49700,-7.928801242
2.49750,-4.266468349
2.49800,-3.656079534
2.49850,-5.792440388
2.49900,-8.233995649
2.49950,-9.45477328
2.50000,-11.28593973
2.50050,-14.3378838
2.50100,-16.77943906
2.50150,-18.3054111
2.50200,-21.05216077
2.50250,-25.01968807
2.50300,-25.01968807
2.50350,-19.52618873
2.50400,-11.28593973
2.50450,-5.48724598
2.50500,-0.9093298644
2.50550,4.584169474
2.50600,10.68805763
2.50650,13.74000171
2.50700,15.87636256
2.50750,20.45427867
2.50800,25.94777801
2.50850,26.55816683
2.50900,21.3698619
2.50950,14.04519611
2.51000,7.025724736
2.51050,-0.6041354567
2.51100,-7.623606834
2.51150,-8.539190057
2.51200,-3.045690718
2.51250,1.227030989
2.51300,-0.298941049
2.51350,-5.182051572
2.51400,-9.45477328
2.51450,-13.72749499
2.51500,-16.77943906
2.51550,-10.98074532
2.51600,6.41533592
2.51650,25.94777801
2.51700,32.66205498
2.51750,24.11661157
2.51800,11.29844644
2.51850,2.753003028
2.51900,-1.214524272
2.51950,-4.876857165
2.52000,-6.097634795
2.52050,-0.9093298644
2.52100,10.07766881
2.52150,20.45427867
2.52200,23.81141716
2.52250,19.84388986
2.52300,14.96077934
2.52350,14.04519611
2.52400,15.26597374
2.52450,13.74000171
2.52500,8.856891182
2.52550,5.19455829
2.52600,4.278975066
2.52650,0.3114477664
2.52700,-8.539190057
2.52750,-18.0002167
2.52800,-21.35735518
2.52850,-19.52618873
2.52900,-17.69502229
2.52950,-16.16905025
2.53000,-10.67555091
2.53050,-0.298941049
2.53100,9.16208559
2.53150,13.4348073
2.53200,11.60364085
2.53250,8.551696774
2.53300,7.941307959
2.53350,11.90883526
2.53400,17.70752901
2.53450,21.98025071
2.53500,22.28544512
2.53550,19.53869545
2.53600,16.48675137
2.53650,13.74000171
2.53700,9.772474405
2.53750,2.753003028
2.53800,-6.402829203
2.53850,-14.3378838
2.53900,-17.38982788
2.53950,-14.0326894
2.54000,-9.149578872
2.54050,-7.928801242
2.54100,-10.3703565
2.54150,-13.42230058
2.54200,-14.64307821
2.54250,-14.0326894
2.54300,-11.89632854
2.54350,-9.149578872
2.54400,-8.539190057
2.54450,-11.28593973
2.54500,-13.72749499
2.54550,-10.98074532
2.54600,-5.48724598
2.54650,-4.571662757
2.54700,-8.539190057
2.54750,-10.98074532
2.54800,-9.149578872
2.54850,-8.844384465
2.54900,-14.64307821
2.54950,-20.74696637
2.55000,-19.52618873
2.55050,-11.59113413
2.55100,-3.961273941
2.55150,-0.9093298644
2.55200,-2.435301903
2.55250,-6.402829203
2.55300,-11.28593973
2.55350,-13.11710617
2.55400,-10.98074532
2.55450,-7.928801242
2.55500,-7.623606834
2.55550,-10.3703565
2.55600,-12.50671736
2.55650,-12.50671736
2.55700,-10.3703565
2.55750,-6.708023611
2.55800,-1.824913088
2.55850,0.9218365818
2.55900,-0.9093298644
2.55950,-7.013218018
2.56000,-14.3378838
2.56050,-22.2729384
2.56100,-31.73396504
2.56150,-39.05863083
2.56200,-40.27940846
2.56250,-35.09110353
2.56300,-28.07163215
2.56350,-23.79891044
2.56400,-21.967744
2.56450,-22.57813281
2.56500,-25.32488248
2.56550,-27.15604893
2.56600,-22.57813281
2.56650,-9.45477328
2.56700,3.363391843
2.56750,8.856891182
2.56800,7.941307959
2.56850,7.330919144
2.56900,5.804947105
2.56950,-1.824913088
2.57000,-13.11710617
2.57050,-17.08463347
2.57100,-8.233995649
2.57150,4.278975066
2.57200,12.21402967
2.57250,15.26597374
2.57300,19.84388986
2.57350,23.81141716
2.57400,21.06466749
2.57450,14.04519611
2.57500,10.68805763
2.57550,13.12961289
2.57600,14.35039052
2.57650,8.551696774
2.57700,0.006253358679
2.57750,-5.182051572
2.57800,-4.571662757
2.57850,-1.214524272
2.57900,1.532225397
2.57950,3.973780659
2.58000,7.330919144
2.58050,14.96077934
2.58100,26.25297242
2.58150,35.10361024
2.58200,33.2724438
2.58250,23.50622275
2.58300,15.87636256
2.58350,16.18155697
2.58400,19.53869545
2.58450,20.75947308
2.58500,22.59063953
2.58550,30.22049972
2.58600,40.29191518
2.58650,42.73347044
2.58700,35.10361024
2.58750,24.11661157
2.58800,16.79194578
2.58850,13.4348073
2.58900,9.772474405
2.58950,6.41533592
2.59000,6.110141513
2.59050,10.99325204
2.59100,17.09714019
2.59150,18.31791782
2.59200,11.60364085
2.59250,1.227030989
2.59300,-6.402829203
2.59350,-9.45477328
2.59400,-10.0651621
2.59450,-9.759967688
2.59500,-7.623606834
2.59550,-4.266468349
2.59600,-2.435301903
2.59650,-4.266468349
2.59700,-6.708023611
2.59750,-5.182051572
2.59800,0.006253358679
2.59850,4.278975066
2.59900,2.44780862
2.59950,-2.740496311
2.60000,-5.48724598
2.60050,-1.824913088
2.60100,4.584169474
2.60150,6.41533592
2.60200,0.6166421741
2.60250,-8.539190057
2.60300,-16.16905025
2.60350,-20.74696637
2.60400,-23.18852163
2.60450,-21.967744
2.60500,-14.64307821
2.60550,-1.824913088
2.60600,10.68805763
2.60650,19.84388986
2.60700,24.42180597
2.60750,24.42180597
2.60800,20.14908427
2.60850,11.90883526
2.60900,1.227030989
2.60950,-9.45477328
2.61000,-18.91579992
2.61050,-24.40929926
2.61100,-27.46124333
2.61150,-31.42877063
2.61200,-37.53265879
2.61250,-43.02615813
2.61300,-43.33135253
2.61350,-39.97421405
2.61400,-36.92226997
2.61450,-33.56513149
2.61500,-25.32488248
2.61550,-12.81191176
2.61600,-1.51971868
2.61650,4.584169474
2.61700,8.856891182
2.61750,14.35039052
2.61800,21.06466749
2.61850,26.55816683
2.61900,30.22049972
2.61950,30.22049972
2.62000,25.64258361
2.62050,17.09714019
2.62100,7.330919144
2.62150,-1.824913088
2.62200,-12.81191176
2.62250,-26.54566011
2.62300,-39.05863083
2.62350,-45.16251898
2.62400,-43.94174135
2.62450,-39.66901964
2.62500,-36.61707557
2.62550,-34.48071471
2.62600,-30.81838182
2.62650,-25.01968807
2.62700,-16.77943906
2.62750,-6.708023611
2.62800,3.363391843
2.62850,11.90883526
2.62900,15.87636256
2.62950,15.87636256
2.63000,15.26597374
2.63050,17.70752901
2.63100,21.06466749
2.63150,21.06466749
2.63200,14.35039052
2.63250,4.584169474
2.63300,-0.9093298644
2.63350,-0.9093298644
2.63400,0.006253358679
2.63450,-4.266468349
2.63500,-10.98074532
2.63550,-12.50671736
2.63600,-5.48724598
2.63650,2.142614213
2.63700,2.753003028
2.63750,-0.298941049
2.63800,0.006253358679
2.63850,4.278975066
2.63900,7.330919144
2.63950,5.804947105
2.64000,3.058197436
2.64050,1.227030989
2.64100,-2.740496311
2.64150,-10.3703565
2.64200,-15.86385584
2.64250,-15.86385584
2.64300,-14.64307821
2.64350,-18.61060551
2.64400,-25.01968807
2.64450,-27.76643774
2.64500,-25.63007689
2.64550,-22.2729384
2.64600,-18.0002167
2.64650,-10.0651621
2.64700,0.006253358679
2.64750,7.636113551
2.64800,10.38286322
2.64850,11.29844644
2.64900,11.90883526
2.64950,11.60364085
2.65000,10.38286322
2.65050,9.467279997
2.65100,7.941307959
2.65150,3.363391843
2.65200,-3.656079534
2.65250,-10.98074532
2.65300,-17.08463347
2.65350,-23.18852163
2.65400,-27.76643774
2.65450,-27.76643774
2.65500,-25.9352713
2.65550,-29.29240978
2.65600,-38.1430476
2.65650,-43.02615813
2.65700,-36.31188116
2.65750,-22.2729384
2.65800,-9.149578872
2.65850,2.753003028
2.65900,17.70752901
2.65950,33.57763821
2.66000,42.73347044
2.66050,43.34385925
2.66100,40.29191518
2.66150,36.01919347
2.66200,28.38933327
2.66250,17.70752901
2.66300,9.467279997
2.66350,6.41533592
2.66400,4.278975066
2.66450,-1.214524272
2.66500,-6.708023611
2.66550,-6.708023611
2.66600,-2.435301903
2.66650,1.227030989
2.66700,3.058197436
2.66750,3.363391843
2.66800,-0.9093298644
2.66850,-11.59113413
2.66900,-20.74696637
2.66950,-20.74696637
2.67000,-13.42230058
2.67050,-8.539190057
2.67100,-9.759967688
2.67150,-11.28593973
2.67200,-8.233995649
2.67250,-2.130107495
2.67300,1.227030989
2.67350,0.6166421741
2.67400,-3.045690718
2.67450,-6.708023611
2.67500,-7.928801242
2.67550,-6.402829203
2.67600,-6.097634795
2.67650,-8.844384465
2.67700,-10.67555091
2.67750,-7.623606834
2.67800,-2.435301903
2.67850,0.3114477664
2.67900,2.44780862
2.67950,5.19455829
2.68000,6.720530328
2.68050,5.19455829
2.68100,6.110141513
2.68150,14.04519611
2.68200,24.42180597
2.68250,25.64258361
2.68300,17.09714019
2.68350,6.110141513
2.68400,-0.298941049
2.68450,-4.266468349
2.68500,-6.708023611
2.68550,-5.48724598
2.68600,-1.51971868
2.68650,2.753003028
2.68700,9.16208559
2.68750,16.48675137
2.68800,17.09714019
2.68850,3.363391843
2.68900,-17.38982788
2.68950,-29.9027986
2.69000,-29.59760419
2.69050,-27.46124333
2.69100,-32.34435386
2.69150,-37.22746438
2.69200,-32.95474267
2.69250,-21.35735518
2.69300,-10.0651621
2.69350,-0.9093298644
2.69400,7.330919144
2.69450,13.74000171
2.69500,15.26597374
2.69550,12.82441848
2.69600,9.772474405
2.69650,8.856891182
2.69700,10.07766881
2.69750,13.4348073
2.69800,18.01272341
2.69850,20.45427867
2.69900,19.84388986
2.69950,18.01272341
2.70000,17.09714019
2.70050,17.4023346
2.70100,18.31791782
2.70150,21.06466749
2.70200,24.72700038
2.70250,27.47375005
2.70300,28.69452768
2.70350,30.22049972
2.70400,31.74647176
2.70450,29.91530531
2.70500,22.89583394
2.70550,13.4348073
2.70600,7.330919144
2.70650,7.025724736
2.70700,12.21402967
2.70750,18.31791782
2.70800,21.06466749
2.70850,17.70752901
2.70900,10.38286322
2.70950,4.278975066
2.71000,0.9218365818
2.71050,-1.51971868
2.71100,-4.876857165
2.71150,-8.233995649
2.71200,-12.20152295
2.71250,-19.22099433
2.71300,-28.98721537
2.71350,-35.09110353
2.71400,-30.81838182
2.71450,-17.38982788
2.71500,-3.045690718
2.71550,3.668586251
2.71600,3.973780659
2.71650,2.44780862
2.71700,3.363391843
2.71750,4.889363882
2.71800,3.668586251
2.71850,1.227030989
2.71900,1.837419805
2.71950,8.551696774
2.72000,17.4023346
2.72050,24.42180597
2.72100,28.69452768
2.72150,30.52569413
2.72200,29.91530531
2.72250,28.38933327
2.72300,27.47375005
2.72350,26.25297242
2.72400,22.89583394
2.72450,17.09714019
2.72500,12.51922407
2.72550,8.551696774
2.72600,1.532225397
2.72650,-9.759967688
2.72700,-20.44177196
2.72750,-25.32488248
2.72800,-25.01968807
2.72850,-21.66254959
2.72900,-16.47424466
2.72950,-9.45477328
2.73000,-4.266468349
2.73050,-2.740496311
2.73100,-1.214524272
2.73150,3.363391843
2.73200,9.467279997
2.73250,11.29844644
2.73300,9.772474405
2.73350,11.60364085
2.73400,18.31791782
2.73450,24.72700038
2.73500,25.64258361
2.73550,19.23350104
2.73600,7.330919144
2.73650,-7.013218018
2.73700,-17.69502229
2.73750,-20.13657755
2.73800,-16.47424466
2.73850,-14.3378838
2.73900,-16.16905025
2.73950,-16.47424466
2.74000,-11.59113413
2.74050,-5.48724598
2.74100,-2.435301903
2.74150,-1.51971868
2.74200,0.9218365818
2.74250,5.499752697
2.74300,9.772474405
2.74350,15.26597374
2.74400,25.03219479
2.74450,35.10361024
2.74500,39.07113754
2.74550,34.49322143
2.74600,27.77894446
2.74650,24.11661157
2.74700,22.59063953
2.74750,18.92830664
2.74800,10.99325204
2.74850,0.6166421741
2.74900,-10.0651621
2.74950,-21.35735518
2.75000,-30.51318741
2.75050,-35.39629793
2.75100,-35.39629793
2.75150,-31.73396504
2.75200,-26.85085452
2.75250,-21.967744
2.75300,-18.0002167
2.75350,-14.64307821
2.75400,-10.0651621
2.75450,-4.571662757
2.75500,-0.298941049
2.75550,0.6166421741
2.75600,0.6166421741
2.75650,3.668586251
2.75700,10.07766881
2.75750,16.48675137
2.75800,18.92830664
2.75850,17.4023346
2.75900,14.35039052
2.75950,11.29844644
2.76000,7.941307959
2.76050,5.499752697
2.76100,5.19455829
2.76150,8.246502367
2.76200,12.21402967
2.76250,14.65558493
2.76300,13.12961289
2.76350,9.16208559
2.76400,5.19455829
2.76450,2.753003028
2.76500,1.837419805
2.76550,3.363391843
2.76600,9.467279997
2.76650,19.23350104
2.76700,24.72700038
2.76750,17.70752901
2.76800,0.9218365818
2.76850,-13.42230058
2.76900,-16.77943906
2.76950,-11.59113413
2.77000,-6.402829203
2.77050,-5.182051572
2.77100,-8.233995649
2.77150,-14.0326894
2.77200,-21.05216077
2.77250,-26.54566011
2.77300,-26.54566011
2.77350,-21.35735518
2.77400,-13.42230058
2.77450,-5.182051572
2.77500,0.9218365818
2.77550,3.668586251
2.77600,4.889363882
2.77650,7.941307959
2.77700,12.51922407
2.77750,14.96077934
2.77800,13.74000171
2.77850,13.4348073
2.77900,17.70752901
2.77950,23.20102834
2.78000,24.11661157
2.78050,18.92830664
2.78100,11.29844644
2.78150,3.973780659
2.78200,-3.045690718
2.78250,-10.0651621
2.78300,-14.0326894
2.78350,-14.3378838
2.78400,-12.50671736
2.78450,-10.0651621
2.78500,-8.233995649
2.78550,-7.928801242
2.78600,-8.233995649
2.78650,-5.48724598
2.78700,2.44780862
2.78750,14.04519611
2.78800,22.89583394
2.78850,26.55816683
2.78900,25.03219479
2.78950,18.92830664
2.79000,9.772474405
2.79050,1.227030989
2.79100,-1.51971868
2.79150,1.227030989
2.79200,7.025724736
2.79250,10.38286322
2.79300,9.772474405
2.79350,7.025724736
2.79400,4.889363882
2.79450,4.278975066
2.79500,3.363391843
2.79550,-0.6041354567
2.79600,-7.318412426
2.79650,-12.50671736
2.79700,-13.11710617
2.79750,-9.149578872
2.79800,-3.656079534
2.79850,0.9218365818
2.79900,4.278975066
2.79950,6.720530328
2.80000,6.720530328
2.80050,3.363391843
2.80100,-0.9093298644
2.80150,-4.571662757
2.80200,-5.182051572
2.80250,-3.961273941
2.80300,-3.656079534
2.80350,-7.928801242
2.80400,-18.61060551
2.80450,-32.03915945
2.80500,-43.33135253
2.80550,-47.29887984
2.80600,-44.85732457
2.80650,-37.8378532
2.80700,-27.46124333
2.80750,-13.42230058
2.80800,2.44780862
2.80850,17.09714019
2.80900,27.77894446
2.80950,34.49322143
2.81000,36.93477669
2.81050,33.2724438
2.81100,25.94777801
2.81150,19.84388986
2.81200,18.01272341
2.81250,17.4023346
2.81300,14.35039052
2.81350,10.99325204
2.81400,10.07766881
2.81450,10.99325204
2.81500,11.60364085
2.81550,12.82441848
2.81600,15.57116815
2.81650,16.79194578
2.81700,13.4348073
2.81750,6.720530328
2.81800,2.753003028
2.81850,3.363391843
2.81900,5.19455829
2.81950,6.110141513
2.82000,7.636113551
2.82050,9.467279997
2.82100,9.772474405
2.82150,6.110141513
2.82200,-0.9093298644
2.82250,-11.59113413
2.82300,-21.967744
2.82350,-26.85085452
2.82400,-21.967744
2.82450,-11.28593973
2.82500,-2.740496311
2.82550,1.227030989
2.82600,6.41533592
2.82650,14.65558493
2.82700,20.45427867
2.82750,17.4023346
2.82800,7.025724736
2.82850,-2.130107495
2.82900,-5.48724598
2.82950,-3.350885126
2.83000,-0.298941049
2.83050,-0.9093298644
2.83100,-6.097634795
2.83150,-12.50671736
2.83200,-14.0326894
2.83250,-9.759967688
2.83300,-3.961273941
2.83350,0.3114477664
2.83400,5.499752697
2.83450,12.82441848
2.83500,18.01272341
2.83550,16.48675137
2.83600,9.16208559
2.83650,2.142614213
2.83700,-0.9093298644
2.83750,-3.045690718
2.83800,-7.013218018
2.83850,-11.28593973
2.83900,-12.20152295
2.83950,-8.844384465
2.84000,-4.266468349
2.84050,-3.350885126
2.84100,-5.792440388
2.84150,-7.318412426
2.84200,-6.097634795
2.84250,-4.571662757
2.84300,-6.402829203
2.84350,-11.59113413
2.84400,-15.86385584
2.84450,-16.16905025
2.84500,-12.20152295
2.84550,-4.571662757
2.84600,4.584169474
2.84650,12.51922407
2.84700,15.87636256
2.84750,14.65558493
2.84800,10.07766881
2.84850,2.753003028
2.84900,-6.402829203
2.84950,-14.94827262
2.85000,-18.61060551
2.85050,-15.86385584
2.85100,-8.539190057
2.85150,0.9218365818
2.85200,9.16208559
2.85250,13.4348073
2.85300,14.35039052
2.85350,15.26597374
2.85400,18.31791782
2.85450,18.92830664
2.85500,13.4348073
2.85550,3.668586251
2.85600,-5.792440388
2.85650,-12.81191176
2.85700,-16.47424466
2.85750,-14.94827262
2.85800,-7.928801242
2.85850,2.142614213
2.85900,14.35039052
2.85950,29.3049165
2.86000,44.86983129
2.86050,52.19449708
2.86100,42.42827603
2.86150,21.06466749
2.86200,0.6166421741
2.86250,-10.0651621
2.86300,-13.72749499
2.86350,-14.64307821
2.86400,-14.64307821
2.86450,-14.3378838
2.86500,-14.64307821
2.86550,-15.55866143
2.86600,-14.94827262
2.86650,-11.59113413
2.86700,-8.844384465
2.86750,-8.539190057
2.86800,-8.233995649
2.86850,-6.402829203
2.86900,-3.656079534
2.86950,-0.9093298644
2.87000,0.6166421741
2.87050,1.837419805
2.87100,1.532225397
2.87150,0.3114477664
2.87200,0.006253358679
2.87250,0.006253358679
2.87300,0.9218365818
2.87350,2.753003028
2.87400,7.025724736
2.87450,11.29844644
2.87500,10.38286322
2.87550,2.753003028
2.87600,-8.539190057
2.87650,-18.91579992
2.87700,-24.10410485
2.87750,-22.57813281
2.87800,-14.3378838
2.87850,-2.740496311
2.87900,5.19455829
2.87950,6.110141513
2.88000,2.753003028
2.88050,-0.298941049
2.88100,-1.824913088
2.88150,-3.045690718
2.88200,-3.045690718
2.88250,0.9218365818
2.88300,10.07766881
2.88350,18.92830664
2.88400,21.98025071
2.88450,18.92830664
2.88500,11.60364085
2.88550,2.142614213
2.88600,-7.623606834
2.88650,-15.25346703
2.88700,-18.0002167
2.88750,-15.25346703
2.88800,-10.0651621
2.88850,-5.48724598
2.88900,-3.045690718
2.88950,-3.656079534
2.89000,-5.48724598
2.89050,-4.571662757
2.89100,0.006253358679
2.89150,5.804947105
2.89200,9.467279997
2.89250,11.60364085
2.89300,14.96077934
2.89350,17.09714019
2.89400,14.35039052
2.89450,7.330919144
2.89500,0.9218365818
2.89550,-2.435301903
2.89600,-6.402829203
2.89650,-12.20152295
2.89700,-16.16905025
2.89750,-15.55866143
2.89800,-12.50671736
2.89850,-10.67555091
2.89900,-8.844384465
2.89950,-7.318412426
2.90000,-6.708023611
2.90050,-7.013218018
2.90100,-4.571662757
2.90150,1.532225397
2.90200,8.551696774
2.90250,10.99325204
2.90300,10.38286322
2.90350,10.07766881
2.90400,11.90883526
2.90450,16.48675137
2.90500,23.50622275
2.90550,30.83088854
2.90600,34.18802702
2.90650,30.22049972
2.90700,21.3698619
2.90750,13.4348073
2.90800,7.636113551
2.90850,1.837419805
2.90900,-4.876857165
2.90950,-11.28593973
2.91000,-15.86385584
2.91050,-18.91579992
2.91100,-20.74696637
2.91150,-21.05216077
2.91200,-18.61060551
2.91250,-15.55866143
2.91300,-14.94827262
2.91350,-16.47424466
2.91400,-17.38982788
2.91450,-14.64307821
2.91500,-10.0651621
2.91550,-8.539190057
2.91600,-12.20152295
2.91650,-18.61060551
2.91700,-25.9352713
2.91750,-33.56513149
2.91800,-41.19499168
2.91850,-44.85732457
2.91900,-41.19499168
2.91950,-29.9027986
2.92000,-15.25346703
2.92050,-1.214524272
2.92100,7.941307959
2.92150,10.38286322
2.92200,6.41533592
2.92250,1.532225397
2.92300,2.44780862
2.92350,10.99325204
2.92400,23.20102834
2.92450,32.96724939
2.92500,36.62958228
2.92550,33.88283261
2.92600,25.64258361
2.92650,14.96077934
2.92700,4.584169474
2.92750,-3.961273941
2.92800,-10.98074532
