type,name,time_units,begin_time,frequency,count,units
signal,"Noraxon Ultium-RT BRACHIORAD.","s",0.00000,2000,57280,"uV"

time,value
0.00000,3.96905251
0.00050,6.105413363
0.00100,7.020996587
0.00150,5.800218956
0.00200,2.748274879
0.00250,0.9171084325
0.00300,1.527497248
0.00350,3.053469286
0.00400,3.358663694
0.00450,1.527497248
0.00500,0.001525209434
0.00550,0.9171084325
0.00600,2.137886063
0.00650,1.832691656
0.00700,0.6119140248
0.00750,0.6119140248
0.00800,2.443080471
0.00850,4.579441325
0.00900,5.18983014
0.00950,4.579441325
0.01000,3.96905251
0.01050,3.053469286
0.01100,1.527497248
0.01150,0.3067196171
0.01200,-0.608863606
0.01250,-1.524446829
0.01300,-2.134835644
0.01350,-1.219252421
0.01400,0.001525209434
0.01450,0.001525209434
0.01500,-3.050418868
0.01550,-4.271196498
0.01600,-1.829641237
0.01650,2.137886063
0.01700,3.96905251
0.01750,3.663858102
0.01800,2.443080471
0.01850,0.6119140248
0.01900,-2.74522446
0.01950,-6.407557352
0.02000,-5.491974129
0.02050,-1.219252421
0.02100,1.832691656
0.02150,2.748274879
0.02200,5.800218956
0.02250,12.20930152
0.02300,17.70280086
0.02350,17.39760645
0.02400,13.73527356
0.02450,11.90410711
0.02500,12.51449593
0.02550,12.81969033
0.02600,12.51449593
0.02650,13.43007915
0.02700,15.26124559
0.02750,14.34566237
0.02800,10.68332948
0.02850,6.715802179
0.02900,4.579441325
0.02950,1.527497248
0.03000,-2.440030052
0.03050,-6.407557352
0.03100,-8.238723799
0.03150,-9.764695837
0.03200,-12.81663991
0.03250,-15.56338958
0.03300,-16.47897281
0.03350,-17.08936162
0.03400,-18.92052807
0.03450,-20.1413057
0.03500,-19.22572248
0.03550,-17.69975044
0.03600,-18.92052807
0.03650,-21.66727774
0.03700,-23.49844418
0.03750,-24.41402741
0.03800,-25.02441622
0.03850,-24.108833
0.03900,-18.92052807
0.03950,-11.59586228
0.04000,-6.102362945
0.04050,-2.74522446
0.04100,1.832691656
0.04150,8.241774217
0.04200,13.12488474
0.04250,14.34566237
0.04300,14.04046796
0.04350,14.65085678
0.04400,15.87163441
0.04450,16.78721763
0.04500,17.70280086
0.04550,19.5339673
0.04600,21.67032816
0.04650,22.28071697
0.04700,21.36513375
0.04750,19.5339673
0.04800,15.56644
0.04850,9.767746256
0.04900,3.96905251
0.04950,0.9171084325
0.05000,0.6119140248
0.05050,2.443080471
0.05100,3.663858102
0.05150,1.22230284
0.05200,-4.881585314
0.05250,-13.42702873
0.05300,-18.92052807
0.05350,-19.53091688
0.05400,-17.69975044
0.05450,-17.08936162
0.05500,-16.78416721
0.05550,-14.95300077
0.05600,-12.51144551
0.05650,-11.90105669
0.05700,-14.34261195
0.05750,-17.08936162
0.05800,-18.00494484
0.05850,-17.08936162
0.05900,-15.86858399
0.05950,-14.34261195
0.06000,-12.81663991
0.06050,-13.12183432
0.06100,-14.03741754
0.06150,-12.81663991
0.06200,-9.154307022
0.06250,-5.491974129
0.06300,-4.576390906
0.06350,-4.576390906
0.06400,-3.355613275
0.06450,-1.829641237
0.06500,-0.608863606
0.06550,1.22230284
0.06600,4.884635733
0.06650,8.241774217
0.06700,9.15735744
0.06750,8.546968625
0.06800,8.852163033
0.06850,10.07294066
0.06900,9.767746256
0.06950,7.020996587
0.07000,3.663858102
0.07050,0.001525209434
0.07100,-2.74522446
0.07150,-4.881585314
0.07200,-5.491974129
0.07250,-5.797168537
0.07300,-6.71275176
0.07350,-7.323140575
0.07400,-7.017946168
0.07450,-7.323140575
0.07500,-9.764695837
0.07550,-11.59586228
0.07600,-9.459501429
0.07650,-4.271196498
0.07700,-0.608863606
0.07750,-0.608863606
0.07800,-1.829641237
0.07850,-1.524446829
0.07900,-0.3036691983
0.07950,0.001525209434
0.08000,-0.608863606
0.08050,-0.608863606
0.08100,-0.3036691983
0.08150,-1.524446829
0.08200,-3.966002091
0.08250,-5.491974129
0.08300,-3.966002091
0.08350,-1.524446829
0.08400,0.001525209434
0.08450,0.001525209434
0.08500,0.001525209434
0.08550,0.6119140248
0.08600,1.22230284
0.08650,1.527497248
0.08700,2.443080471
0.08750,4.274246917
0.08800,6.715802179
0.08850,9.15735744
0.08900,10.68332948
0.08950,10.37813507
0.09000,7.93657981
0.09050,4.884635733
0.09100,2.748274879
0.09150,2.137886063
0.09200,2.137886063
0.09250,1.832691656
0.09300,2.137886063
0.09350,3.053469286
0.09400,4.274246917
0.09450,4.884635733
0.09500,4.579441325
0.09550,3.663858102
0.09600,2.748274879
0.09650,2.137886063
0.09700,2.443080471
0.09750,3.358663694
0.09800,3.358663694
0.09850,3.053469286
0.09900,4.274246917
0.09950,5.800218956
0.10000,5.495024548
0.10050,3.96905251
0.10100,3.663858102
0.10150,3.96905251
0.10200,3.663858102
0.10250,1.527497248
0.10300,0.9171084325
0.10350,3.663858102
0.10400,7.326190994
0.10450,9.15735744
0.10500,9.15735744
0.10550,7.631385402
0.10600,3.96905251
0.10650,-0.9140580137
0.10700,-3.660807683
0.10750,-2.134835644
0.10800,0.6119140248
0.10850,1.527497248
0.10900,0.3067196171
0.10950,0.001525209434
0.11000,0.9171084325
0.11050,2.443080471
0.11100,3.053469286
0.11150,2.443080471
0.11200,0.6119140248
0.11250,-1.219252421
0.11300,-1.524446829
0.11350,0.6119140248
0.11400,3.053469286
0.11450,3.358663694
0.11500,2.137886063
0.11550,1.832691656
0.11600,2.443080471
0.11650,1.527497248
0.11700,-0.9140580137
0.11750,-2.134835644
0.11800,-0.9140580137
0.11850,0.9171084325
0.11900,1.22230284
0.11950,0.6119140248
0.12000,1.22230284
0.12050,3.358663694
0.12100,5.800218956
0.12150,6.715802179
0.12200,5.18983014
0.12250,1.832691656
0.12300,-1.219252421
0.12350,-3.050418868
0.12400,-4.271196498
0.12450,-5.491974129
0.12500,-6.407557352
0.12550,-6.407557352
0.12600,-4.576390906
0.12650,-2.74522446
0.12700,-2.440030052
0.12750,-3.355613275
0.12800,-3.966002091
0.12850,-3.966002091
0.12900,-3.355613275
0.12950,-3.355613275
0.13000,-3.355613275
0.13050,-3.355613275
0.13100,-3.050418868
0.13150,-3.660807683
0.13200,-4.576390906
0.13250,-4.271196498
0.13300,-2.74522446
0.13350,-0.608863606
0.13400,-0.3036691983
0.13450,-0.3036691983
0.13500,0.001525209434
0.13550,1.527497248
0.13600,2.748274879
0.13650,3.358663694
0.13700,4.274246917
0.13750,5.18983014
0.13800,4.274246917
0.13850,1.832691656
0.13900,-0.3036691983
0.13950,0.001525209434
0.14000,1.832691656
0.14050,3.358663694
0.14100,3.053469286
0.14150,1.527497248
0.14200,0.3067196171
0.14250,0.001525209434
0.14300,-0.9140580137
0.14350,-2.134835644
0.14400,-3.050418868
0.14450,-2.134835644
0.14500,-0.608863606
0.14550,-1.219252421
0.14600,-4.271196498
0.14650,-8.238723799
0.14700,-9.154307022
0.14750,-5.797168537
0.14800,-0.3036691983
0.14850,3.358663694
0.14900,3.96905251
0.14950,2.443080471
0.15000,2.748274879
0.15050,5.18983014
0.15100,7.631385402
0.15150,8.241774217
0.15200,7.326190994
0.15250,8.241774217
0.15300,12.20930152
0.15350,16.78721763
0.15400,18.31318967
0.15450,17.09241204
0.15500,14.34566237
0.15550,12.20930152
0.15600,10.98852389
0.15650,11.5989127
0.15700,13.73527356
0.15750,16.17682882
0.15800,17.70280086
0.15850,18.61838408
0.15900,19.22877289
0.15950,18.00799526
0.16000,14.04046796
0.16050,8.852163033
0.16100,5.800218956
0.16150,4.274246917
0.16200,1.832691656
0.16250,-1.829641237
0.16300,-5.186779721
0.16350,-5.797168537
0.16400,-5.186779721
0.16450,-5.797168537
0.16500,-7.017946168
0.16550,-8.849112614
0.16600,-11.59586228
0.16650,-14.64780636
0.16700,-15.56338958
0.16750,-13.42702873
0.16800,-10.68027906
0.16850,-11.59586228
0.16900,-15.86858399
0.16950,-20.44650011
0.17000,-22.27766655
0.17050,-22.58286096
0.17100,-22.88805537
0.17150,-23.80363859
0.17200,-24.41402741
0.17250,-22.58286096
0.17300,-17.08936162
0.17350,-8.849112614
0.17400,-1.219252421
0.17450,2.137886063
0.17500,3.663858102
0.17550,7.020996587
0.17600,11.90410711
0.17650,14.95605119
0.17700,14.34566237
0.17750,12.51449593
0.17800,12.20930152
0.17850,13.12488474
0.17900,12.51449593
0.17950,10.98852389
0.18000,10.37813507
0.18050,9.767746256
0.18100,7.020996587
0.18150,1.832691656
0.18200,-3.660807683
0.18250,-7.933529391
0.18300,-11.59586228
0.18350,-15.56338958
0.18400,-18.00494484
0.18450,-18.00494484
0.18500,-16.78416721
0.18550,-16.47897281
0.18600,-18.61533366
0.18650,-20.44650011
0.18700,-20.75169451
0.18750,-19.22572248
0.18800,-17.39455603
0.18850,-16.1737784
0.18900,-14.64780636
0.18950,-13.12183432
0.19000,-11.29066788
0.19050,-9.459501429
0.19100,-7.017946168
0.19150,-3.966002091
0.19200,-0.9140580137
0.19250,1.832691656
0.19300,3.96905251
0.19350,4.884635733
0.19400,3.358663694
0.19450,0.3067196171
0.19500,-1.829641237
0.19550,-2.134835644
0.19600,-1.219252421
0.19650,-0.3036691983
0.19700,0.9171084325
0.19750,3.358663694
0.19800,4.884635733
0.19850,3.663858102
0.19900,0.001525209434
0.19950,-2.440030052
0.20000,-4.271196498
0.20050,-5.491974129
0.20100,-6.407557352
0.20150,-5.186779721
0.20200,-2.134835644
0.20250,-0.3036691983
0.20300,-0.3036691983
0.20350,0.001525209434
0.20400,2.137886063
0.20450,4.884635733
0.20500,5.18983014
0.20550,3.358663694
0.20600,1.832691656
0.20650,1.832691656
0.20700,3.053469286
0.20750,4.274246917
0.20800,4.579441325
0.20850,3.053469286
0.20900,0.3067196171
0.20950,0.001525209434
0.21000,2.443080471
0.21050,5.18983014
0.21100,3.96905251
0.21150,0.3067196171
0.21200,0.001525209434
0.21250,4.579441325
0.21300,9.15735744
0.21350,10.07294066
0.21400,7.93657981
0.21450,6.715802179
0.21500,7.326190994
0.21550,8.546968625
0.21600,8.852163033
0.21650,7.020996587
0.21700,3.96905251
0.21750,0.9171084325
0.21800,0.001525209434
0.21850,0.3067196171
0.21900,0.001525209434
0.21950,-0.608863606
0.22000,-1.219252421
0.22050,-0.9140580137
0.22100,-1.524446829
0.22150,-3.966002091
0.22200,-5.491974129
0.22250,-4.271196498
0.22300,-2.134835644
0.22350,-1.524446829
0.22400,-1.524446829
0.22450,-0.9140580137
0.22500,-0.3036691983
0.22550,-0.3036691983
0.22600,-0.3036691983
0.22650,0.3067196171
0.22700,0.3067196171
0.22750,-1.524446829
0.22800,-3.966002091
0.22850,-2.74522446
0.22900,1.22230284
0.22950,3.96905251
0.23000,3.96905251
0.23050,3.358663694
0.23100,3.358663694
0.23150,3.053469286
0.23200,2.443080471
0.23250,3.96905251
0.23300,7.326190994
0.23350,8.852163033
0.23400,6.410607771
0.23450,3.663858102
0.23500,4.579441325
0.23550,7.93657981
0.23600,10.07294066
0.23650,9.462551848
0.23700,6.715802179
0.23750,3.663858102
0.23800,1.22230284
0.23850,0.3067196171
0.23900,1.527497248
0.23950,3.96905251
0.24000,5.495024548
0.24050,5.800218956
0.24100,6.105413363
0.24150,6.410607771
0.24200,6.410607771
0.24250,6.715802179
0.24300,7.631385402
0.24350,8.546968625
0.24400,10.07294066
0.24450,11.5989127
0.24500,13.73527356
0.24550,15.26124559
0.24600,15.26124559
0.24650,14.95605119
0.24700,14.04046796
0.24750,11.5989127
0.24800,6.410607771
0.24850,0.9171084325
0.24900,-2.134835644
0.24950,-2.74522446
0.25000,-3.660807683
0.25050,-7.628334983
0.25100,-13.42702873
0.25150,-18.92052807
0.25200,-23.49844418
0.25250,-27.16077708
0.25300,-30.21272115
0.25350,-30.82310997
0.25400,-27.46597148
0.25450,-21.97247215
0.25500,-18.00494484
0.25550,-16.47897281
0.25600,-15.25819518
0.25650,-12.2062511
0.25700,-7.628334983
0.25750,-2.440030052
0.25800,3.053469286
0.25850,9.767746256
0.25900,15.56644
0.25950,17.39760645
0.26000,15.26124559
0.26050,11.90410711
0.26100,9.767746256
0.26150,9.15735744
0.26200,8.852163033
0.26250,9.462551848
0.26300,10.37813507
0.26350,10.68332948
0.26400,9.15735744
0.26450,6.105413363
0.26500,2.748274879
0.26550,-1.524446829
0.26600,-6.407557352
0.26650,-10.98547347
0.26700,-13.12183432
0.26750,-12.51144551
0.26800,-10.37508465
0.26850,-7.933529391
0.26900,-5.797168537
0.26950,-5.491974129
0.27000,-6.102362945
0.27050,-6.71275176
0.27100,-5.186779721
0.27150,-2.134835644
0.27200,0.001525209434
0.27250,0.001525209434
0.27300,0.001525209434
0.27350,1.832691656
0.27400,5.800218956
0.27450,8.852163033
0.27500,8.546968625
0.27550,5.495024548
0.27600,3.053469286
0.27650,2.748274879
0.27700,3.053469286
0.27750,1.832691656
0.27800,-1.524446829
0.27850,-5.186779721
0.27900,-7.323140575
0.27950,-8.238723799
0.28000,-9.764695837
0.28050,-11.90105669
0.28100,-12.81663991
0.28150,-11.90105669
0.28200,-10.37508465
0.28250,-9.459501429
0.28300,-9.154307022
0.28350,-8.543918206
0.28400,-7.323140575
0.28450,-5.186779721
0.28500,-3.050418868
0.28550,-1.524446829
0.28600,-1.219252421
0.28650,-1.219252421
0.28700,-0.9140580137
0.28750,0.001525209434
0.28800,0.6119140248
0.28850,0.9171084325
0.28900,1.527497248
0.28950,2.137886063
0.29000,2.137886063
0.29050,1.832691656
0.29100,2.443080471
0.29150,3.053469286
0.29200,2.748274879
0.29250,2.137886063
0.29300,2.748274879
0.29350,4.274246917
0.29400,5.18983014
0.29450,5.18983014
0.29500,6.105413363
0.29550,8.241774217
0.29600,8.546968625
0.29650,6.105413363
0.29700,3.358663694
0.29750,2.137886063
0.29800,2.137886063
0.29850,0.9171084325
0.29900,-1.829641237
0.29950,-4.271196498
0.30000,-3.966002091
0.30050,-1.829641237
0.30100,0.9171084325
0.30150,3.053469286
0.30200,3.663858102
0.30250,3.053469286
0.30300,1.527497248
0.30350,0.3067196171
0.30400,-0.9140580137
0.30450,-2.134835644
0.30500,-2.74522446
0.30550,-3.050418868
0.30600,-2.74522446
0.30650,-3.050418868
0.30700,-3.355613275
0.30750,-3.050418868
0.30800,-2.134835644
0.30850,-1.524446829
0.30900,-1.524446829
0.30950,-1.829641237
0.31000,-1.524446829
0.31050,-0.608863606
0.31100,-0.9140580137
0.31150,-3.050418868
0.31200,-4.576390906
0.31250,-4.271196498
0.31300,-2.134835644
0.31350,-0.3036691983
0.31400,-1.524446829
0.31450,-4.271196498
0.31500,-6.102362945
0.31550,-5.491974129
0.31600,-2.440030052
0.31650,0.3067196171
0.31700,1.527497248
0.31750,0.3067196171
0.31800,-0.9140580137
0.31850,-1.829641237
0.31900,-0.608863606
0.31950,1.832691656
0.32000,4.884635733
0.32050,6.715802179
0.32100,7.020996587
0.32150,6.410607771
0.32200,6.715802179
0.32250,7.020996587
0.32300,7.326190994
0.32350,6.105413363
0.32400,4.274246917
0.32450,2.748274879
0.32500,3.053469286
0.32550,4.274246917
0.32600,4.579441325
0.32650,3.053469286
0.32700,0.9171084325
0.32750,1.22230284
0.32800,3.96905251
0.32850,6.715802179
0.32900,8.241774217
0.32950,9.462551848
0.33000,9.767746256
0.33050,8.241774217
0.33100,4.274246917
0.33150,-0.3036691983
0.33200,-3.660807683
0.33250,-6.102362945
0.33300,-7.323140575
0.33350,-6.407557352
0.33400,-3.355613275
0.33450,0.001525209434
0.33500,1.527497248
0.33550,2.748274879
0.33600,4.884635733
0.33650,7.93657981
0.33700,9.15735744
0.33750,6.715802179
0.33800,3.053469286
0.33850,1.22230284
0.33900,1.22230284
0.33950,1.832691656
0.34000,2.443080471
0.34050,4.274246917
0.34100,6.105413363
0.34150,6.410607771
0.34200,3.663858102
0.34250,0.001525209434
0.34300,-2.440030052
0.34350,-4.576390906
0.34400,-7.628334983
0.34450,-10.68027906
0.34500,-10.68027906
0.34550,-7.017946168
0.34600,-3.966002091
0.34650,-4.271196498
0.34700,-6.71275176
0.34750,-8.849112614
0.34800,-9.764695837
0.34850,-10.37508465
0.34900,-10.98547347
0.34950,-11.29066788
0.35000,-11.29066788
0.35050,-11.59586228
0.35100,-12.81663991
0.35150,-15.25819518
0.35200,-17.39455603
0.35250,-18.61533366
0.35300,-17.69975044
0.35350,-14.64780636
0.35400,-9.459501429
0.35450,-4.271196498
0.35500,-0.9140580137
0.35550,0.9171084325
0.35600,3.663858102
0.35650,7.020996587
0.35700,8.852163033
0.35750,8.546968625
0.35800,8.241774217
0.35850,10.07294066
0.35900,12.20930152
0.35950,12.81969033
0.36000,10.98852389
0.36050,9.15735744
0.36100,8.546968625
0.36150,8.241774217
0.36200,6.715802179
0.36250,3.358663694
0.36300,0.001525209434
0.36350,-0.608863606
0.36400,1.527497248
0.36450,5.18983014
0.36500,6.410607771
0.36550,3.053469286
0.36600,-1.524446829
0.36650,-4.271196498
0.36700,-3.966002091
0.36750,-3.660807683
0.36800,-4.271196498
0.36850,-5.491974129
0.36900,-6.102362945
0.36950,-7.628334983
0.37000,-9.764695837
0.37050,-11.59586228
0.37100,-12.81663991
0.37150,-13.12183432
0.37200,-12.81663991
0.37250,-11.29066788
0.37300,-9.459501429
0.37350,-7.628334983
0.37400,-6.71275176
0.37450,-5.186779721
0.37500,-3.050418868
0.37550,-0.608863606
0.37600,0.6119140248
0.37650,1.832691656
0.37700,3.358663694
0.37750,4.884635733
0.37800,5.495024548
0.37850,5.495024548
0.37900,5.495024548
0.37950,5.495024548
0.38000,4.274246917
0.38050,2.443080471
0.38100,0.9171084325
0.38150,-0.3036691983
0.38200,-1.829641237
0.38250,-2.440030052
0.38300,-0.608863606
0.38350,2.748274879
0.38400,5.18983014
0.38450,6.410607771
0.38500,6.715802179
0.38550,7.326190994
0.38600,8.241774217
0.38650,9.15735744
0.38700,10.07294066
0.38750,10.68332948
0.38800,10.07294066
0.38850,9.462551848
0.38900,10.37813507
0.38950,11.90410711
0.39000,11.90410711
0.39050,9.462551848
0.39100,7.020996587
0.39150,6.410607771
0.39200,4.884635733
0.39250,0.001525209434
0.39300,-6.71275176
0.39350,-10.68027906
0.39400,-9.459501429
0.39450,-7.017946168
0.39500,-6.71275176
0.39550,-9.764695837
0.39600,-13.73222314
0.39650,-16.47897281
0.39700,-16.78416721
0.39750,-15.25819518
0.39800,-13.12183432
0.39850,-10.98547347
0.39900,-10.06989024
0.39950,-10.06989024
0.40000,-10.06989024
0.40050,-9.459501429
0.40100,-6.71275176
0.40150,-2.74522446
0.40200,1.22230284
0.40250,3.96905251
0.40300,5.800218956
0.40350,7.326190994
0.40400,8.546968625
0.40450,10.07294066
0.40500,11.5989127
0.40550,13.43007915
0.40600,14.65085678
0.40650,14.04046796
0.40700,12.51449593
0.40750,10.68332948
0.40800,9.462551848
0.40850,7.93657981
0.40900,6.715802179
0.40950,6.410607771
0.41000,7.020996587
0.41050,6.715802179
0.41100,4.274246917
0.41150,-0.3036691983
0.41200,-4.576390906
0.41250,-6.407557352
0.41300,-5.186779721
0.41350,-3.660807683
0.41400,-3.050418868
0.41450,-3.660807683
0.41500,-4.881585314
0.41550,-4.881585314
0.41600,-3.966002091
0.41650,-2.440030052
0.41700,-0.9140580137
0.41750,-0.3036691983
0.41800,-0.3036691983
0.41850,0.001525209434
0.41900,0.001525209434
0.41950,-0.3036691983
0.42000,-1.829641237
0.42050,-2.440030052
0.42100,-0.9140580137
0.42150,1.22230284
0.42200,2.748274879
0.42250,2.748274879
0.42300,3.053469286
0.42350,5.495024548
0.42400,10.07294066
0.42450,14.34566237
0.42500,16.17682882
0.42550,14.95605119
0.42600,12.20930152
0.42650,10.07294066
0.42700,10.07294066
0.42750,10.07294066
0.42800,8.852163033
0.42850,7.020996587
0.42900,5.800218956
0.42950,5.800218956
0.43000,4.884635733
0.43050,2.137886063
0.43100,-0.9140580137
0.43150,-2.74522446
0.43200,-3.660807683
0.43250,-5.186779721
0.43300,-7.323140575
0.43350,-9.459501429
0.43400,-10.68027906
0.43450,-11.90105669
0.43500,-13.12183432
0.43550,-14.95300077
0.43600,-17.08936162
0.43650,-18.61533366
0.43700,-19.53091688
0.43750,-18.31013925
0.43800,-15.56338958
0.43850,-12.51144551
0.43900,-9.764695837
0.43950,-7.933529391
0.44000,-5.186779721
0.44050,-2.134835644
0.44100,0.6119140248
0.44150,1.527497248
0.44200,1.527497248
0.44250,1.832691656
0.44300,2.748274879
0.44350,3.053469286
0.44400,2.137886063
0.44450,2.137886063
0.44500,4.884635733
0.44550,8.546968625
0.44600,10.37813507
0.44650,8.852163033
0.44700,6.715802179
0.44750,6.410607771
0.44800,8.852163033
0.44850,12.20930152
0.44900,14.95605119
0.44950,16.48202323
0.45000,16.17682882
0.45050,14.65085678
0.45100,13.12488474
0.45150,11.90410711
0.45200,10.98852389
0.45250,10.68332948
0.45300,11.5989127
0.45350,12.20930152
0.45400,10.07294066
0.45450,5.495024548
0.45500,1.22230284
0.45550,0.001525209434
0.45600,-0.608863606
0.45650,-3.355613275
0.45700,-7.628334983
0.45750,-10.37508465
0.45800,-10.06989024
0.45850,-7.933529391
0.45900,-6.71275176
0.45950,-6.407557352
0.46000,-5.797168537
0.46050,-4.271196498
0.46100,-4.576390906
0.46150,-7.323140575
0.46200,-10.98547347
0.46250,-13.12183432
0.46300,-13.12183432
0.46350,-13.42702873
0.46400,-14.64780636
0.46450,-15.56338958
0.46500,-14.03741754
0.46550,-9.764695837
0.46600,-5.186779721
0.46650,-3.050418868
0.46700,-2.440030052
0.46750,-2.440030052
0.46800,-1.219252421
0.46850,0.9171084325
0.46900,3.96905251
0.46950,6.410607771
0.47000,8.852163033
0.47050,11.5989127
0.47100,14.04046796
0.47150,14.34566237
0.47200,13.12488474
0.47250,13.43007915
0.47300,15.56644
0.47350,17.09241204
0.47400,14.65085678
0.47450,10.98852389
0.47500,10.98852389
0.47550,14.34566237
0.47600,16.78721763
0.47650,16.17682882
0.47700,14.34566237
0.47750,13.12488474
0.47800,10.07294066
0.47850,5.18983014
0.47900,0.6119140248
0.47950,-0.608863606
0.48000,-1.829641237
0.48050,-4.881585314
0.48100,-7.628334983
0.48150,-7.933529391
0.48200,-7.323140575
0.48250,-8.238723799
0.48300,-11.29066788
0.48350,-12.81663991
0.48400,-12.2062511
0.48450,-10.37508465
0.48500,-8.849112614
0.48550,-7.628334983
0.48600,-7.628334983
0.48650,-8.238723799
0.48700,-7.933529391
0.48750,-6.407557352
0.48800,-3.966002091
0.48850,-2.74522446
0.48900,-1.829641237
0.48950,-0.608863606
0.49000,0.6119140248
0.49050,1.527497248
0.49100,1.527497248
0.49150,1.22230284
0.49200,1.527497248
0.49250,1.832691656
0.49300,1.527497248
0.49350,0.3067196171
0.49400,-0.9140580137
0.49450,-1.829641237
0.49500,-1.219252421
0.49550,0.001525209434
0.49600,0.3067196171
0.49650,-0.3036691983
0.49700,-1.524446829
0.49750,-1.829641237
0.49800,-0.9140580137
0.49850,1.22230284
0.49900,6.105413363
0.49950,13.43007915
0.50000,20.44955053
0.50050,23.80668901
0.50100,22.89110579
0.50150,20.75474493
0.50200,19.83916171
0.50250,21.36513375
0.50300,22.89110579
0.50350,21.97552256
0.50400,18.31318967
0.50450,14.95605119
0.50500,13.43007915
0.50550,12.51449593
0.50600,10.98852389
0.50650,8.546968625
0.50700,6.105413363
0.50750,3.358663694
0.50800,-0.608863606
0.50850,-4.576390906
0.50900,-7.323140575
0.50950,-10.06989024
0.51000,-14.03741754
0.51050,-17.69975044
0.51100,-18.61533366
0.51150,-16.47897281
0.51200,-13.42702873
0.51250,-10.98547347
0.51300,-9.459501429
0.51350,-8.849112614
0.51400,-10.37508465
0.51450,-12.51144551
0.51500,-12.81663991
0.51550,-10.98547347
0.51600,-8.238723799
0.51650,-6.71275176
0.51700,-6.407557352
0.51750,-6.102362945
0.51800,-5.797168537
0.51850,-4.271196498
0.51900,-1.219252421
0.51950,0.9171084325
0.52000,1.22230284
0.52050,-0.3036691983
0.52100,-1.524446829
0.52150,-1.219252421
0.52200,-1.219252421
0.52250,-2.440030052
0.52300,-4.271196498
0.52350,-6.102362945
0.52400,-7.628334983
0.52450,-8.849112614
0.52500,-9.154307022
0.52550,-8.849112614
0.52600,-8.543918206
0.52650,-9.459501429
0.52700,-10.98547347
0.52750,-12.81663991
0.52800,-14.03741754
0.52850,-12.51144551
0.52900,-7.017946168
0.52950,-0.608863606
0.53000,2.137886063
0.53050,1.22230284
0.53100,-0.3036691983
0.53150,-0.3036691983
0.53200,1.22230284
0.53250,2.748274879
0.53300,3.96905251
0.53350,6.715802179
0.53400,10.37813507
0.53450,12.51449593
0.53500,12.81969033
0.53550,13.12488474
0.53600,14.65085678
0.53650,15.87163441
0.53700,14.95605119
0.53750,11.29371829
0.53800,6.105413363
0.53850,0.9171084325
0.53900,-2.74522446
0.53950,-4.881585314
0.54000,-6.102362945
0.54050,-8.238723799
0.54100,-11.29066788
0.54150,-13.73222314
0.54200,-14.03741754
0.54250,-12.51144551
0.54300,-10.68027906
0.54350,-8.849112614
0.54400,-5.186779721
0.54450,-0.3036691983
0.54500,2.748274879
0.54550,3.663858102
0.54600,3.358663694
0.54650,3.96905251
0.54700,6.410607771
0.54750,8.546968625
0.54800,9.767746256
0.54850,10.07294066
0.54900,9.767746256
0.54950,9.462551848
0.55000,9.15735744
0.55050,7.631385402
0.55100,3.663858102
0.55150,-1.524446829
0.55200,-6.102362945
0.55250,-8.238723799
0.55300,-7.628334983
0.55350,-5.186779721
0.55400,-2.134835644
0.55450,-0.9140580137
0.55500,-2.74522446
0.55550,-7.017946168
0.55600,-11.90105669
0.55650,-15.25819518
0.55700,-16.1737784
0.55750,-16.1737784
0.55800,-16.1737784
0.55850,-14.64780636
0.55900,-9.459501429
0.55950,-1.829641237
0.56000,3.053469286
0.56050,2.443080471
0.56100,-1.219252421
0.56150,-1.524446829
0.56200,2.748274879
0.56250,7.020996587
0.56300,6.410607771
0.56350,3.358663694
0.56400,2.137886063
0.56450,3.053469286
0.56500,3.358663694
0.56550,1.527497248
0.56600,0.001525209434
0.56650,-0.9140580137
0.56700,-1.524446829
0.56750,-1.524446829
0.56800,-0.608863606
0.56850,0.001525209434
0.56900,-0.3036691983
0.56950,-2.134835644
0.57000,-3.050418868
0.57050,-2.74522446
0.57100,-3.050418868
0.57150,-3.050418868
0.57200,-0.9140580137
0.57250,3.96905251
0.57300,7.631385402
0.57350,7.631385402
0.57400,5.800218956
0.57450,5.800218956
0.57500,7.326190994
0.57550,7.93657981
0.57600,7.631385402
0.57650,9.15735744
0.57700,12.81969033
0.57750,16.17682882
0.57800,16.78721763
0.57850,15.56644
0.57900,13.73527356
0.57950,10.98852389
0.58000,7.020996587
0.58050,2.443080471
0.58100,-0.3036691983
0.58150,-0.608863606
0.58200,0.3067196171
0.58250,0.9171084325
0.58300,0.6119140248
0.58350,-0.608863606
0.58400,-3.355613275
0.58450,-5.797168537
0.58500,-6.71275176
0.58550,-5.797168537
0.58600,-4.881585314
0.58650,-5.797168537
0.58700,-7.933529391
0.58750,-9.459501429
0.58800,-8.849112614
0.58850,-5.797168537
0.58900,-2.134835644
0.58950,0.3067196171
0.59000,1.527497248
0.59050,2.137886063
0.59100,3.663858102
0.59150,5.800218956
0.59200,7.020996587
0.59250,6.715802179
0.59300,4.579441325
0.59350,1.832691656
0.59400,0.001525209434
0.59450,-0.9140580137
0.59500,-0.608863606
0.59550,-0.9140580137
0.59600,-1.829641237
0.59650,-3.050418868
0.59700,-2.440030052
0.59750,-0.3036691983
0.59800,0.001525209434
0.59850,-2.440030052
0.59900,-6.71275176
0.59950,-9.459501429
0.60000,-9.764695837
0.60050,-8.849112614
0.60100,-7.628334983
0.60150,-6.102362945
0.60200,-3.966002091
0.60250,-2.74522446
0.60300,-2.134835644
0.60350,-0.9140580137
0.60400,0.6119140248
0.60450,3.358663694
0.60500,5.495024548
0.60550,6.410607771
0.60600,7.326190994
0.60650,9.15735744
0.60700,10.98852389
0.60750,9.767746256
0.60800,5.800218956
0.60850,1.832691656
0.60900,-0.3036691983
0.60950,-1.829641237
0.61000,-4.271196498
0.61050,-6.407557352
0.61100,-5.797168537
0.61150,-3.660807683
0.61200,-2.440030052
0.61250,-2.134835644
0.61300,-1.524446829
0.61350,-1.524446829
0.61400,-3.050418868
0.61450,-4.576390906
0.61500,-3.355613275
0.61550,-0.9140580137
0.61600,-0.608863606
0.61650,-2.440030052
0.61700,-3.355613275
0.61750,-1.829641237
0.61800,0.001525209434
0.61850,0.3067196171
0.61900,1.832691656
0.61950,5.18983014
0.62000,8.546968625
0.62050,10.37813507
0.62100,10.68332948
0.62150,10.37813507
0.62200,10.68332948
0.62250,11.5989127
0.62300,12.81969033
0.62350,13.12488474
0.62400,12.20930152
0.62450,12.20930152
0.62500,12.81969033
0.62550,11.5989127
0.62600,6.410607771
0.62650,0.9171084325
0.62700,-0.9140580137
0.62750,-1.219252421
0.62800,-2.74522446
0.62850,-5.491974129
0.62900,-7.017946168
0.62950,-8.543918206
0.63000,-12.2062511
0.63050,-17.08936162
0.63100,-19.22572248
0.63150,-18.31013925
0.63200,-18.31013925
0.63250,-20.1413057
0.63300,-21.05688892
0.63350,-18.92052807
0.63400,-15.86858399
0.63450,-14.34261195
0.63500,-11.90105669
0.63550,-7.323140575
0.63600,-3.050418868
0.63650,-1.829641237
0.63700,-2.134835644
0.63750,-1.219252421
0.63800,0.6119140248
0.63850,2.443080471
0.63900,3.358663694
0.63950,4.274246917
0.64000,5.495024548
0.64050,5.18983014
0.64100,3.96905251
0.64150,3.053469286
0.64200,3.96905251
0.64250,5.800218956
0.64300,7.631385402
0.64350,7.93657981
0.64400,7.631385402
0.64450,8.241774217
0.64500,9.462551848
0.64550,10.07294066
0.64600,8.241774217
0.64650,4.884635733
0.64700,1.832691656
0.64750,0.3067196171
0.64800,0.3067196171
0.64850,1.832691656
0.64900,3.96905251
0.64950,3.96905251
0.65000,1.22230284
0.65050,-2.440030052
0.65100,-4.576390906
0.65150,-5.491974129
0.65200,-5.797168537
0.65250,-5.797168537
0.65300,-5.186779721
0.65350,-4.576390906
0.65400,-4.576390906
0.65450,-3.355613275
0.65500,0.3067196171
0.65550,4.274246917
0.65600,5.18983014
0.65650,2.443080471
0.65700,0.001525209434
0.65750,-0.3036691983
0.65800,0.001525209434
0.65850,-0.3036691983
0.65900,-0.608863606
0.65950,-0.3036691983
0.66000,-0.3036691983
0.66050,0.001525209434
0.66100,2.748274879
0.66150,6.715802179
0.66200,8.241774217
0.66250,5.495024548
0.66300,1.527497248
0.66350,0.3067196171
0.66400,2.443080471
0.66450,5.800218956
0.66500,8.241774217
0.66550,9.15735744
0.66600,9.15735744
0.66650,9.462551848
0.66700,10.98852389
0.66750,12.81969033
0.66800,13.73527356
0.66850,13.73527356
0.66900,14.65085678
0.66950,16.48202323
0.67000,17.09241204
0.67050,15.26124559
0.67100,12.51449593
0.67150,11.29371829
0.67200,10.98852389
0.67250,9.462551848
0.67300,7.020996587
0.67350,3.96905251
0.67400,1.527497248
0.67450,-0.9140580137
0.67500,-3.355613275
0.67550,-6.407557352
0.67600,-9.154307022
0.67650,-10.68027906
0.67700,-10.98547347
0.67750,-11.59586228
0.67800,-14.34261195
0.67850,-18.00494484
0.67900,-19.83611129
0.67950,-18.92052807
0.68000,-16.78416721
0.68050,-14.64780636
0.68100,-12.2062511
0.68150,-9.764695837
0.68200,-7.017946168
0.68250,-4.881585314
0.68300,-3.355613275
0.68350,-3.050418868
0.68400,-5.186779721
0.68450,-7.323140575
0.68500,-6.71275176
0.68550,-2.134835644
0.68600,3.358663694
0.68650,7.631385402
0.68700,10.07294066
0.68750,11.90410711
0.68800,13.43007915
0.68850,13.73527356
0.68900,12.51449593
0.68950,11.29371829
0.69000,11.29371829
0.69050,11.90410711
0.69100,10.07294066
0.69150,6.410607771
0.69200,2.443080471
0.69250,0.6119140248
0.69300,-0.3036691983
0.69350,-2.134835644
0.69400,-4.576390906
0.69450,-6.102362945
0.69500,-7.323140575
0.69550,-8.543918206
0.69600,-10.06989024
0.69650,-12.2062511
0.69700,-14.64780636
0.69750,-17.08936162
0.69800,-17.08936162
0.69850,-14.03741754
0.69900,-10.98547347
0.69950,-9.459501429
0.70000,-7.933529391
0.70050,-3.966002091
0.70100,0.6119140248
0.70150,3.663858102
0.70200,3.96905251
0.70250,3.96905251
0.70300,4.579441325
0.70350,4.884635733
0.70400,4.274246917
0.70450,3.96905251
0.70500,5.18983014
0.70550,6.410607771
0.70600,6.105413363
0.70650,5.18983014
0.70700,4.579441325
0.70750,3.663858102
0.70800,1.832691656
0.70850,0.6119140248
0.70900,0.001525209434
0.70950,-0.608863606
0.71000,-2.74522446
0.71050,-4.881585314
0.71100,-5.797168537
0.71150,-6.102362945
0.71200,-7.017946168
0.71250,-7.933529391
0.71300,-7.628334983
0.71350,-6.102362945
0.71400,-3.966002091
0.71450,-2.74522446
0.71500,-3.660807683
0.71550,-5.491974129
0.71600,-5.491974129
0.71650,-3.050418868
0.71700,-0.9140580137
0.71750,-1.829641237
0.71800,-3.966002091
0.71850,-3.660807683
0.71900,-1.219252421
0.71950,1.22230284
0.72000,3.358663694
0.72050,6.105413363
0.72100,8.852163033
0.72150,9.15735744
0.72200,6.105413363
0.72250,3.053469286
0.72300,2.137886063
0.72350,1.527497248
0.72400,-0.3036691983
0.72450,-0.9140580137
0.72500,2.443080471
0.72550,8.241774217
0.72600,10.68332948
0.72650,8.241774217
0.72700,4.884635733
0.72750,3.96905251
0.72800,4.274246917
0.72850,4.884635733
0.72900,6.410607771
0.72950,8.546968625
0.73000,9.15735744
0.73050,7.631385402
0.73100,7.631385402
0.73150,10.98852389
0.73200,15.56644
0.73250,16.78721763
0.73300,14.65085678
0.73350,11.90410711
0.73400,10.07294066
0.73450,8.852163033
0.73500,7.631385402
0.73550,7.93657981
0.73600,10.37813507
0.73650,12.81969033
0.73700,11.90410711
0.73750,7.93657981
0.73800,2.748274879
0.73850,-0.608863606
0.73900,-2.440030052
0.73950,-3.966002091
0.74000,-6.102362945
0.74050,-8.849112614
0.74100,-10.06989024
0.74150,-8.543918206
0.74200,-6.407557352
0.74250,-4.881585314
0.74300,-3.966002091
0.74350,-3.355613275
0.74400,-2.74522446
0.74450,-3.355613275
0.74500,-3.050418868
0.74550,-0.9140580137
0.74600,0.9171084325
0.74650,0.6119140248
0.74700,-2.134835644
0.74750,-4.881585314
0.74800,-5.491974129
0.74850,-6.71275176
0.74900,-9.154307022
0.74950,-10.68027906
0.75000,-10.37508465
0.75050,-9.459501429
0.75100,-10.06989024
0.75150,-11.59586228
0.75200,-12.2062511
0.75250,-12.51144551
0.75300,-12.81663991
0.75350,-12.2062511
0.75400,-9.764695837
0.75450,-6.71275176
0.75500,-4.576390906
0.75550,-3.660807683
0.75600,-1.829641237
0.75650,-0.3036691983
0.75700,-1.219252421
0.75750,-3.355613275
0.75800,-4.271196498
0.75850,-1.829641237
0.75900,0.9171084325
0.75950,2.137886063
0.76000,2.137886063
0.76050,4.579441325
0.76100,8.852163033
0.76150,11.90410711
0.76200,11.5989127
0.76250,10.07294066
0.76300,10.37813507
0.76350,11.5989127
0.76400,10.68332948
0.76450,7.326190994
0.76500,4.579441325
0.76550,4.579441325
0.76600,5.800218956
0.76650,6.105413363
0.76700,4.884635733
0.76750,1.527497248
0.76800,-3.355613275
0.76850,-9.459501429
0.76900,-14.64780636
0.76950,-18.31013925
0.77000,-20.1413057
0.77050,-20.1413057
0.77100,-18.92052807
0.77150,-17.69975044
0.77200,-18.31013925
0.77250,-18.92052807
0.77300,-16.1737784
0.77350,-10.37508465
0.77400,-6.102362945
0.77450,-5.186779721
0.77500,-4.881585314
0.77550,-2.74522446
0.77600,-0.3036691983
0.77650,0.3067196171
0.77700,0.9171084325
0.77750,2.748274879
0.77800,4.579441325
0.77850,4.884635733
0.77900,5.800218956
0.77950,8.241774217
0.78000,10.07294066
0.78050,8.852163033
0.78100,7.326190994
0.78150,7.93657981
0.78200,9.767746256
0.78250,9.15735744
0.78300,5.800218956
0.78350,2.748274879
0.78400,0.6119140248
0.78450,-0.9140580137
0.78500,-2.134835644
0.78550,-2.440030052
0.78600,-2.134835644
0.78650,-2.74522446
0.78700,-3.050418868
0.78750,-1.524446829
0.78800,1.22230284
0.78850,3.053469286
0.78900,1.832691656
0.78950,-1.219252421
0.79000,-5.186779721
0.79050,-7.933529391
0.79100,-7.628334983
0.79150,-4.271196498
0.79200,-0.9140580137
0.79250,0.001525209434
0.79300,-1.524446829
0.79350,-3.660807683
0.79400,-4.881585314
0.79450,-6.407557352
0.79500,-7.933529391
0.79550,-9.154307022
0.79600,-10.06989024
0.79650,-12.2062511
0.79700,-15.25819518
0.79750,-16.47897281
0.79800,-14.64780636
0.79850,-10.68027906
0.79900,-6.102362945
0.79950,-1.524446829
0.80000,3.053469286
0.80050,7.631385402
0.80100,10.68332948
0.80150,12.51449593
0.80200,14.34566237
0.80250,17.09241204
0.80300,20.14435612
0.80350,22.28071697
0.80400,23.19630019
0.80450,22.89110579
0.80500,20.44955053
0.80550,17.09241204
0.80600,13.12488474
0.80650,10.07294066
0.80700,6.410607771
0.80750,2.748274879
0.80800,-0.3036691983
0.80850,-3.050418868
0.80900,-7.017946168
0.80950,-12.51144551
0.81000,-18.00494484
0.81050,-22.58286096
0.81100,-25.63480504
0.81150,-28.68674911
0.81200,-31.12830438
0.81250,-31.43349878
0.81300,-30.51791556
0.81350,-28.68674911
0.81400,-25.63480504
0.81450,-20.44650011
0.81500,-14.03741754
0.81550,-7.933529391
0.81600,-3.355613275
0.81650,-0.3036691983
0.81700,1.527497248
0.81750,2.443080471
0.81800,2.748274879
0.81850,2.748274879
0.81900,2.748274879
0.81950,1.832691656
0.82000,0.6119140248
0.82050,-0.9140580137
0.82100,-3.050418868
0.82150,-5.797168537
0.82200,-7.933529391
0.82250,-8.543918206
0.82300,-8.543918206
0.82350,-7.628334983
0.82400,-6.407557352
0.82450,-5.186779721
0.82500,-4.576390906
0.82550,-4.881585314
0.82600,-4.881585314
0.82650,-3.050418868
0.82700,0.3067196171
0.82750,4.274246917
0.82800,6.105413363
0.82850,6.715802179
0.82900,6.715802179
0.82950,7.326190994
0.83000,8.241774217
0.83050,10.07294066
0.83100,11.90410711
0.83150,12.20930152
0.83200,10.68332948
0.83250,8.852163033
0.83300,8.852163033
0.83350,10.37813507
0.83400,10.98852389
0.83450,8.546968625
0.83500,5.495024548
0.83550,4.274246917
0.83600,5.18983014
0.83650,5.18983014
0.83700,2.443080471
0.83750,-1.524446829
0.83800,-4.576390906
0.83850,-5.491974129
0.83900,-5.797168537
0.83950,-7.017946168
0.84000,-10.06989024
0.84050,-14.34261195
0.84100,-17.39455603
0.84150,-18.61533366
0.84200,-18.61533366
0.84250,-19.53091688
0.84300,-19.83611129
0.84350,-17.69975044
0.84400,-13.42702873
0.84450,-9.764695837
0.84500,-8.543918206
0.84550,-7.933529391
0.84600,-6.71275176
0.84650,-5.491974129
0.84700,-5.491974129
0.84750,-4.576390906
0.84800,-0.9140580137
0.84850,3.358663694
0.84900,5.495024548
0.84950,4.579441325
0.85000,3.053469286
0.85050,2.443080471
0.85100,1.832691656
0.85150,0.6119140248
0.85200,0.001525209434
0.85250,0.001525209434
0.85300,1.22230284
0.85350,2.137886063
0.85400,1.832691656
0.85450,0.6119140248
0.85500,-1.219252421
0.85550,-3.050418868
0.85600,-3.660807683
0.85650,-3.050418868
0.85700,-2.134835644
0.85750,-1.219252421
0.85800,-0.608863606
0.85850,-0.9140580137
0.85900,-2.440030052
0.85950,-4.576390906
0.86000,-5.797168537
0.86050,-5.797168537
0.86100,-4.271196498
0.86150,-2.440030052
0.86200,-0.9140580137
0.86250,0.3067196171
0.86300,2.443080471
0.86350,3.96905251
0.86400,4.884635733
0.86450,5.800218956
0.86500,8.241774217
0.86550,12.81969033
0.86600,16.48202323
0.86650,17.09241204
0.86700,14.95605119
0.86750,12.81969033
0.86800,11.29371829
0.86850,10.07294066
0.86900,9.767746256
0.86950,10.98852389
0.87000,14.34566237
0.87050,17.09241204
0.87100,17.70280086
0.87150,16.48202323
0.87200,14.65085678
0.87250,13.12488474
0.87300,11.5989127
0.87350,11.5989127
0.87400,12.81969033
0.87450,14.04046796
0.87500,13.43007915
0.87550,10.37813507
0.87600,5.18983014
0.87650,0.001525209434
0.87700,-3.660807683
0.87750,-6.102362945
0.87800,-8.543918206
0.87850,-12.2062511
0.87900,-16.47897281
0.87950,-18.92052807
0.88000,-19.53091688
0.88050,-20.44650011
0.88100,-21.97247215
0.88150,-22.27766655
0.88200,-20.1413057
0.88250,-17.69975044
0.88300,-16.47897281
0.88350,-16.1737784
0.88400,-15.25819518
0.88450,-13.73222314
0.88500,-12.2062511
0.88550,-10.68027906
0.88600,-9.459501429
0.88650,-8.238723799
0.88700,-6.407557352
0.88750,-3.355613275
0.88800,-0.608863606
0.88850,0.001525209434
0.88900,-1.829641237
0.88950,-4.576390906
0.89000,-5.491974129
0.89050,-3.660807683
0.89100,-0.608863606
0.89150,2.137886063
0.89200,4.884635733
0.89250,7.020996587
0.89300,8.241774217
0.89350,8.546968625
0.89400,8.241774217
0.89450,8.852163033
0.89500,12.20930152
0.89550,16.78721763
0.89600,18.92357849
0.89650,17.39760645
0.89700,14.95605119
0.89750,15.26124559
0.89800,17.39760645
0.89850,18.00799526
0.89900,15.56644
0.89950,13.12488474
0.90000,12.81969033
0.90050,14.04046796
0.90100,13.12488474
0.90150,8.852163033
0.90200,2.137886063
0.90250,-4.576390906
0.90300,-8.543918206
0.90350,-9.154307022
0.90400,-9.154307022
0.90450,-11.90105669
0.90500,-17.08936162
0.90550,-21.36208333
0.90600,-22.27766655
0.90650,-20.75169451
0.90700,-18.31013925
0.90750,-15.25819518
0.90800,-10.37508465
0.90850,-6.102362945
0.90900,-4.881585314
0.90950,-6.407557352
0.91000,-7.628334983
0.91050,-6.407557352
0.91100,-3.355613275
0.91150,-0.608863606
0.91200,1.22230284
0.91250,2.443080471
0.91300,3.053469286
0.91350,3.053469286
0.91400,3.358663694
0.91450,2.748274879
0.91500,0.001525209434
0.91550,-3.966002091
0.91600,-5.186779721
0.91650,-2.440030052
0.91700,0.9171084325
0.91750,3.663858102
0.91800,7.020996587
0.91850,12.81969033
0.91900,18.31318967
0.91950,20.14435612
0.92000,19.83916171
0.92050,22.28071697
0.92100,28.38460513
0.92150,32.65732683
0.92200,32.04693802
0.92250,29.30018835
0.92300,29.30018835
0.92350,31.13135479
0.92400,30.52096598
0.92450,25.02746664
0.92500,18.00799526
0.92550,11.90410711
0.92600,6.410607771
0.92650,0.6119140248
0.92700,-5.186779721
0.92750,-10.68027906
0.92800,-14.95300077
0.92850,-17.69975044
0.92900,-19.22572248
0.92950,-21.66727774
0.93000,-25.93999945
0.93050,-30.82310997
0.93100,-31.43349878
0.93150,-26.55038826
0.93200,-19.53091688
0.93250,-14.64780636
0.93300,-12.2062511
0.93350,-10.98547347
0.93400,-10.68027906
0.93450,-12.81663991
0.93500,-16.1737784
0.93550,-17.39455603
0.93600,-14.95300077
0.93650,-10.37508465
0.93700,-6.71275176
0.93750,-4.271196498
0.93800,-3.660807683
0.93850,-4.271196498
0.93900,-4.271196498
0.93950,-2.134835644
0.94000,0.6119140248
0.94050,2.137886063
0.94100,1.832691656
0.94150,2.137886063
0.94200,3.96905251
0.94250,4.579441325
0.94300,2.443080471
0.94350,0.3067196171
0.94400,1.527497248
0.94450,5.800218956
0.94500,10.68332948
0.94550,13.43007915
0.94600,13.43007915
0.94650,10.98852389
0.94700,7.631385402
0.94750,5.800218956
0.94800,6.410607771
0.94850,7.326190994
0.94900,7.326190994
0.94950,7.326190994
0.95000,8.241774217
0.95050,8.546968625
0.95100,7.631385402
0.95150,8.546968625
0.95200,13.73527356
0.95250,20.44955053
0.95300,23.19630019
0.95350,20.14435612
0.95400,16.17682882
0.95450,14.95605119
0.95500,16.48202323
0.95550,18.92357849
0.95600,21.97552256
0.95650,25.02746664
0.95700,25.94304986
0.95750,24.41707783
0.95800,21.97552256
0.95850,21.05993934
0.95900,22.28071697
0.95950,22.58591138
0.96000,19.83916171
0.96050,13.73527356
0.96100,6.410607771
0.96150,-0.608863606
0.96200,-7.017946168
0.96250,-11.90105669
0.96300,-14.95300077
0.96350,-15.86858399
0.96400,-16.1737784
0.96450,-15.56338958
0.96500,-14.95300077
0.96550,-14.34261195
0.96600,-13.42702873
0.96650,-11.29066788
0.96700,-6.102362945
0.96750,0.001525209434
0.96800,3.053469286
0.96850,1.22230284
0.96900,-1.524446829
0.96950,-1.524446829
0.97000,3.053469286
0.97050,8.852163033
0.97100,12.51449593
0.97150,15.56644
0.97200,19.5339673
0.97250,22.28071697
0.97300,22.58591138
0.97350,21.97552256
0.97400,23.5014946
0.97450,27.77421631
0.97500,31.13135479
0.97550,31.74174361
0.97600,29.91057716
0.97650,28.68979953
0.97700,28.07941072
0.97750,26.55343868
0.97800,22.89110579
0.97850,18.92357849
0.97900,16.48202323
0.97950,14.04046796
0.98000,8.852163033
0.98050,0.3067196171
0.98100,-7.017946168
0.98150,-8.849112614
0.98200,-4.271196498
0.98250,0.6119140248
0.98300,1.832691656
0.98350,0.001525209434
0.98400,-2.74522446
0.98450,-4.271196498
0.98500,-4.881585314
0.98550,-5.491974129
0.98600,-5.491974129
0.98650,-4.576390906
0.98700,-3.050418868
0.98750,-1.524446829
0.98800,-0.608863606
0.98850,-0.608863606
0.98900,-0.608863606
0.98950,1.832691656
0.99000,6.715802179
0.99050,10.07294066
0.99100,7.020996587
0.99150,-0.3036691983
0.99200,-7.323140575
0.99250,-11.90105669
0.99300,-16.47897281
0.99350,-21.66727774
0.99400,-24.71922181
0.99450,-24.71922181
0.99500,-25.02441622
0.99550,-27.46597148
0.99600,-29.90752675
0.99650,-30.82310997
0.99700,-31.73869319
0.99750,-35.40102608
0.99800,-38.45297016
0.99850,-37.23219253
0.99900,-32.0438876
0.99950,-26.85558267
1.00000,-24.71922181
1.00050,-24.41402741
1.00100,-24.108833
1.00150,-23.49844418
1.00200,-22.27766655
1.00250,-19.53091688
1.00300,-15.86858399
1.00350,-13.12183432
1.00400,-11.59586228
1.00450,-10.06989024
1.00500,-7.323140575
1.00550,-5.186779721
1.00600,-4.881585314
1.00650,-7.323140575
1.00700,-9.764695837
1.00750,-10.06989024
1.00800,-8.849112614
1.00850,-7.628334983
1.00900,-7.628334983
1.00950,-8.238723799
1.01000,-7.628334983
1.01050,-5.797168537
1.01100,-2.74522446
1.01150,0.3067196171
1.01200,2.748274879
1.01250,2.137886063
1.01300,-1.219252421
1.01350,-5.186779721
1.01400,-5.797168537
1.01450,-3.660807683
1.01500,-2.134835644
1.01550,-2.134835644
1.01600,-1.524446829
1.01650,0.9171084325
1.01700,3.663858102
1.01750,4.884635733
1.01800,5.495024548
1.01850,7.631385402
1.01900,10.07294066
1.01950,10.98852389
1.02000,10.68332948
1.02050,10.98852389
1.02100,12.51449593
1.02150,13.73527356
1.02200,12.51449593
1.02250,9.15735744
1.02300,5.495024548
1.02350,4.274246917
1.02400,6.715802179
1.02450,10.68332948
1.02500,12.20930152
1.02550,9.767746256
1.02600,6.715802179
1.02650,6.105413363
1.02700,9.15735744
1.02750,12.20930152
1.02800,13.12488474
1.02850,12.51449593
1.02900,11.5989127
1.02950,10.07294066
1.03000,7.93657981
1.03050,5.18983014
1.03100,3.663858102
1.03150,3.358663694
1.03200,3.053469286
1.03250,2.137886063
1.03300,1.22230284
1.03350,1.527497248
1.03400,3.053469286
1.03450,4.579441325
1.03500,5.18983014
1.03550,4.579441325
1.03600,4.884635733
1.03650,5.800218956
1.03700,6.715802179
1.03750,6.105413363
1.03800,4.884635733
1.03850,5.18983014
1.03900,6.715802179
1.03950,8.546968625
1.04000,7.93657981
1.04050,6.105413363
1.04100,4.274246917
1.04150,2.748274879
1.04200,0.9171084325
1.04250,-0.9140580137
1.04300,-2.134835644
1.04350,-2.440030052
1.04400,-1.524446829
1.04450,0.3067196171
1.04500,6.105413363
1.04550,13.12488474
1.04600,17.09241204
1.04650,15.56644
1.04700,12.81969033
1.04750,15.56644
1.04800,22.89110579
1.04850,27.16382749
1.04900,24.72227223
1.04950,19.83916171
1.05000,17.70280086
1.05050,17.70280086
1.05100,16.78721763
1.05150,14.95605119
1.05200,13.73527356
1.05250,11.90410711
1.05300,6.410607771
1.05350,-1.524446829
1.05400,-7.628334983
1.05450,-10.37508465
1.05500,-11.90105669
1.05550,-15.56338958
1.05600,-18.61533366
1.05650,-18.92052807
1.05700,-17.08936162
1.05750,-15.25819518
1.05800,-13.73222314
1.05850,-11.29066788
1.05900,-8.543918206
1.05950,-7.323140575
1.06000,-7.628334983
1.06050,-7.628334983
1.06100,-6.102362945
1.06150,-4.271196498
1.06200,-4.271196498
1.06250,-6.407557352
1.06300,-10.06989024
1.06350,-11.90105669
1.06400,-10.37508465
1.06450,-6.407557352
1.06500,-2.74522446
1.06550,-1.219252421
1.06600,-0.608863606
1.06650,-0.608863606
1.06700,-2.134835644
1.06750,-5.491974129
1.06800,-7.628334983
1.06850,-5.186779721
1.06900,-0.9140580137
1.06950,1.22230284
1.07000,1.527497248
1.07050,3.053469286
1.07100,7.631385402
1.07150,11.29371829
1.07200,10.98852389
1.07250,7.631385402
1.07300,4.274246917
1.07350,2.748274879
1.07400,3.053469286
1.07450,3.96905251
1.07500,4.884635733
1.07550,4.579441325
1.07600,4.274246917
1.07650,5.18983014
1.07700,7.93657981
1.07750,9.767746256
1.07800,8.852163033
1.07850,6.105413363
1.07900,3.358663694
1.07950,1.22230284
1.08000,1.527497248
1.08050,5.495024548
1.08100,11.5989127
1.08150,16.78721763
1.08200,18.61838408
1.08250,18.61838408
1.08300,18.92357849
1.08350,20.44955053
1.08400,21.97552256
1.08450,22.58591138
1.08500,21.05993934
1.08550,16.78721763
1.08600,10.07294066
1.08650,3.358663694
1.08700,-1.219252421
1.08750,-5.186779721
1.08800,-8.543918206
1.08850,-10.06989024
1.08900,-8.849112614
1.08950,-6.71275176
1.09000,-7.323140575
1.09050,-9.154307022
1.09100,-9.154307022
1.09150,-5.797168537
1.09200,-0.9140580137
1.09250,3.358663694
1.09300,7.326190994
1.09350,10.07294066
1.09400,10.68332948
1.09450,8.241774217
1.09500,4.884635733
1.09550,2.137886063
1.09600,-0.608863606
1.09650,-5.186779721
1.09700,-10.37508465
1.09750,-12.81663991
1.09800,-12.2062511
1.09850,-10.98547347
1.09900,-12.51144551
1.09950,-16.78416721
1.10000,-21.97247215
1.10050,-26.24519385
1.10100,-27.77116589
1.10150,-27.46597148
1.10200,-26.55038826
1.10250,-26.55038826
1.10300,-27.16077708
1.10350,-27.16077708
1.10400,-25.93999945
1.10450,-22.58286096
1.10500,-17.08936162
1.10550,-11.59586228
1.10600,-9.459501429
1.10650,-10.37508465
1.10700,-10.37508465
1.10750,-6.71275176
1.10800,-2.134835644
1.10850,0.001525209434
1.10900,0.001525209434
1.10950,0.001525209434
1.11000,0.001525209434
1.11050,-0.9140580137
1.11100,-1.829641237
1.11150,-1.219252421
1.11200,-1.219252421
1.11250,-4.576390906
1.11300,-7.933529391
1.11350,-6.407557352
1.11400,-0.9140580137
1.11450,2.443080471
1.11500,0.9171084325
1.11550,-1.219252421
1.11600,-0.608863606
1.11650,1.22230284
1.11700,2.443080471
1.11750,3.96905251
1.11800,6.410607771
1.11850,7.020996587
1.11900,3.053469286
1.11950,-1.219252421
1.12000,-0.9140580137
1.12050,3.358663694
1.12100,6.715802179
1.12150,6.715802179
1.12200,5.800218956
1.12250,5.18983014
1.12300,3.358663694
1.12350,0.001525209434
1.12400,-1.829641237
1.12450,-0.9140580137
1.12500,0.001525209434
1.12550,-1.219252421
1.12600,-3.050418868
1.12650,-2.134835644
1.12700,0.001525209434
1.12750,0.9171084325
1.12800,-0.3036691983
1.12850,-0.9140580137
1.12900,1.22230284
1.12950,4.579441325
1.13000,5.18983014
1.13050,2.443080471
1.13100,-0.9140580137
1.13150,-1.524446829
1.13200,1.22230284
1.13250,5.18983014
1.13300,6.105413363
1.13350,3.663858102
1.13400,0.001525209434
1.13450,-2.134835644
1.13500,-2.440030052
1.13550,-1.829641237
1.13600,-1.524446829
1.13650,-2.134835644
1.13700,-4.576390906
1.13750,-7.933529391
1.13800,-9.764695837
1.13850,-8.238723799
1.13900,-5.186779721
1.13950,-3.050418868
1.14000,-2.74522446
1.14050,-3.660807683
1.14100,-4.576390906
1.14150,-5.186779721
1.14200,-4.881585314
1.14250,-3.660807683
1.14300,-2.440030052
1.14350,-3.050418868
1.14400,-4.576390906
1.14450,-4.881585314
1.14500,-4.271196498
1.14550,-3.660807683
1.14600,-4.271196498
1.14650,-4.576390906
1.14700,-3.660807683
1.14750,-2.74522446
1.14800,-3.050418868
1.14850,-4.576390906
1.14900,-5.186779721
1.14950,-4.576390906
1.15000,-2.440030052
1.15050,0.6119140248
1.15100,4.579441325
1.15150,6.410607771
1.15200,4.884635733
1.15250,1.527497248
1.15300,-0.608863606
1.15350,-1.524446829
1.15400,-2.134835644
1.15450,-3.660807683
1.15500,-4.271196498
1.15550,-4.576390906
1.15600,-5.797168537
1.15650,-7.628334983
1.15700,-7.933529391
1.15750,-4.271196498
1.15800,0.001525209434
1.15850,1.22230284
1.15900,0.001525209434
1.15950,-0.608863606
1.16000,2.137886063
1.16050,6.410607771
1.16100,8.241774217
1.16150,8.241774217
1.16200,10.07294066
1.16250,12.81969033
1.16300,12.51449593
1.16350,8.546968625
1.16400,4.884635733
1.16450,4.884635733
1.16500,6.410607771
1.16550,6.105413363
1.16600,3.358663694
1.16650,0.9171084325
1.16700,-0.3036691983
1.16750,-1.524446829
1.16800,-2.134835644
1.16850,-0.608863606
1.16900,1.527497248
1.16950,3.358663694
1.17000,4.884635733
1.17050,6.410607771
1.17100,7.93657981
1.17150,9.767746256
1.17200,13.73527356
1.17250,20.44955053
1.17300,27.16382749
1.17350,29.30018835
1.17400,26.85863309
1.17450,25.33266105
1.17500,28.38460513
1.17550,32.35213243
1.17600,32.04693802
1.17650,26.24824427
1.17700,18.92357849
1.17750,11.29371829
1.17800,2.443080471
1.17850,-7.323140575
1.17900,-16.78416721
1.17950,-23.80363859
1.18000,-30.21272115
1.18050,-36.62180371
1.18100,-41.81010865
1.18150,-44.25166391
1.18200,-44.55685831
1.18250,-43.9464695
1.18300,-43.03088628
1.18350,-41.19971983
1.18400,-38.75816457
1.18450,-35.09583168
1.18500,-29.60233234
1.18550,-22.27766655
1.18600,-14.34261195
1.18650,-7.628334983
1.18700,-2.134835644
1.18750,2.137886063
1.18800,3.96905251
1.18850,3.358663694
1.18900,1.527497248
1.18950,0.001525209434
1.19000,0.001525209434
1.19050,0.3067196171
1.19100,1.527497248
1.19150,2.748274879
1.19200,3.053469286
1.19250,2.443080471
1.19300,3.053469286
1.19350,4.884635733
1.19400,5.800218956
1.19450,6.105413363
1.19500,7.326190994
1.19550,10.98852389
1.19600,14.65085678
1.19650,15.56644
1.19700,14.34566237
1.19750,13.43007915
1.19800,12.20930152
1.19850,9.767746256
1.19900,7.020996587
1.19950,5.18983014
1.20000,3.663858102
1.20050,1.22230284
1.20100,-1.219252421
1.20150,-3.050418868
1.20200,-4.576390906
1.20250,-7.017946168
1.20300,-10.68027906
1.20350,-12.81663991
1.20400,-12.81663991
1.20450,-12.51144551
1.20500,-13.42702873
1.20550,-14.03741754
1.20600,-12.51144551
1.20650,-10.06989024
1.20700,-8.238723799
1.20750,-7.628334983
1.20800,-6.71275176
1.20850,-4.271196498
1.20900,-2.134835644
1.20950,-0.3036691983
1.21000,3.96905251
1.21050,12.81969033
1.21100,23.80668901
1.21150,30.82616039
1.21200,32.04693802
1.21250,29.30018835
1.21300,26.24824427
1.21350,24.41707783
1.21400,23.19630019
1.21450,22.58591138
1.21500,19.83916171
1.21550,13.12488474
1.21600,3.663858102
1.21650,-1.524446829
1.21700,-1.219252421
1.21750,-0.9140580137
1.21800,-5.491974129
1.21850,-12.2062511
1.21900,-15.25819518
1.21950,-15.25819518
1.22000,-17.08936162
1.22050,-24.108833
1.22100,-31.73869319
1.22150,-35.70622049
1.22200,-36.0114149
1.22250,-36.62180371
1.22300,-39.67374779
1.22350,-43.03088628
1.22400,-42.11530305
1.22450,-34.79063727
1.22500,-24.41402741
1.22550,-16.78416721
1.22600,-13.73222314
1.22650,-11.29066788
1.22700,-7.017946168
1.22750,-3.660807683
1.22800,-3.050418868
1.22850,-3.966002091
1.22900,-4.271196498
1.22950,-4.271196498
1.23000,-5.491974129
1.23050,-7.323140575
1.23100,-6.102362945
1.23150,-0.3036691983
1.23200,5.495024548
1.23250,9.15735744
1.23300,9.767746256
1.23350,8.546968625
1.23400,6.410607771
1.23450,4.274246917
1.23500,3.663858102
1.23550,5.800218956
1.23600,9.767746256
1.23650,12.51449593
1.23700,11.90410711
1.23750,10.07294066
1.23800,9.462551848
1.23850,9.15735744
1.23900,8.241774217
1.23950,8.546968625
1.24000,12.81969033
1.24050,19.83916171
1.24100,24.11188342
1.24150,21.67032816
1.24200,16.17682882
1.24250,14.04046796
1.24300,15.26124559
1.24350,15.56644
1.24400,13.12488474
1.24450,10.07294066
1.24500,7.631385402
1.24550,4.884635733
1.24600,0.9171084325
1.24650,-1.219252421
1.24700,-1.829641237
1.24750,-4.576390906
1.24800,-12.51144551
1.24850,-19.83611129
1.24900,-18.31013925
1.24950,-7.628334983
1.25000,3.053469286
1.25050,6.105413363
1.25100,3.053469286
1.25150,1.22230284
1.25200,3.663858102
1.25250,7.93657981
1.25300,13.43007915
1.25350,19.5339673
1.25400,25.94304986
1.25450,30.82616039
1.25500,32.65732683
1.25550,31.13135479
1.25600,26.85863309
1.25650,21.97552256
1.25700,19.22877289
1.25750,19.83916171
1.25800,20.14435612
1.25850,17.09241204
1.25900,11.29371829
1.25950,7.020996587
1.26000,4.274246917
1.26050,0.3067196171
1.26100,-6.102362945
1.26150,-12.51144551
1.26200,-16.1737784
1.26250,-19.83611129
1.26300,-25.32961063
1.26350,-30.82310997
1.26400,-33.26466523
1.26450,-34.48544286
1.26500,-37.23219253
1.26550,-40.89452542
1.26600,-40.89452542
1.26650,-35.09583168
1.26700,-27.46597148
1.26750,-21.36208333
1.26800,-16.47897281
1.26850,-10.37508465
1.26900,-5.186779721
1.26950,-3.050418868
1.27000,-2.74522446
1.27050,-0.3036691983
1.27100,4.274246917
1.27150,8.241774217
1.27200,8.241774217
1.27250,6.105413363
1.27300,4.884635733
1.27350,6.105413363
1.27400,9.462551848
1.27450,11.90410711
1.27500,10.98852389
1.27550,6.715802179
1.27600,2.443080471
1.27650,1.22230284
1.27700,2.748274879
1.27750,4.579441325
1.27800,3.96905251
1.27850,1.527497248
1.27900,-1.219252421
1.27950,-4.271196498
1.28000,-5.797168537
1.28050,-3.966002091
1.28100,0.001525209434
1.28150,3.053469286
1.28200,3.358663694
1.28250,3.663858102
1.28300,6.715802179
1.28350,10.98852389
1.28400,12.81969033
1.28450,12.51449593
1.28500,13.43007915
1.28550,16.78721763
1.28600,19.22877289
1.28650,18.00799526
1.28700,14.65085678
1.28750,11.29371829
1.28800,9.15735744
1.28850,7.631385402
1.28900,8.241774217
1.28950,10.68332948
1.29000,10.98852389
1.29050,6.715802179
1.29100,-0.3036691983
1.29150,-4.881585314
1.29200,-6.71275176
1.29250,-8.238723799
1.29300,-11.90105669
1.29350,-16.1737784
1.29400,-19.83611129
1.29450,-23.19324978
1.29500,-25.93999945
1.29550,-25.63480504
1.29600,-22.88805537
1.29650,-21.05688892
1.29700,-21.97247215
1.29750,-22.27766655
1.29800,-19.53091688
1.29850,-15.25819518
1.29900,-12.51144551
1.29950,-10.68027906
1.30000,-6.71275176
1.30050,-0.3036691983
1.30100,5.495024548
1.30150,12.20930152
1.30200,20.14435612
1.30250,27.77421631
1.30300,32.04693802
1.30350,33.57291006
1.30400,35.4040765
1.30450,37.23524295
1.30500,36.93004854
1.30550,33.57291006
1.30600,28.68979953
1.30650,23.19630019
1.30700,15.87163441
1.30750,7.020996587
1.30800,-1.829641237
1.30850,-10.37508465
1.30900,-18.92052807
1.30950,-27.16077708
1.31000,-32.34908201
1.31050,-33.56985964
1.31100,-32.34908201
1.31150,-30.82310997
1.31200,-31.12830438
1.31250,-32.0438876
1.31300,-31.12830438
1.31350,-27.46597148
1.31400,-23.19324978
1.31450,-21.05688892
1.31500,-21.05688892
1.31550,-20.75169451
1.31600,-18.31013925
1.31650,-16.47897281
1.31700,-15.86858399
1.31750,-12.51144551
1.31800,-5.797168537
1.31850,0.6119140248
1.31900,3.053469286
1.31950,4.884635733
1.32000,10.37813507
1.32050,18.00799526
1.32100,21.36513375
1.32150,18.92357849
1.32200,15.26124559
1.32250,14.34566237
1.32300,15.87163441
1.32350,18.61838408
1.32400,22.58591138
1.32450,25.63785546
1.32500,25.33266105
1.32550,21.36513375
1.32600,17.09241204
1.32650,14.04046796
1.32700,11.29371829
1.32750,7.020996587
1.32800,3.053469286
1.32850,0.001525209434
1.32900,-2.74522446
1.32950,-6.102362945
1.33000,-8.238723799
1.33050,-8.543918206
1.33100,-8.543918206
1.33150,-9.764695837
1.33200,-10.68027906
1.33250,-10.68027906
1.33300,-10.37508465
1.33350,-10.68027906
1.33400,-9.154307022
1.33450,-4.271196498
1.33500,1.527497248
1.33550,6.105413363
1.33600,10.37813507
1.33650,17.39760645
1.33700,27.77421631
1.33750,37.23524295
1.33800,43.0339367
1.33850,45.17029755
1.33900,44.25471433
1.33950,42.11835347
1.34000,40.89757584
1.34050,40.28718703
1.34100,37.84563176
1.34150,32.65732683
1.34200,26.55343868
1.34250,22.58591138
1.34300,19.5339673
1.34350,13.43007915
1.34400,4.579441325
1.34450,-2.74522446
1.34500,-7.017946168
1.34550,-10.68027906
1.34600,-17.08936162
1.34650,-26.24519385
1.34700,-35.70622049
1.34750,-42.72569187
1.34800,-47.30360798
1.34850,-50.96594088
1.34900,-55.54385699
1.34950,-59.51138429
1.35000,-60.12177311
1.35050,-55.54385699
1.35100,-49.13477443
1.35150,-44.25166391
1.35200,-39.9789422
1.35250,-33.26466523
1.35300,-26.24519385
1.35350,-22.58286096
1.35400,-22.27766655
1.35450,-19.53091688
1.35500,-11.90105669
1.35550,-3.050418868
1.35600,1.527497248
1.35650,1.832691656
1.35700,0.9171084325
1.35750,0.001525209434
1.35800,-0.3036691983
1.35850,-1.219252421
1.35900,-1.219252421
1.35950,-0.3036691983
1.36000,0.9171084325
1.36050,2.748274879
1.36100,4.274246917
1.36150,4.884635733
1.36200,5.800218956
1.36250,7.020996587
1.36300,7.631385402
1.36350,6.410607771
1.36400,5.495024548
1.36450,7.326190994
1.36500,11.90410711
1.36550,16.17682882
1.36600,17.09241204
1.36650,14.95605119
1.36700,10.37813507
1.36750,6.410607771
1.36800,6.105413363
1.36850,10.68332948
1.36900,16.78721763
1.36950,20.75474493
1.37000,20.75474493
1.37050,19.83916171
1.37100,19.5339673
1.37150,20.14435612
1.37200,21.97552256
1.37250,24.11188342
1.37300,24.11188342
1.37350,20.75474493
1.37400,16.78721763
1.37450,15.56644
1.37500,18.61838408
1.37550,22.28071697
1.37600,23.80668901
1.37650,21.05993934
1.37700,14.65085678
1.37750,7.631385402
1.37800,4.579441325
1.37850,5.18983014
1.37900,5.495024548
1.37950,3.358663694
1.38000,0.3067196171
1.38050,-1.524446829
1.38100,-2.74522446
1.38150,-3.660807683
1.38200,-4.271196498
1.38250,-3.660807683
1.38300,-3.966002091
1.38350,-6.102362945
1.38400,-8.238723799
1.38450,-8.543918206
1.38500,-8.543918206
1.38550,-9.459501429
1.38600,-9.764695837
1.38650,-8.849112614
1.38700,-8.238723799
1.38750,-9.764695837
1.38800,-11.29066788
1.38850,-10.68027906
1.38900,-7.628334983
1.38950,-5.491974129
1.39000,-6.71275176
1.39050,-9.764695837
1.39100,-11.59586228
1.39150,-10.06989024
1.39200,-3.966002091
1.39250,3.96905251
1.39300,10.07294066
1.39350,11.90410711
1.39400,11.29371829
1.39450,11.29371829
1.39500,12.20930152
1.39550,14.34566237
1.39600,16.48202323
1.39650,17.39760645
1.39700,16.17682882
1.39750,14.04046796
1.39800,13.43007915
1.39850,14.65085678
1.39900,15.56644
1.39950,14.04046796
1.40000,11.5989127
1.40050,10.07294066
1.40100,8.241774217
1.40150,5.18983014
1.40200,2.137886063
1.40250,0.3067196171
1.40300,-1.829641237
1.40350,-6.102362945
1.40400,-9.459501429
1.40450,-8.849112614
1.40500,-4.881585314
1.40550,-0.9140580137
1.40600,-0.608863606
1.40650,-3.966002091
1.40700,-7.628334983
1.40750,-9.459501429
1.40800,-8.543918206
1.40850,-7.017946168
1.40900,-6.71275176
1.40950,-6.71275176
1.41000,-5.491974129
1.41050,-3.660807683
1.41100,-3.050418868
1.41150,-3.355613275
1.41200,-1.524446829
1.41250,0.9171084325
1.41300,0.001525209434
1.41350,-3.966002091
1.41400,-5.491974129
1.41450,-0.608863606
1.41500,4.884635733
1.41550,5.800218956
1.41600,3.96905251
1.41650,4.274246917
1.41700,5.495024548
1.41750,3.358663694
1.41800,0.001525209434
1.41850,0.6119140248
1.41900,4.274246917
1.41950,5.495024548
1.42000,3.053469286
1.42050,1.527497248
1.42100,1.832691656
1.42150,1.527497248
1.42200,-1.524446829
1.42250,-4.576390906
1.42300,-5.491974129
1.42350,-5.491974129
1.42400,-7.017946168
1.42450,-9.459501429
1.42500,-10.68027906
1.42550,-10.06989024
1.42600,-9.154307022
1.42650,-9.154307022
1.42700,-10.98547347
1.42750,-13.12183432
1.42800,-12.51144551
1.42850,-8.238723799
1.42900,-1.219252421
1.42950,3.96905251
1.43000,5.800218956
1.43050,4.884635733
1.43100,3.053469286
1.43150,3.663858102
1.43200,8.852163033
1.43250,18.00799526
1.43300,26.85863309
1.43350,31.4365492
1.43400,30.21577157
1.43450,26.24824427
1.43500,23.5014946
1.43550,22.89110579
1.43600,21.05993934
1.43650,15.56644
1.43700,7.631385402
1.43750,2.443080471
1.43800,2.443080471
1.43850,3.358663694
1.43900,0.6119140248
1.43950,-5.186779721
1.44000,-10.06989024
1.44050,-11.59586228
1.44100,-12.51144551
1.44150,-15.25819518
1.44200,-18.31013925
1.44250,-19.22572248
1.44300,-18.92052807
1.44350,-18.61533366
1.44400,-18.31013925
1.44450,-16.47897281
1.44500,-12.81663991
1.44550,-10.68027906
1.44600,-10.98547347
1.44650,-11.90105669
1.44700,-11.90105669
1.44750,-10.37508465
1.44800,-10.06989024
1.44850,-11.59586228
1.44900,-13.73222314
1.44950,-13.42702873
1.45000,-10.37508465
1.45050,-5.491974129
1.45100,-1.524446829
1.45150,0.001525209434
1.45200,0.9171084325
1.45250,1.527497248
1.45300,2.443080471
1.45350,3.96905251
1.45400,5.495024548
1.45450,6.105413363
1.45500,5.18983014
1.45550,3.358663694
1.45600,2.443080471
1.45650,4.579441325
1.45700,9.767746256
1.45750,15.26124559
1.45800,18.31318967
1.45850,19.22877289
1.45900,21.05993934
1.45950,24.41707783
1.46000,26.24824427
1.46050,22.58591138
1.46100,15.56644
1.46150,10.98852389
1.46200,10.98852389
1.46250,11.90410711
1.46300,9.462551848
1.46350,3.96905251
1.46400,0.6119140248
1.46450,0.001525209434
1.46500,-1.829641237
1.46550,-7.017946168
1.46600,-12.2062511
1.46650,-12.81663991
1.46700,-8.238723799
1.46750,-3.660807683
1.46800,-1.829641237
1.46850,-2.74522446
1.46900,-3.966002091
1.46950,-4.576390906
1.47000,-3.355613275
1.47050,-0.3036691983
1.47100,2.137886063
1.47150,3.053469286
1.47200,4.579441325
1.47250,9.767746256
1.47300,18.31318967
1.47350,24.11188342
1.47400,24.11188342
1.47450,19.5339673
1.47500,14.34566237
1.47550,8.852163033
1.47600,1.527497248
1.47650,-7.017946168
1.47700,-13.73222314
1.47750,-16.1737784
1.47800,-14.95300077
1.47850,-14.64780636
1.47900,-16.47897281
1.47950,-18.92052807
1.48000,-18.31013925
1.48050,-14.64780636
1.48100,-10.68027906
1.48150,-8.238723799
1.48200,-5.186779721
1.48250,-0.608863606
1.48300,4.884635733
1.48350,8.546968625
1.48400,9.15735744
1.48450,7.326190994
1.48500,4.274246917
1.48550,0.9171084325
1.48600,-0.3036691983
1.48650,0.001525209434
1.48700,0.3067196171
1.48750,0.001525209434
1.48800,0.3067196171
1.48850,0.9171084325
1.48900,0.3067196171
1.48950,-0.608863606
1.49000,0.3067196171
1.49050,6.105413363
1.49100,11.90410711
1.49150,12.81969033
1.49200,10.68332948
1.49250,12.20930152
1.49300,18.31318967
1.49350,22.89110579
1.49400,22.28071697
1.49450,20.14435612
1.49500,18.92357849
1.49550,17.70280086
1.49600,15.26124559
1.49650,14.65085678
1.49700,18.00799526
1.49750,21.36513375
1.49800,19.83916171
1.49850,15.26124559
1.49900,12.51449593
1.49950,12.51449593
1.50000,12.81969033
1.50050,12.81969033
1.50100,12.51449593
1.50150,11.29371829
1.50200,7.326190994
1.50250,2.748274879
1.50300,0.3067196171
1.50350,-1.829641237
1.50400,-7.323140575
1.50450,-14.34261195
1.50500,-18.61533366
1.50550,-19.83611129
1.50600,-22.27766655
1.50650,-28.68674911
1.50700,-34.79063727
1.50750,-35.09583168
1.50800,-30.51791556
1.50850,-26.24519385
1.50900,-25.63480504
1.50950,-27.77116589
1.51000,-28.68674911
1.51050,-27.77116589
1.51100,-26.24519385
1.51150,-25.02441622
1.51200,-22.58286096
1.51250,-18.31013925
1.51300,-15.25819518
1.51350,-14.03741754
1.51400,-11.59586228
1.51450,-5.186779721
1.51500,3.053469286
1.51550,8.241774217
1.51600,9.15735744
1.51650,10.37813507
1.51700,16.17682882
1.51750,23.80668901
1.51800,28.38460513
1.51850,29.91057716
1.51900,31.13135479
1.51950,32.65732683
1.52000,33.57291006
1.52050,34.18329887
1.52100,36.31965973
1.52150,39.3716038
1.52200,41.20277025
1.52250,40.59238143
1.52300,39.67679821
1.52350,38.15082617
1.52400,33.87810446
1.52450,25.94304986
1.52500,18.00799526
1.52550,13.43007915
1.52600,9.767746256
1.52650,2.748274879
1.52700,-7.323140575
1.52750,-18.31013925
1.52800,-28.0763603
1.52850,-38.14777575
1.52900,-48.52438562
1.52950,-54.93346818
1.53000,-55.23866258
1.53050,-52.49191292
1.53100,-50.05035765
1.53150,-47.60880239
1.53200,-41.81010865
1.53250,-33.56985964
1.53300,-26.85558267
1.53350,-21.66727774
1.53400,-16.78416721
1.53450,-10.98547347
1.53500,-5.491974129
1.53550,0.6119140248
1.53600,7.631385402
1.53650,11.90410711
1.53700,10.68332948
1.53750,7.020996587
1.53800,7.93657981
1.53850,13.12488474
1.53900,16.17682882
1.53950,13.12488474
1.54000,6.410607771
1.54050,0.6119140248
1.54100,-3.355613275
1.54150,-8.238723799
1.54200,-13.73222314
1.54250,-18.31013925
1.54300,-21.36208333
1.54350,-22.58286096
1.54400,-23.19324978
1.54450,-24.41402741
1.54500,-26.85558267
1.54550,-29.29713793
1.54600,-29.29713793
1.54650,-26.85558267
1.54700,-24.71922181
1.54750,-22.58286096
1.54800,-19.83611129
1.54850,-16.1737784
1.54900,-12.51144551
1.54950,-9.459501429
1.55000,-4.881585314
1.55050,0.3067196171
1.55100,4.884635733
1.55150,6.715802179
1.55200,7.93657981
1.55250,8.852163033
1.55300,9.15735744
1.55350,9.462551848
1.55400,11.5989127
1.55450,14.65085678
1.55500,15.87163441
1.55550,14.34566237
1.55600,11.5989127
1.55650,9.462551848
1.55700,6.105413363
1.55750,0.001525209434
1.55800,-7.933529391
1.55850,-15.56338958
1.55900,-22.88805537
1.55950,-29.90752675
1.56000,-34.79063727
1.56050,-35.40102608
1.56100,-34.48544286
1.56150,-33.87505405
1.56200,-32.95947082
1.56250,-28.0763603
1.56300,-19.53091688
1.56350,-11.59586228
1.56400,-7.017946168
1.56450,-5.491974129
1.56500,-2.74522446
1.56550,1.22230284
1.56600,4.579441325
1.56650,5.18983014
1.56700,3.96905251
1.56750,3.663858102
1.56800,3.96905251
1.56850,3.663858102
1.56900,3.358663694
1.56950,4.579441325
1.57000,7.326190994
1.57050,9.462551848
1.57100,10.07294066
1.57150,10.98852389
1.57200,12.20930152
1.57250,13.73527356
1.57300,14.34566237
1.57350,13.43007915
1.57400,9.462551848
1.57450,3.358663694
1.57500,0.001525209434
1.57550,2.443080471
1.57600,9.462551848
1.57650,14.65085678
1.57700,17.09241204
1.57750,20.14435612
1.57800,25.63785546
1.57850,29.60538276
1.57900,28.68979953
1.57950,25.63785546
1.58000,24.11188342
1.58050,25.02746664
1.58100,25.63785546
1.58150,25.02746664
1.58200,24.11188342
1.58250,25.02746664
1.58300,26.24824427
1.58350,26.24824427
1.58400,23.5014946
1.58450,19.5339673
1.58500,16.48202323
1.58550,15.56644
1.58600,15.26124559
1.58650,11.5989127
1.58700,4.579441325
1.58750,-3.355613275
1.58800,-10.06989024
1.58850,-14.64780636
1.58900,-16.78416721
1.58950,-17.69975044
1.59000,-18.61533366
1.59050,-19.53091688
1.59100,-18.61533366
1.59150,-16.1737784
1.59200,-14.64780636
1.59250,-15.86858399
1.59300,-17.39455603
1.59350,-16.47897281
1.59400,-13.12183432
1.59450,-9.764695837
1.59500,-6.71275176
1.59550,-3.355613275
1.59600,0.3067196171
1.59650,3.96905251
1.59700,6.410607771
1.59750,9.15735744
1.59800,12.81969033
1.59850,15.26124559
1.59900,14.04046796
1.59950,10.68332948
1.60000,9.767746256
1.60050,13.12488474
1.60100,19.22877289
1.60150,23.80668901
1.60200,25.63785546
1.60250,26.55343868
1.60300,28.07941072
1.60350,29.91057716
1.60400,30.82616039
1.60450,31.74174361
1.60500,33.26771565
1.60550,35.0988821
1.60600,35.70927091
1.60650,35.4040765
1.60700,34.48849328
1.60750,31.4365492
1.60800,23.19630019
1.60850,9.767746256
1.60900,-4.576390906
1.60950,-15.56338958
1.61000,-22.58286096
1.61050,-29.29713793
1.61100,-39.06335898
1.61150,-49.13477443
1.61200,-54.01788495
1.61250,-52.18671851
1.61300,-48.82958002
1.61350,-50.05035765
1.61400,-54.32307936
1.61450,-55.54385699
1.61500,-51.57632969
1.61550,-45.47244154
1.61600,-40.89452542
1.61650,-35.70622049
1.61700,-26.85558267
1.61750,-14.34261195
1.61800,-2.440030052
1.61850,5.18983014
1.61900,9.767746256
1.61950,13.73527356
1.62000,19.83916171
1.62050,25.94304986
1.62100,27.4690219
1.62150,24.72227223
1.62200,22.89110579
1.62250,26.24824427
1.62300,28.07941072
1.62350,21.05993934
1.62400,8.241774217
1.62450,-0.3036691983
1.62500,-1.219252421
1.62550,-1.524446829
1.62600,-7.017946168
1.62650,-13.12183432
1.62700,-15.25819518
1.62750,-18.61533366
1.62800,-27.46597148
1.62850,-36.31660931
1.62900,-36.0114149
1.62950,-29.90752675
1.63000,-29.90752675
1.63050,-38.14777575
1.63100,-44.86205272
1.63150,-43.03088628
1.63200,-35.09583168
1.63250,-28.0763603
1.63300,-21.66727774
1.63350,-15.25819518
1.63400,-10.68027906
1.63450,-8.849112614
1.63500,-7.323140575
1.63550,-3.966002091
1.63600,-0.9140580137
1.63650,0.001525209434
1.63700,3.663858102
1.63750,11.29371829
1.63800,18.61838408
1.63850,18.31318967
1.63900,12.51449593
1.63950,8.241774217
1.64000,7.326190994
1.64050,5.800218956
1.64100,1.832691656
1.64150,-3.355613275
1.64200,-9.154307022
1.64250,-16.1737784
1.64300,-22.88805537
1.64350,-23.49844418
1.64400,-15.56338958
1.64450,-5.186779721
1.64500,0.3067196171
1.64550,0.3067196171
1.64600,-0.9140580137
1.64650,-1.524446829
1.64700,-2.74522446
1.64750,-4.881585314
1.64800,-3.966002091
1.64850,1.527497248
1.64900,9.462551848
1.64950,16.17682882
1.65000,21.05993934
1.65050,25.33266105
1.65100,28.99499394
1.65150,31.13135479
1.65200,32.35213243
1.65250,32.04693802
1.65300,27.77421631
1.65350,19.83916171
1.65400,11.90410711
1.65450,6.410607771
1.65500,1.527497248
1.65550,-5.491974129
1.65600,-14.03741754
1.65650,-20.44650011
1.65700,-24.71922181
1.65750,-28.38155471
1.65800,-28.99194352
1.65850,-22.27766655
1.65900,-11.90105669
1.65950,-5.186779721
1.66000,-5.186779721
1.66050,-7.017946168
1.66100,-5.491974129
1.66150,-0.608863606
1.66200,6.410607771
1.66250,18.61838408
1.66300,34.79368769
1.66350,47.61185281
1.66400,51.57938011
1.66450,48.52743603
1.66500,44.55990873
1.66550,40.89757584
1.66600,34.48849328
1.66650,25.63785546
1.66700,19.5339673
1.66750,16.78721763
1.66800,14.34566237
1.66850,7.631385402
1.66900,-2.440030052
1.66950,-13.12183432
1.67000,-21.97247215
1.67050,-28.68674911
1.67100,-33.26466523
1.67150,-34.18024845
1.67200,-30.82310997
1.67250,-24.71922181
1.67300,-18.92052807
1.67350,-15.25819518
1.67400,-12.81663991
1.67450,-12.2062511
1.67500,-13.42702873
1.67550,-14.95300077
1.67600,-12.2062511
1.67650,-3.660807683
1.67700,5.18983014
1.67750,8.852163033
1.67800,7.020996587
1.67850,4.579441325
1.67900,4.579441325
1.67950,5.495024548
1.68000,5.18983014
1.68050,3.663858102
1.68100,0.9171084325
1.68150,-2.440030052
1.68200,-3.050418868
1.68250,2.443080471
1.68300,13.43007915
1.68350,25.33266105
1.68400,36.01446532
1.68450,46.69626959
1.68500,55.54690741
1.68550,59.81962912
1.68600,61.65079557
1.68650,66.53390609
1.68700,74.46896069
1.68750,77.82609917
1.68800,73.55337747
1.68850,68.67026694
1.68900,68.67026694
1.68950,69.89104457
1.69000,65.92351727
1.69050,58.9040459
1.69100,54.63132419
1.69150,50.35860248
1.69200,40.28718703
1.69250,27.4690219
1.69300,18.31318967
1.69350,10.68332948
1.69400,-3.355613275
1.69450,-24.41402741
1.69500,-41.50491424
1.69550,-50.05035765
1.69600,-58.59580107
1.69650,-74.16071586
1.69700,-90.64121388
1.69750,-98.88146289
1.69800,-100.7126293
1.69850,-104.6801566
1.69900,-112.3100168
1.69950,-116.8879329
1.70000,-113.5307945
1.70050,-106.8165175
1.70100,-102.2386014
1.70150,-99.4918517
1.70200,-96.43990762
1.70250,-90.64121388
1.70300,-82.40096487
1.70350,-73.24513264
1.70400,-61.95293955
1.70450,-46.69321917
1.70500,-29.29713793
1.70550,-16.1737784
1.70600,-11.59586228
1.70650,-12.81663991
1.70700,-13.42702873
1.70750,-10.68027906
1.70800,-7.323140575
1.70850,-5.186779721
1.70900,-0.9140580137
1.70950,7.631385402
1.71000,16.78721763
1.71050,21.36513375
1.71100,20.75474493
1.71150,19.83916171
1.71200,22.58591138
1.71250,28.07941072
1.71300,33.57291006
1.71350,38.15082617
1.71400,43.0339367
1.71450,48.22224163
1.71500,50.35860248
1.71550,46.69626959
1.71600,39.0664094
1.71650,32.96252124
1.71700,31.4365492
1.71750,30.52096598
1.71800,27.16382749
1.71850,23.80668901
1.71900,23.5014946
1.71950,24.72227223
1.72000,22.58591138
1.72050,18.31318967
1.72100,19.5339673
1.72150,29.60538276
1.72200,41.81315906
1.72250,47.91704722
1.72300,45.78068636
1.72350,39.67679821
1.72400,33.26771565
1.72450,29.30018835
1.72500,29.30018835
1.72550,32.04693802
1.72600,32.65732683
1.72650,28.68979953
1.72700,22.28071697
1.72750,17.09241204
1.72800,13.73527356
1.72850,10.98852389
1.72900,9.462551848
1.72950,10.37813507
1.73000,10.98852389
1.73050,7.326190994
1.73100,-1.219252421
1.73150,-10.98547347
1.73200,-18.00494484
1.73250,-21.66727774
1.73300,-23.80363859
1.73350,-24.108833
1.73400,-21.05688892
1.73450,-16.47897281
1.73500,-13.42702873
1.73550,-13.73222314
1.73600,-16.1737784
1.73650,-19.53091688
1.73700,-24.41402741
1.73750,-30.21272115
1.73800,-33.87505405
1.73850,-32.34908201
1.73900,-25.93999945
1.73950,-21.05688892
1.74000,-22.88805537
1.74050,-30.21272115
1.74100,-35.09583168
1.74150,-33.26466523
1.74200,-28.68674911
1.74250,-30.51791556
1.74300,-39.9789422
1.74350,-48.82958002
1.74400,-49.43996884
1.74450,-43.9464695
1.74500,-38.75816457
1.74550,-34.48544286
1.74600,-26.85558267
1.74650,-16.1737784
1.74700,-7.933529391
1.74750,-4.881585314
1.74800,-2.134835644
1.74850,3.96905251
1.74900,10.98852389
1.74950,14.34566237
1.75000,14.95605119
1.75050,17.39760645
1.75100,22.89110579
1.75150,28.07941072
1.75200,31.4365492
1.75250,33.26771565
1.75300,34.18329887
1.75350,32.04693802
1.75400,26.55343868
1.75450,20.44955053
1.75500,15.87163441
1.75550,11.90410711
1.75600,8.852163033
1.75650,8.241774217
1.75700,9.15735744
1.75750,8.241774217
1.75800,3.663858102
1.75850,-0.9140580137
1.75900,-1.219252421
1.75950,3.663858102
1.76000,9.462551848
1.76050,12.20930152
1.76100,11.29371829
1.76150,7.93657981
1.76200,5.18983014
1.76250,5.495024548
1.76300,8.852163033
1.76350,13.43007915
1.76400,17.09241204
1.76450,22.58591138
1.76500,31.74174361
1.76550,42.11835347
1.76600,46.39107518
1.76650,42.72874229
1.76700,36.93004854
1.76750,35.70927091
1.76800,38.45602058
1.76850,41.20277025
1.76900,45.17029755
1.76950,52.49496333
1.77000,60.73521234
1.77050,62.26118438
1.77100,54.02093537
1.77150,41.81315906
1.77200,32.96252124
1.77250,27.4690219
1.77300,19.83916171
1.77350,7.631385402
1.77400,-5.797168537
1.77450,-18.92052807
1.77500,-29.60233234
1.77550,-34.79063727
1.77600,-29.90752675
1.77650,-14.34261195
1.77700,3.663858102
1.77750,15.87163441
1.77800,20.44955053
1.77850,23.80668901
1.77900,32.04693802
1.77950,43.94951992
1.78000,54.02093537
1.78050,57.07287945
1.78100,53.41054656
1.78150,45.17029755
1.78200,37.23524295
1.78250,34.48849328
1.78300,37.23524295
1.78350,40.28718703
1.78400,38.15082617
1.78450,29.60538276
1.78500,18.61838408
1.78550,7.020996587
1.78600,-7.017946168
1.78650,-25.32961063
1.78700,-46.08283035
1.78750,-65.61527245
1.78800,-82.40096487
1.78850,-95.21912999
1.78900,-104.3749622
1.78950,-111.0892392
1.79000,-116.5827385
1.79050,-119.3294882
1.79100,-116.5827385
1.79150,-106.8165175
1.79200,-91.86199151
1.79250,-75.99188231
1.79300,-62.86852278
1.79350,-52.79710732
1.79400,-41.19971983
1.79450,-21.97247215
1.79500,3.663858102
1.79550,29.30018835
1.79600,47.001464
1.79650,57.37807386
1.79700,64.09235083
1.79750,68.05987813
1.79800,68.05987813
1.79850,66.53390609
1.79900,66.8391005
1.79950,67.75468372
1.80000,62.26118438
1.80050,48.83263044
1.80100,32.65732683
1.80150,18.92357849
1.80200,8.546968625
1.80250,-0.3036691983
1.80300,-7.323140575
1.80350,-12.2062511
1.80400,-15.86858399
1.80450,-18.31013925
1.80500,-19.22572248
1.80550,-19.53091688
1.80600,-20.1413057
1.80650,-20.1413057
1.80700,-15.25819518
1.80750,-4.576390906
1.80800,7.631385402
1.80850,15.26124559
1.80900,15.26124559
1.80950,9.15735744
1.81000,0.6119140248
1.81050,-7.017946168
1.81100,-13.42702873
1.81150,-19.22572248
1.81200,-25.02441622
1.81250,-29.60233234
1.81300,-32.34908201
1.81350,-35.09583168
1.81400,-39.36855338
1.81450,-42.72569187
1.81500,-43.03088628
1.81550,-43.03088628
1.81600,-44.55685831
1.81650,-45.47244154
1.81700,-42.42049746
1.81750,-38.45297016
1.81800,-39.06335898
1.81850,-44.25166391
1.81900,-45.77763595
1.81950,-40.28413661
1.82000,-35.09583168
1.82050,-37.84258135
1.82100,-45.47244154
1.82150,-49.13477443
1.82200,-42.42049746
1.82250,-28.0763603
1.82300,-12.51144551
1.82350,-1.219252421
1.82400,5.18983014
1.82450,11.90410711
1.82500,23.80668901
1.82550,39.98199262
1.82600,52.80015774
1.82650,56.15729623
1.82700,50.35860248
1.82750,40.59238143
1.82800,31.74174361
1.82850,27.4690219
1.82900,26.85863309
1.82950,26.24824427
1.83000,21.67032816
1.83050,14.34566237
1.83100,10.98852389
1.83150,14.34566237
1.83200,18.00799526
1.83250,15.56644
1.83300,8.241774217
1.83350,2.137886063
1.83400,-0.608863606
1.83450,-3.355613275
1.83500,-7.933529391
1.83550,-12.2062511
1.83600,-14.64780636
1.83650,-18.31013925
1.83700,-25.93999945
1.83750,-36.62180371
1.83800,-45.77763595
1.83850,-50.66074647
1.83900,-53.40749614
1.83950,-56.15424581
1.84000,-57.68021785
1.84050,-55.8490514
1.84100,-52.49191292
1.84150,-50.96594088
1.84200,-49.74516325
1.84250,-43.33608068
1.84300,-30.21272115
1.84350,-18.00494484
1.84400,-12.2062511
1.84450,-9.459501429
1.84500,-3.966002091
1.84550,2.443080471
1.84600,5.800218956
1.84650,6.105413363
1.84700,7.93657981
1.84750,11.29371829
1.84800,13.73527356
1.84850,15.56644
1.84900,19.22877289
1.84950,24.72227223
1.85000,28.38460513
1.85050,31.13135479
1.85100,33.57291006
1.85150,35.0988821
1.85200,32.65732683
1.85250,29.30018835
1.85300,29.30018835
1.85350,29.91057716
1.85400,23.5014946
1.85450,11.90410711
1.85500,4.884635733
1.85550,9.15735744
1.85600,20.44955053
1.85650,28.99499394
1.85700,31.13135479
1.85750,28.07941072
1.85800,23.80668901
1.85850,21.97552256
1.85900,23.80668901
1.85950,28.38460513
1.86000,33.26771565
1.86050,38.76121499
1.86100,46.69626959
1.86150,55.54690741
1.86200,61.65079557
1.86250,62.8715732
1.86300,61.04040675
1.86350,57.37807386
1.86400,52.18976893
1.86450,48.52743603
1.86500,49.13782485
1.86550,52.49496333
1.86600,53.10535215
1.86650,48.52743603
1.86700,41.50796466
1.86750,33.57291006
1.86800,25.94304986
1.86850,20.44955053
1.86900,19.5339673
1.86950,21.36513375
1.87000,20.14435612
1.87050,13.43007915
1.87100,5.18983014
1.87150,-0.608863606
1.87200,-4.576390906
1.87250,-9.154307022
1.87300,-14.95300077
1.87350,-19.83611129
1.87400,-21.97247215
1.87450,-19.53091688
1.87500,-13.73222314
1.87550,-9.459501429
1.87600,-10.68027906
1.87650,-15.56338958
1.87700,-21.05688892
1.87750,-25.63480504
1.87800,-28.99194352
1.87850,-28.99194352
1.87900,-23.80363859
1.87950,-16.78416721
1.88000,-13.73222314
1.88050,-14.34261195
1.88100,-14.03741754
1.88150,-11.29066788
1.88200,-8.543918206
1.88250,-6.71275176
1.88300,-2.134835644
1.88350,4.884635733
1.88400,9.462551848
1.88450,6.715802179
1.88500,-1.219252421
1.88550,-8.849112614
1.88600,-12.81663991
1.88650,-14.34261195
1.88700,-14.64780636
1.88750,-13.73222314
1.88800,-9.459501429
1.88850,-0.9140580137
1.88900,9.15735744
1.88950,17.39760645
1.89000,21.97552256
1.89050,26.24824427
1.89100,31.74174361
1.89150,36.62485413
1.89200,39.98199262
1.89250,46.39107518
1.89300,57.37807386
1.89350,66.22871168
1.89400,65.92351727
1.89450,57.07287945
1.89500,48.52743603
1.89550,43.3391311
1.89600,37.54043736
1.89650,28.07941072
1.89700,15.56644
1.89750,2.748274879
1.89800,-8.849112614
1.89850,-17.69975044
1.89900,-24.41402741
1.89950,-31.73869319
1.90000,-42.72569187
1.90050,-55.23866258
1.90100,-65.00488363
1.90150,-69.27760534
1.90200,-68.97241093
1.90250,-67.7516333
1.90300,-68.66721652
1.90350,-73.24513264
1.90400,-78.12824316
1.90450,-78.12824316
1.90500,-73.55032705
1.90550,-68.97241093
1.90600,-65.00488363
1.90650,-57.06982903
1.90700,-43.64127509
1.90750,-31.73869319
1.90800,-26.85558267
1.90850,-26.24519385
1.90900,-24.41402741
1.90950,-21.36208333
1.91000,-18.61533366
1.91050,-14.34261195
1.91100,-7.323140575
1.91150,-0.3036691983
1.91200,4.274246917
1.91250,10.07294066
1.91300,18.61838408
1.91350,27.16382749
1.91400,32.96252124
1.91450,37.23524295
1.91500,40.28718703
1.91550,41.20277025
1.91600,45.78068636
1.91650,60.43001793
1.91700,79.0468768
1.91750,84.23518174
1.91800,72.94298865
1.91850,61.04040675
1.91900,62.56637879
1.91950,69.58585017
1.92000,69.58585017
1.92050,65.92351727
1.92100,69.58585017
1.92150,79.65726562
1.92200,84.84557055
1.92250,83.0144041
1.92300,79.0468768
1.92350,73.85857187
1.92400,62.8715732
1.92450,48.22224163
1.92500,33.57291006
1.92550,18.92357849
1.92600,2.137886063
1.92650,-12.81663991
1.92700,-22.58286096
1.92750,-32.65427641
1.92800,-48.21919121
1.92850,-64.69968922
1.92900,-77.51785435
1.92950,-91.86199151
1.93000,-115.9723497
1.93050,-143.4398464
1.93100,-157.1735948
1.93150,-150.7645122
1.93200,-132.1476533
1.93250,-114.1411833
1.93300,-103.459379
1.93350,-98.57626848
1.93400,-92.47238032
1.93450,-80.87499283
1.93500,-65.92046685
1.93550,-53.40749614
1.93600,-43.33608068
1.93650,-30.21272115
1.93700,-16.78416721
1.93750,-11.90105669
1.93800,-14.34261195
1.93850,-10.68027906
1.93900,4.579441325
1.93950,18.00799526
1.94000,17.09241204
1.94050,8.852163033
1.94100,8.241774217
1.94150,13.43007915
1.94200,13.12488474
1.94250,7.326190994
1.94300,4.274246917
1.94350,5.800218956
1.94400,6.105413363
1.94450,4.274246917
1.94500,7.020996587
1.94550,17.70280086
1.94600,31.13135479
1.94650,40.89757584
1.94700,46.69626959
1.94750,49.74821366
1.94800,52.80015774
1.94850,58.59885149
1.94900,67.1442949
1.94950,74.7741551
1.95000,79.96246003
1.95050,85.15076496
1.95100,91.86504193
1.95150,95.22218041
1.95200,92.47543074
1.95250,87.89751463
1.95300,85.15076496
1.95350,81.18323766
1.95400,70.8066278
1.95450,54.32612978
1.95500,35.70927091
1.95550,15.56644
1.95600,-7.933529391
1.95650,-32.0438876
1.95700,-50.66074647
1.95750,-64.08930041
1.95800,-76.90746553
1.95850,-90.33601947
1.95900,-103.1541846
1.95950,-114.7515721
1.96000,-124.5177931
1.96050,-126.9593484
1.96100,-117.1931273
1.96150,-98.27107407
1.96200,-80.87499283
1.96250,-69.88799415
1.96300,-60.42696752
1.96350,-47.60880239
1.96400,-33.56985964
1.96450,-23.80363859
1.96500,-18.92052807
1.96550,-14.03741754
1.96600,-5.186779721
1.96650,4.274246917
1.96700,8.852163033
1.96750,8.241774217
1.96800,7.326190994
1.96850,6.715802179
1.96900,2.137886063
1.96950,-9.154307022
1.97000,-21.36208333
1.97050,-25.63480504
1.97100,-22.27766655
1.97150,-17.39455603
1.97200,-12.2062511
1.97250,-2.74522446
1.97300,9.767746256
1.97350,18.00799526
1.97400,17.70280086
1.97450,12.51449593
1.97500,9.462551848
1.97550,9.15735744
1.97600,7.93657981
1.97650,3.96905251
1.97700,-4.881585314
1.97750,-19.83611129
1.97800,-36.31660931
1.97850,-47.60880239
1.97900,-51.8815241
1.97950,-53.10230173
1.98000,-52.18671851
1.98050,-45.47244154
1.98100,-36.0114149
1.98150,-34.79063727
1.98200,-47.9139968
1.98250,-66.22566126
1.98300,-77.51785435
1.98350,-79.6542152
1.98400,-78.43343757
1.98450,-76.90746553
1.98500,-72.02435501
1.98550,-62.56332837
1.98600,-51.27113528
1.98650,-40.28413661
1.98700,-28.38155471
1.98750,-14.95300077
1.98800,-1.524446829
1.98850,10.07294066
1.98900,21.05993934
1.98950,32.35213243
1.99000,43.3391311
1.99050,53.10535215
1.99100,64.70273964
1.99150,78.7416824
1.99200,92.47543074
1.99250,99.80009653
1.99300,99.49490212
1.99350,96.74815245
1.99400,95.83256923
1.99450,93.08581956
1.99500,82.7092097
1.99550,67.75468372
1.99600,57.98846267
1.99650,54.63132419
1.99700,49.74821366
1.99750,35.0988821
1.99800,14.34566237
1.99850,-3.966002091
1.99900,-14.34261195
1.99950,-13.73222314
2.00000,-2.440030052
2.00050,13.73527356
2.00100,24.72227223
2.00150,23.5014946
2.00200,14.95605119
2.00250,9.767746256
2.00300,10.37813507
2.00350,12.51449593
2.00400,13.43007915
2.00450,13.12488474
2.00500,11.29371829
2.00550,4.884635733
2.00600,-4.881585314
2.00650,-14.64780636
2.00700,-22.27766655
2.00750,-28.38155471
2.00800,-32.65427641
2.00850,-31.12830438
2.00900,-23.80363859
2.00950,-15.25819518
2.01000,-8.849112614
2.01050,0.3067196171
2.01100,19.83916171
2.01150,46.08588077
2.01200,66.53390609
2.01250,72.33259983
2.01300,65.31312846
2.01350,51.57938011
2.01400,35.70927091
2.01450,23.19630019
2.01500,21.05993934
2.01550,29.91057716
2.01600,37.54043736
2.01650,34.48849328
2.01700,25.33266105
2.01750,20.14435612
2.01800,17.39760645
2.01850,5.495024548
2.01900,-17.39455603
2.01950,-38.75816457
2.02000,-47.30360798
2.02050,-47.30360798
2.02100,-48.21919121
2.02150,-49.43996884
2.02200,-44.86205272
2.02250,-33.87505405
2.02300,-22.88805537
2.02350,-17.69975044
2.02400,-17.08936162
2.02450,-16.78416721
2.02500,-13.42702873
2.02550,-9.459501429
2.02600,-10.98547347
2.02650,-21.05688892
2.02700,-33.26466523
2.02750,-37.23219253
2.02800,-29.60233234
2.02850,-20.1413057
2.02900,-18.00494484
2.02950,-21.66727774
2.03000,-23.19324978
2.03050,-17.08936162
2.03100,-4.881585314
2.03150,7.93657981
2.03200,19.5339673
2.03250,29.91057716
2.03300,40.89757584
2.03350,50.66379689
2.03400,53.41054656
2.03450,48.22224163
2.03500,45.47549196
2.03550,57.07287945
2.03600,80.87804325
2.03650,99.80009653
2.03700,98.27412449
2.03750,79.0468768
2.03800,56.46249063
2.03850,39.3716038
2.03900,27.16382749
2.03950,15.26124559
2.04000,4.884635733
2.04050,-1.219252421
2.04100,-1.829641237
2.04150,2.137886063
2.04200,10.07294066
2.04250,17.70280086
2.04300,19.83916171
2.04350,16.48202323
2.04400,15.26124559
2.04450,23.5014946
2.04500,39.0664094
2.04550,53.41054656
2.04600,61.34560116
2.04650,61.95598997
2.04700,55.241713
2.04750,41.50796466
2.04800,25.33266105
2.04850,14.65085678
2.04900,10.07294066
2.04950,0.9171084325
2.05000,-19.83611129
2.05050,-47.30360798
2.05100,-69.88799415
2.05150,-81.18018724
2.05200,-85.14771454
2.05250,-86.06329776
2.05300,-83.92693691
2.05350,-76.60227112
2.05400,-65.31007804
2.05450,-55.23866258
2.05500,-51.57632969
2.05550,-56.15424581
2.05600,-65.61527245
2.05650,-76.90746553
2.05700,-90.03082506
2.05750,-104.985351
2.05800,-117.8035162
2.05850,-123.2970155
2.05900,-118.7190994
2.05950,-108.0372951
2.06000,-97.05029644
2.06050,-90.03082506
2.06100,-83.01135369
2.06150,-68.36202212
2.06200,-43.64127509
2.06250,-18.00494484
2.06300,-3.050418868
2.06350,3.053469286
2.06400,15.87163441
2.06450,43.3391311
2.06500,77.52090477
2.06550,108.9559288
2.06600,139.4753695
2.06650,176.7090873
2.06700,219.4363043
2.06750,259.4167718
2.06800,289.3258237
2.06850,305.8063217
2.06900,303.9751553
2.06950,282.0011579
2.07000,248.7349675
2.07050,214.5531938
2.07100,179.1506425
2.07150,136.118231
2.07200,85.15076496
2.07250,33.57291006
2.07300,-16.78416721
2.07350,-69.27760534
2.07400,-118.1087106
2.07450,-149.2385402
2.07500,-154.4268451
2.07550,-148.0177625
2.07600,-152.5956786
2.07650,-174.8748704
2.07700,-199.290423
2.07750,-206.9202832
2.07800,-194.7125069
2.07850,-174.8748704
2.07900,-156.8684003
2.07950,-140.0827079
2.08000,-118.7190994
2.08050,-92.77757473
2.08100,-71.10877179
2.08150,-60.73216192
2.08200,-59.51138429
2.08250,-59.8165787
2.08300,-56.76463462
2.08350,-55.54385699
2.08400,-62.86852278
2.08450,-78.43343757
2.08500,-93.99835236
2.08550,-102.8489902
2.08600,-106.2061287
2.08650,-105.9009343
2.08700,-100.7126293
2.08750,-89.72563065
2.08800,-79.04382639
2.08850,-72.63474382
2.08900,-64.39449482
2.08950,-46.99841358
2.09000,-25.32961063
2.09050,-10.98547347
2.09100,-4.271196498
2.09150,7.631385402
2.09200,32.04693802
2.09250,57.98846267
2.09300,73.24818306
2.09350,80.26765443
2.09400,90.33906989
2.09450,108.0403455
2.09500,127.877982
2.09550,144.6636745
2.09600,158.0922284
2.09650,168.4688383
2.09700,177.3194761
2.09750,187.0856971
2.09800,196.8519182
2.09850,197.7675014
2.09900,180.981809
2.09950,150.1571738
2.10000,119.0273442
2.10050,96.44295804
2.10100,78.43648799
2.10150,57.37807386
2.10200,34.18329887
2.10250,12.20930152
2.10300,-10.68027906
2.10350,-39.67374779
2.10400,-71.7191606
2.10450,-97.96587966
2.10500,-116.8879329
2.10550,-134.894403
2.10600,-151.6800954
2.10650,-155.0372339
2.10700,-137.3359583
2.10750,-110.7840448
2.10800,-96.43990762
2.10850,-100.4074349
2.10900,-105.9009343
2.10950,-94.30354677
2.11000,-64.39449482
2.11050,-30.21272115
2.11100,-3.050418868
2.11150,16.48202323
2.11200,32.96252124
2.11250,48.22224163
2.11300,59.51443471
2.11350,65.61832287
2.11400,67.44948931
2.11450,66.8391005
2.11500,65.61832287
2.11550,64.70273964
2.11600,62.56637879
2.11650,55.85210182
2.11700,43.3391311
2.11750,28.07941072
2.11800,11.90410711
2.11850,-5.491974129
2.11900,-21.66727774
2.11950,-24.41402741
2.12000,-5.186779721
2.12050,28.68979953
2.12100,63.48196201
2.12150,95.83256923
2.12200,132.1507037
2.12250,170.3000047
2.12300,196.5467238
2.12350,204.4817784
2.12400,198.6830846
2.12450,178.5402537
2.12500,130.9299261
2.12550,54.63132419
2.12600,-26.55038826
2.12650,-89.42043625
2.12700,-132.7580421
2.12750,-169.6865655
2.12800,-199.9008118
2.12850,-212.4137826
2.12900,-202.0371727
2.12950,-175.1800648
2.13000,-136.7255694
2.13050,-87.28407539
2.13100,-33.56985964
2.13150,15.87163441
2.13200,60.43001793
2.13250,105.2935959
2.13300,147.1052297
2.13350,176.0986985
2.13400,189.8324468
2.13450,194.1051685
2.13500,192.8843909
2.13550,182.2025866
2.13600,162.3649501
2.13650,139.7805639
2.13700,120.5533163
2.13750,102.5468462
2.13800,80.87804325
2.13850,52.49496333
2.13900,15.87163441
2.13950,-27.77116589
2.14000,-74.77110468
2.14050,-118.1087106
2.14100,-155.3424283
2.14150,-189.524202
2.14200,-220.6540316
2.14250,-243.8488065
2.14300,-260.634499
2.14350,-278.640969
2.14400,-299.0889943
2.14450,-310.9915762
2.14500,-303.9721049
2.14550,-281.6929131
2.14600,-254.5306108
2.14650,-224.6215589
2.14700,-189.2190076
2.14750,-150.4593178
2.14800,-114.7515721
2.14850,-80.87499283
2.14900,-43.33608068
2.14950,-3.050418868
2.15000,30.82616039
2.15050,56.15729623
2.15100,78.43648799
2.15150,101.9364574
2.15200,121.4688995
2.15250,132.4558982
2.15300,136.7286199
2.15350,138.5597863
2.15400,139.1701751
2.15450,137.0338143
2.15500,130.0143429
2.15550,114.4494281
2.15600,90.9494587
2.15650,67.44948931
2.15700,52.18976893
2.15750,41.81315906
2.15800,28.07941072
2.15850,14.34566237
2.15900,8.241774217
2.15950,1.832691656
2.16000,-27.16077708
2.16050,-82.70615928
2.16100,-133.0632365
2.16150,-146.7969849
2.16200,-126.654154
2.16250,-98.57626848
2.16300,-78.43343757
2.16350,-61.64774515
2.16400,-45.77763595
2.16450,-39.06335898
2.16500,-46.69321917
2.16550,-63.17371718
2.16600,-77.82304875
2.16650,-86.67368658
2.16700,-92.47238032
2.16750,-104.3749622
2.16800,-126.654154
2.16850,-155.0372339
2.16900,-177.0112313
2.16950,-184.6410914
2.17000,-180.3683697
2.17050,-166.329427
2.17100,-138.2515415
2.17150,-94.60874118
2.17200,-43.33608068
2.17250,4.579441325
2.17300,46.08588077
2.17350,82.40401529
2.17400,113.2286505
2.17450,140.3909528
2.17500,171.2155879
2.17550,206.9233336
2.17600,237.13758
2.17650,249.6505507
2.17700,245.6830234
2.17750,236.8323856
2.17800,229.2025254
2.17850,218.2155267
2.17900,199.9038623
2.17950,177.9298649
2.18000,156.8714508
2.18050,135.5078422
2.18100,108.6507344
2.18150,73.24818306
2.18200,36.62485413
2.18250,9.767746256
2.18300,-4.271196498
2.18350,-14.34261195
2.18400,-28.99194352
2.18450,-48.52438562
2.18500,-71.10877179
2.18550,-96.43990762
2.18600,-121.4658491
2.18650,-133.368431
2.18700,-122.9918211
2.18750,-101.3230181
2.18800,-86.67368658
2.18850,-75.6866879
2.18900,-44.55685831
2.18950,18.92357849
2.19000,97.96893008
2.19050,170.3000047
2.19100,231.3388862
2.19150,286.579074
2.19200,331.7478464
2.19250,361.0465095
2.19300,378.1373964
2.19350,391.2607559
2.19400,394.6178944
2.19450,376.6114243
2.19500,338.7673178
2.19550,291.767379
2.19600,236.2219968
2.19650,165.7220886
2.19700,87.89751463
2.19750,23.5014946
2.19800,-25.02441622
2.19850,-79.34902079
2.19900,-148.6281513
2.19950,-208.7514497
2.20000,-232.2514191
2.20050,-222.7903924
2.20100,-203.8683391
2.20150,-186.1670635
2.20200,-162.6670941
2.20250,-133.6736254
2.20300,-109.5632672
2.20350,-95.5243244
2.20400,-83.31654809
2.20450,-64.69968922
2.20500,-39.9789422
2.20550,-11.90105669
2.20600,11.90410711
2.20650,23.80668901
2.20700,22.89110579
2.20750,21.67032816
2.20800,25.94304986
2.20850,24.72227223
2.20900,9.767746256
2.20950,-7.933529391
2.21000,-17.39455603
2.21050,-28.38155471
2.21100,-54.93346818
2.21150,-83.92693691
2.21200,-91.25160269
2.21250,-81.18018724
2.21300,-77.21265994
2.21350,-85.14771454
2.21400,-86.36849217
2.21450,-76.90746553
2.21500,-73.55032705
2.21550,-84.84252013
2.21600,-97.96587966
2.21650,-106.8165175
2.21700,-119.939877
2.21750,-134.2840142
2.21800,-130.0112925
2.21850,-99.18665729
2.21900,-60.73216192
2.21950,-33.56985964
2.22000,-19.22572248
2.22050,-14.95300077
2.22100,-24.71922181
2.22150,-43.33608068
2.22200,-53.40749614
2.22250,-50.66074647
2.22300,-50.05035765
2.22350,-60.12177311
2.22400,-67.14124448
2.22450,-57.68021785
2.22500,-41.19971983
2.22550,-31.73869319
2.22600,-30.21272115
2.22650,-31.43349878
2.22700,-34.79063727
2.22750,-39.06335898
2.22800,-36.0114149
2.22850,-25.02441622
2.22900,-17.39455603
2.22950,-20.44650011
2.23000,-27.46597148
2.23050,-29.60233234
2.23100,-28.38155471
2.23150,-24.71922181
2.23200,-13.73222314
2.23250,5.18983014
2.23300,26.55343868
2.23350,45.47549196
2.23400,61.95598997
2.23450,72.63779424
2.23500,73.55337747
2.23550,70.50143339
2.23600,71.72221102
2.23650,68.05987813
2.23700,39.3716038
2.23750,-10.06989024
2.23800,-47.9139968
2.23850,-50.66074647
2.23900,-29.29713793
2.23950,-5.491974129
2.24000,20.75474493
2.24050,61.65079557
2.24100,112.6182617
2.24150,158.3974228
2.24200,191.9688077
2.24250,217.9103323
2.24300,235.611608
2.24350,240.1895241
2.24400,231.9492751
2.24450,213.6376106
2.24500,183.4233642
2.24550,137.9493975
2.24600,82.7092097
2.24650,28.38460513
2.24700,-18.61533366
2.24750,-58.59580107
2.24800,-88.19965862
2.24850,-102.5437958
2.24900,-100.4074349
2.24950,-83.01135369
2.25000,-51.8815241
2.25050,-9.764695837
2.25100,36.93004854
2.25150,84.23518174
2.25200,129.0987597
2.25250,166.6376718
2.25300,188.9168636
2.25350,191.9688077
2.25400,177.9298649
2.25450,148.3260074
2.25500,100.7156798
2.25550,42.72874229
2.25600,-11.90105669
2.25650,-62.25813396
2.25700,-120.8554602
2.25750,-187.0826467
2.25800,-233.4721967
2.25850,-236.8293352
2.25900,-213.0241714
2.25950,-194.7125069
2.26000,-183.1151194
2.26050,-147.4073737
2.26100,-66.83605008
2.26150,43.0339367
2.26200,153.2091179
2.26250,246.903801
2.26300,314.0465707
2.26350,342.1244562
2.26400,327.1699303
2.26450,282.9167411
2.26500,228.2869422
2.26550,166.9428662
2.26600,93.08581956
2.26650,7.93657981
2.26700,-78.73863198
2.26750,-159.0047612
2.26800,-229.5046694
2.26850,-287.4916068
2.26900,-332.3551848
2.26950,-370.8096801
2.27000,-412.9265084
2.27050,-455.6537255
2.27100,-480.9848613
2.27150,-477.017334
2.27200,-453.5173646
2.27250,-426.6602568
2.27300,-394.0044551
2.27350,-342.4266002
2.27400,-276.8098026
2.27450,-220.3488372
2.27500,-174.569676
2.27550,-111.3944336
2.27600,-24.71922181
2.27650,39.0664094
2.27700,29.30018835
2.27750,-31.43349878
2.27800,-63.47891159
2.27850,-19.83611129
2.27900,66.8391005
2.27950,145.2740633
2.28000,206.6181392
2.28050,272.8453257
2.28100,343.3452339
2.28150,389.4295894
2.28200,392.1763391
2.28250,358.2997599
2.28300,303.0595721
2.28350,236.8323856
2.28400,166.027283
2.28450,94.00140278
2.28500,20.14435612
2.28550,-53.40749614
2.28600,-121.4658491
2.28650,-179.1475921
2.28700,-223.0955868
2.28750,-248.7319171
2.28800,-253.920222
2.28850,-256.0565829
2.28900,-280.4721355
2.28950,-325.6409078
2.29000,-353.4135989
2.29050,-332.3551848
2.29100,-271.3163032
2.29150,-195.9332845
2.29200,-104.3749622
2.29250,20.14435612
2.29300,160.8389781
2.29350,264.6050767
2.29400,299.0920448
2.29450,289.3258237
2.29500,284.1375188
2.29550,302.7543776
2.29600,329.9166799
2.29650,346.397178
2.29700,350.6698997
2.29750,346.7023724
2.29800,330.2218743
2.29850,292.3777678
2.29900,231.3388862
2.29950,155.6506731
2.30000,73.24818306
2.30050,-12.81663991
2.30100,-98.88146289
2.30150,-180.3683697
2.30200,-256.0565829
2.30250,-328.6928519
2.30300,-392.4784831
2.30350,-430.6277841
2.30400,-433.6797281
2.30450,-413.5368972
2.30500,-386.9849838
2.30550,-354.6343765
2.30600,-302.4461328
2.30650,-223.7059756
2.30700,-127.5697372
2.30750,-29.60233234
2.30800,52.49496333
2.30850,97.66373567
2.30900,96.74815245
2.30950,68.36507253
2.31000,39.98199262
2.31050,20.14435612
2.31100,0.6119140248
2.31150,-18.92052807
2.31200,-31.73869319
2.31250,-39.67374779
2.31300,-49.74516325
2.31350,-57.06982903
2.31400,-50.05035765
2.31450,-36.31660931
2.31500,-32.95947082
2.31550,-33.56985964
2.31600,-14.64780636
2.31650,18.31318967
2.31700,27.16382749
2.31750,-7.628334983
2.31800,-53.10230173
2.31850,-59.51138429
2.31900,-18.00494484
2.31950,43.64432551
2.32000,101.631263
2.32050,151.6831458
2.32100,195.6311405
2.32150,228.897331
2.32200,247.8193843
2.32250,255.7544389
2.32300,260.0271606
2.32350,262.4687158
2.32400,256.9752165
2.32450,239.8843297
2.32500,218.5207211
2.32550,203.2610007
2.32600,191.3584188
2.32650,167.553255
2.32700,130.9299261
2.32750,104.9884015
2.32800,112.3130672
2.32850,145.2740633
2.32900,182.507781
2.32950,216.3843603
2.33000,252.7024948
2.33050,282.0011579
2.33100,282.6115467
2.33150,247.8193843
2.33200,197.1571126
2.33250,157.4818396
2.33300,144.3584801
2.33350,158.3974228
2.33400,186.4753083
2.33450,206.9233336
2.33500,203.8713896
2.33550,181.2870034
2.33600,149.546785
2.33650,104.3780126
2.33700,30.52096598
2.33750,-69.88799415
2.33800,-172.4333151
2.33850,-251.1734723
2.33900,-299.3941887
2.33950,-323.8097414
2.34000,-328.0824631
2.34050,-311.6019651
2.34100,-278.640969
2.34150,-238.6605016
2.34200,-202.0371727
2.34250,-177.0112313
2.34300,-166.9398158
2.34350,-173.3488984
2.34400,-193.4917293
2.34450,-220.6540316
2.34500,-245.0695842
2.34550,-262.160471
2.34600,-278.3357746
2.34650,-302.1409384
2.34700,-330.5240183
2.34750,-346.6993219
2.34800,-339.985045
2.34850,-318.0110476
2.34900,-292.069523
2.34950,-259.7189157
2.35000,-211.8033937
2.35050,-148.9333457
2.35100,-86.06329776
2.35150,-34.79063727
2.35200,3.053469286
2.35250,34.18329887
2.35300,63.1767676
2.35350,95.22218041
2.35400,133.9818702
2.35450,178.8454481
2.35500,228.2869422
2.35550,283.52713
2.35600,346.397178
2.35650,412.6243644
2.35700,471.2216907
2.35750,514.864491
2.35800,543.2475709
2.35850,557.2865137
2.35900,555.1501528
2.35950,537.4488772
2.36000,512.1177413
2.36050,485.5658279
2.36100,453.8256095
2.36150,405.2996986
2.36200,339.682901
2.36250,271.6245481
2.36300,215.1635826
2.36350,162.0597557
2.36400,93.08581956
2.36450,4.884635733
2.36500,-84.23213132
2.36550,-160.8359276
2.36600,-231.0306414
2.36650,-303.361716
2.36700,-368.9785137
2.36750,-418.7252022
2.36800,-463.5887801
2.36850,-521.5757176
2.36900,-585.3613488
2.36950,-625.6470106
2.37000,-623.2054553
2.37050,-581.6990159
2.37100,-515.166635
2.37150,-441.6147827
2.37200,-386.3745949
2.37250,-358.9070982
2.37300,-332.9655736
2.37350,-270.0955256
2.37400,-172.1281207
2.37450,-78.43343757
2.37500,-7.628334983
2.37550,62.8715732
2.37600,150.7675626
2.37650,228.2869422
2.37700,259.1115773
2.37750,245.6830234
2.37800,216.9947491
2.37850,187.0856971
2.37900,151.9883402
2.37950,111.7026784
2.38000,70.8066278
2.38050,29.30018835
2.38100,-6.407557352
2.38150,-14.34261195
2.38200,21.97552256
2.38250,82.7092097
2.38300,134.2870646
2.38350,173.6571432
2.38400,230.423303
2.38450,323.5075974
2.38500,438.5658891
2.38550,544.1631541
2.38600,618.3253952
2.38650,650.6760024
2.38700,638.4682261
2.38750,588.4163433
2.38800,511.2021581
2.38850,413.8451421
2.38900,300.007628
2.38950,175.793504
2.39000,49.13782485
2.39050,-77.82304875
2.39100,-205.3943112
2.39150,-327.1668798
2.39200,-431.8485617
2.39250,-512.1146909
2.39300,-567.9652675
2.39350,-603.0626244
2.39400,-622.9002609
2.39450,-625.3418162
2.39500,-598.7899027
2.39550,-532.2575218
2.39600,-433.9849225
2.39650,-328.0824631
2.39700,-227.6735029
2.39750,-126.3489596
2.39800,-20.1413057
2.39850,71.1118222
2.39900,126.0468156
2.39950,148.6312018
2.40000,164.1961166
2.40050,185.5597251
2.40100,206.0077504
2.40150,219.4363043
2.40200,231.3388862
2.40250,245.377829
2.40300,255.4492445
2.40350,254.5336612
2.40400,244.1570514
2.40450,229.8129142
2.40500,216.9947491
2.40550,207.8389169
2.40600,198.6830846
2.40650,178.8454481
2.40700,144.3584801
2.40750,106.2091791
2.40800,84.54037614
2.40850,84.84557055
2.40900,92.17023634
2.40950,90.03387548
2.41000,73.24818306
2.41050,47.61185281
2.41100,20.75474493
2.41150,-5.491974129
2.41200,-39.36855338
2.41250,-88.81004743
2.41300,-152.900873
2.41350,-216.3813099
2.41400,-269.4851368
2.41450,-322.5889637
2.41500,-393.3940663
2.41550,-477.3225284
2.41600,-545.3808814
2.41650,-571.0172116
2.41700,-556.6730744
2.41750,-522.4913008
2.41800,-481.5952501
2.41850,-429.7122008
2.41900,-359.8226815
2.41950,-277.114997
2.42000,-191.9657572
2.42050,-107.4269063
2.42100,-18.00494484
2.42150,75.99493273
2.42200,164.501311
2.42250,238.9687464
2.42300,301.2284056
2.42350,355.2478158
2.42400,398.8906161
2.42450,428.799668
2.42500,448.3321101
2.42550,454.7411927
2.42600,430.6308345
2.42650,364.0984536
2.42700,270.7089648
2.42750,177.0142817
2.42800,86.06634818
2.42850,-15.25819518
2.42900,-118.1087106
2.42950,-189.8293964
2.43000,-216.3813099
2.43050,-224.01117
2.43100,-242.6280289
2.43150,-269.1799424
2.43200,-282.6084963
2.43250,-275.8942194
2.43300,-258.4981381
2.43350,-235.3033631
2.43400,-205.0891168
2.43450,-164.4982605
2.43500,-106.8165175
2.43550,-26.85558267
2.43600,60.12482353
2.43650,123.9104547
2.43700,155.6506731
2.43750,185.8649195
2.43800,245.9882178
2.43850,323.5075974
2.43900,382.4101181
2.43950,413.5399476
2.44000,430.6308345
2.44050,428.4944736
2.44100,378.1373964
2.44150,273.4557145
2.44200,151.6831458
2.44250,50.9689913
2.44300,-29.29713793
2.44350,-111.699628
2.44400,-202.3423671
2.44450,-291.7643286
2.44500,-378.4395403
2.44550,-465.1147521
2.44600,-537.1406323
2.44650,-561.2509906
2.44700,-517.3029958
2.44750,-419.0303966
2.44800,-297.5630223
2.44850,-174.8748704
2.44900,-53.10230173
2.44950,70.19623898
2.45000,188.6116692
2.45050,288.1050461
2.45100,359.2153431
2.45150,401.0269769
2.45200,414.7607253
2.45250,402.2477546
2.45300,371.4231194
2.45350,336.9361513
2.45400,311.9102099
2.45450,295.4297119
2.45500,282.6115467
2.45550,274.6764921
2.45600,277.1180474
2.45650,289.0206293
2.45700,297.8712671
2.45750,289.6310181
2.45800,256.3648277
2.45850,198.6830846
2.45900,122.0792883
2.45950,28.99499394
2.46000,-84.23213132
2.46050,-220.959226
2.46100,-367.7577361
2.46150,-499.2965258
2.46200,-599.0950971
2.46250,-666.2378668
2.46300,-694.6209467
2.46350,-668.0690332
2.46400,-583.5301823
2.46450,-463.8939745
2.46500,-331.744796
2.46550,-187.3878411
2.46600,-28.0763603
2.46650,122.3844827
2.46700,235.9168024
2.46750,312.2154043
2.46800,368.9815641
2.46850,401.0269769
2.46900,383.9360901
2.46950,316.1829316
2.47000,231.3388862
2.47050,158.3974228
2.47100,94.916986
2.47150,31.74174361
2.47200,-27.77116589
2.47250,-78.12824316
2.47300,-122.6866267
2.47350,-161.4463165
2.47400,-180.6735641
2.47450,-172.1281207
2.47500,-147.4073737
2.47550,-116.8879329
2.47600,-75.6866879
2.47650,-19.53091688
2.47700,34.79368769
2.47750,67.75468372
2.47800,80.57284884
2.47850,83.62479292
2.47900,71.72221102
2.47950,33.26771565
2.48000,-19.22572248
2.48050,-65.00488363
2.48100,-108.9528783
2.48150,-177.0112313
2.48200,-270.0955256
2.48250,-351.2772381
2.48300,-389.426539
2.48350,-390.3421222
2.48400,-373.8616242
2.48450,-339.985045
2.48500,-285.0500516
2.48550,-229.8098638
2.48600,-199.5956174
2.48650,-184.9462859
2.48700,-147.7125681
2.48750,-71.41396619
2.48800,17.09241204
2.48850,83.62479292
2.48900,122.6896771
2.48950,151.072757
2.49000,175.793504
2.49050,187.0856971
2.49100,179.1506425
2.49150,161.4493669
2.49200,146.8000353
2.49250,138.2545919
2.49300,130.3195373
2.49350,117.5013722
2.49400,97.05334686
2.49450,75.68973832
2.49500,73.24818306
2.49550,112.6182617
2.49600,190.74803
2.49650,273.7609089
2.49700,333.8842072
2.49750,378.7477852
2.49800,426.0529184
2.49850,458.70872
2.49900,441.6178332
2.49950,374.7802579
2.50000,298.4816559
2.50050,235.3064135
2.50100,163.8909221
2.50150,67.1442949
2.50200,-27.77116589
2.50250,-88.19965862
2.50300,-122.3814323
2.50350,-159.61515
2.50400,-195.6280901
2.50450,-198.3748398
2.50500,-159.9203444
2.50550,-107.4269063
2.50600,-63.784106
2.50650,-24.41402741
2.50700,17.09241204
2.50750,54.02093537
2.50800,78.7416824
2.50850,93.69620837
2.50900,96.74815245
2.50950,72.94298865
2.51000,17.09241204
2.51050,-46.99841358
2.51100,-84.53732572
2.51150,-79.34902079
2.51200,-40.28413661
2.51250,18.31318967
2.51300,93.69620837
2.51350,191.3584188
2.51400,310.3842378
2.51450,434.9035562
2.51500,542.0267933
2.51550,617.409812
2.51600,661.0526123
2.51650,682.1110264
2.51700,685.4681649
2.51750,668.6824725
2.51800,622.2929225
2.51850,532.5657666
2.51900,396.4490608
2.51950,238.663552
2.52000,105.2935959
2.52050,27.16382749
2.52100,-6.102362945
2.52150,-31.43349878
2.52200,-71.41396619
2.52250,-118.7190994
2.52300,-157.7839836
2.52350,-190.7449796
2.52400,-234.6929743
2.52450,-300.9201608
2.52500,-383.6278453
2.52550,-470.6082515
2.52600,-559.4198241
2.52650,-651.8937296
2.52700,-738.5689414
2.52750,-798.9974342
2.52800,-821.5818203
2.52850,-819.7506539
2.52900,-810.5948216
2.52950,-790.7571851
2.53000,-744.978024
2.53050,-675.393699
2.53100,-599.7054859
2.53150,-519.7445511
2.53200,-413.8420916
2.53250,-274.6734417
2.53300,-132.1476533
2.53350,-22.88805537
2.53400,54.02093537
2.53450,122.0792883
2.53500,182.507781
2.53550,213.3324162
2.53600,210.2804721
2.53650,202.3454175
2.53700,217.6051379
2.53750,250.5661339
2.53800,278.6440194
2.53850,292.9881566
2.53900,299.3972392
2.53950,300.9232112
2.54000,293.5985454
2.54050,274.9816865
2.54100,241.4103017
2.54150,183.7285586
2.54200,97.96893008
2.54250,2.137886063
2.54300,-73.85552145
2.54350,-122.9918211
2.54400,-165.1086494
2.54450,-218.8228651
2.54500,-274.0630529
2.54550,-308.550021
2.54600,-316.1798812
2.54650,-308.550021
2.54700,-294.8162726
2.54750,-273.4526641
2.54800,-247.205945
2.54850,-225.8423365
2.54900,-216.0761154
2.54950,-213.6345602
2.55000,-210.8878105
2.55050,-206.3098944
2.55100,-201.1215895
2.55150,-194.7125069
2.55200,-181.5891474
2.55250,-157.7839836
2.55300,-122.3814323
2.55350,-78.73863198
2.55400,-33.56985964
2.55450,8.241774217
2.55500,47.61185281
2.55550,84.84557055
2.55600,116.585789
2.55650,139.1701751
2.55700,154.1247011
2.55750,164.8065054
2.55800,169.3844215
2.55850,164.8065054
2.55900,151.9883402
2.55950,134.8974534
2.56000,115.3650113
2.56050,97.35854127
2.56100,90.33906989
2.56150,102.5468462
2.56200,135.5078422
2.56250,182.2025866
2.56300,231.6440807
2.56350,271.9297425
2.56400,298.7868503
2.56450,322.8972086
2.56500,356.4685934
2.56550,392.4815335
2.56600,409.5724203
2.56650,401.6373657
2.56700,380.2737572
2.56750,343.3452339
2.56800,269.7933816
2.56850,154.4298955
2.56900,27.4690219
2.56950,-79.04382639
2.57000,-162.3618997
2.57050,-226.7579197
2.57100,-258.8033325
2.57150,-240.4916681
2.57200,-175.1800648
2.57250,-81.48538165
2.57300,25.94304986
2.57350,131.5403149
2.57400,218.2155267
2.57450,282.3063523
2.57500,326.5595415
2.57550,329.6114855
2.57600,256.6700221
2.57650,120.5533163
2.57700,-12.2062511
2.57750,-97.66068526
2.57800,-162.0567053
2.57850,-241.1020569
2.57900,-311.9071595
2.57950,-329.6084351
2.58000,-300.0045776
2.58050,-262.160471
2.58100,-224.9267533
2.58150,-169.0761767
2.58200,-97.05029644
2.58250,-33.56985964
2.58300,16.48202323
2.58350,68.05987813
2.58400,115.9754001
2.58450,140.3909528
2.58500,147.4104241
2.58550,164.501311
2.58600,198.6830846
2.58650,224.6246093
2.58700,224.6246093
2.58750,204.4817784
2.58800,169.9948103
2.58850,119.3325386
2.58900,59.2092403
2.58950,6.410607771
2.59000,-35.09583168
2.59050,-79.34902079
2.59100,-132.7580421
2.59150,-185.2514803
2.59200,-227.9786973
2.59250,-258.4981381
2.59300,-269.4851368
2.59350,-244.7643898
2.59400,-179.7579809
2.59450,-86.06329776
2.59500,22.89110579
2.59550,144.9688689
2.59600,275.5920754
2.59650,402.2477546
2.59700,508.150214
2.59750,582.9228439
2.59800,621.3773393
2.59850,627.176033
2.59900,609.7799518
2.59950,571.020262
2.60000,493.1956881
2.60050,359.2153431
2.60100,188.0012804
2.60150,27.4690219
2.60200,-88.50485302
2.60250,-170.9073431
2.60300,-246.5955562
2.60350,-324.1149358
2.60400,-393.3940663
2.60450,-446.4978933
2.60500,-479.7640837
2.60550,-482.8160278
2.60600,-446.4978933
2.60650,-378.1343459
2.60700,-291.7643286
2.60750,-188.6086188
2.60800,-64.69968922
2.60850,62.56637879
2.60900,156.5662564
2.60950,198.0726958
2.61000,206.0077504
2.61050,205.0921672
2.61100,192.5791965
2.61150,149.8519794
2.61200,75.68973832
2.61250,-10.37508465
2.61300,-97.05029644
2.61350,-191.3553684
2.61400,-299.6993832
2.61450,-411.4005364
2.61500,-507.5367748
2.61550,-577.7314886
2.61600,-618.3223448
2.61650,-627.7833714
2.61700,-610.3872902
2.61750,-584.4457655
2.61800,-566.4392955
2.61850,-546.601659
2.61900,-492.8874432
2.61950,-390.6473166
2.62000,-262.7708598
2.62050,-140.6930967
2.62100,-26.85558267
2.62150,95.22218041
2.62200,220.0466932
2.62250,315.8777372
2.62300,363.7932592
2.62350,383.6308957
2.62400,404.9945042
2.62450,432.1568065
2.62500,448.9424989
2.62550,441.0074443
2.62600,402.8581434
2.62650,330.8322632
2.62700,230.7284974
2.62750,121.4688995
2.62800,19.5339673
2.62850,-79.04382639
2.62900,-183.1151194
2.62950,-273.7578585
2.63000,-314.3487147
2.63050,-292.3747174
2.63100,-238.0501128
2.63150,-190.1345908
2.63200,-160.5307332
2.63250,-133.9788198
2.63300,-96.43990762
2.63350,-44.25166391
2.63400,25.63785546
2.63450,124.2156491
2.63500,254.8388556
2.63550,397.364644
2.63600,511.5073525
2.63650,568.2735123
2.63700,569.7994844
2.63750,538.059266
2.63800,484.6502446
2.63850,408.9620315
2.63900,318.014098
2.63950,226.7609701
2.64000,137.3390087
2.64050,33.26771565
2.64100,-86.97888099
2.64150,-198.0696454
2.64200,-276.5046082
2.64250,-335.1019344
2.64300,-396.140816
2.64350,-448.9394485
2.64400,-459.9264472
2.64450,-416.5888413
2.64500,-338.4590729
2.64550,-246.9007506
2.64600,-145.5762073
2.64650,-40.28413661
2.64700,53.71574096
2.64750,127.2675932
2.64800,185.5597251
2.64850,233.7804415
2.64900,267.0466319
2.64950,278.0336306
2.65000,264.9102711
2.65050,224.6246093
2.65100,152.9039235
2.65150,59.81962912
2.65200,-28.68674911
2.65250,-91.5567971
2.65300,-132.7580421
2.65350,-174.8748704
2.65400,-229.5046694
2.65450,-282.6084963
2.65500,-311.9071595
2.65550,-314.6539091
2.65600,-313.4331315
2.65650,-330.2188239
2.65700,-357.6863206
2.65750,-366.231764
2.65800,-334.79674
2.65850,-269.1799424
2.65900,-186.1670635
2.65950,-91.5567971
2.66000,17.39760645
2.66050,136.118231
2.66100,245.6830234
2.66150,324.728375
2.66200,365.92962
2.66250,379.358174
2.66300,382.4101181
2.66350,386.072451
2.66400,391.2607559
2.66450,396.7542552
2.66500,400.7217825
2.66550,394.3127
2.66600,364.7088424
2.66650,307.9426826
2.66700,236.8323856
2.66750,164.501311
2.66800,91.55984752
2.66850,13.73527356
2.66900,-64.39449482
2.66950,-135.5047918
2.67000,-196.2384789
2.67050,-239.8812792
2.67100,-256.6669717
2.67150,-249.6475003
2.67200,-239.5760848
2.67250,-235.9137519
2.67300,-219.1280595
2.67350,-167.2450102
2.67400,-88.19965862
2.67450,-7.017946168
2.67500,66.53390609
2.67550,131.8455093
2.67600,166.3324774
2.67650,147.7156185
2.67700,97.05334686
2.67750,69.58585017
2.67800,91.25465311
2.67850,132.4558982
2.67900,161.1441725
2.67950,182.507781
2.68000,213.6376106
2.68050,244.1570514
2.68100,254.5336612
2.68150,251.1765227
2.68200,254.5336612
2.68250,256.3648277
2.68300,223.7090261
2.68350,148.0208129
2.68400,58.29365708
2.68450,-12.81663991
2.68500,-63.17371718
2.68550,-104.6801566
2.68600,-141.60868
2.68650,-173.3488984
2.68700,-206.3098944
2.68750,-249.0371115
2.68800,-300.309772
2.68850,-350.9720436
2.68900,-386.3745949
2.68950,-389.1213446
2.69000,-349.4460716
2.69050,-283.5240795
2.69100,-222.1800036
2.69150,-176.095648
2.69200,-127.5697372
2.69250,-64.08930041
2.69300,-5.491974129
2.69350,21.97552256
2.69400,24.11188342
2.69450,22.89110579
2.69500,20.14435612
2.69550,-7.017946168
2.69600,-68.05682771
2.69650,-140.3879023
2.69700,-196.8488678
2.69750,-228.2838918
2.69800,-238.3553072
2.69850,-229.5046694
2.69900,-207.2254776
2.69950,-183.7255082
2.70000,-162.3618997
2.70050,-130.0112925
2.70100,-73.24513264
2.70150,6.105413363
2.70200,94.00140278
2.70250,177.3194761
2.70300,250.5661339
2.70350,310.6894322
2.70400,357.0789822
2.70450,391.8711447
2.70500,414.4555309
2.70550,418.7282526
2.70600,398.5854217
2.70650,359.5205375
2.70700,312.8257931
2.70750,258.8063829
2.70800,185.5597251
2.70850,85.45595937
2.70900,-29.29713793
2.70950,-135.1995974
2.71000,-212.718977
2.71050,-255.7513884
2.71100,-262.7708598
2.71150,-235.3033631
2.71200,-180.6735641
2.71250,-113.5307945
2.71300,-46.08283035
2.71350,18.61838408
2.71400,83.31959851
2.71450,147.7156185
2.71500,206.6181392
2.71550,251.4817172
2.71600,270.7089648
2.71650,250.5661339
2.71700,192.2740021
2.71750,120.5533163
2.71800,65.31312846
2.71850,29.60538276
2.71900,-11.90105669
2.71950,-80.26460402
2.72000,-162.0567053
2.72050,-228.2838918
2.72100,-267.0435815
2.72150,-287.7968013
2.72200,-298.4786055
2.72250,-293.595495
2.72300,-270.0955256
2.72350,-233.7773911
2.72400,-187.9982299
2.72450,-126.9593484
2.72500,-52.79710732
2.72550,14.04046796
2.72600,57.98846267
2.72650,89.42348667
2.72700,133.6766758
2.72750,189.8324468
2.72800,227.6765534
2.72850,220.3518876
2.72900,181.2870034
2.72950,154.1247011
2.73000,175.793504
2.73050,248.1245787
2.73100,339.0725122
2.73150,412.0139756
2.73200,453.8256095
2.73250,480.9879117
2.73300,510.2865749
2.73350,528.2930449
2.73400,503.2671035
2.73450,426.0529184
2.73500,322.5920141
2.73550,219.7414988
2.73600,114.7546225
2.73650,-6.102362945
2.73700,-137.0307638
2.73750,-251.1734723
2.73800,-336.3227121
2.73850,-406.5174258
2.73900,-474.8809732
2.73950,-530.121161
2.74000,-550.5691863
2.74050,-527.3744113
2.74100,-471.8290291
2.74150,-404.9914538
2.74200,-344.5629611
2.74250,-295.7318559
2.74300,-253.6150276
2.74350,-211.4981993
2.74400,-177.6216201
2.74450,-168.4657878
2.74500,-189.2190076
2.74550,-218.5176707
2.74600,-228.8942806
2.74650,-214.8553378
2.74700,-196.5436734
2.74750,-196.8488678
2.74800,-220.6540316
2.74850,-255.7513884
2.74900,-280.1669411
2.74950,-275.2838305
2.75000,-237.7449184
2.75050,-186.1670635
2.75100,-143.7450408
2.75150,-117.8035162
2.75200,-98.27107407
2.75250,-79.34902079
2.75300,-68.66721652
2.75350,-72.93993823
2.75400,-85.14771454
2.75450,-94.30354677
2.75500,-94.91393559
2.75550,-85.75810335
2.75600,-66.22566126
2.75650,-42.42049746
2.75700,-23.49844418
2.75750,-4.576390906
2.75800,25.02746664
2.75850,62.8715732
2.75900,89.11829226
2.75950,103.157235
2.76000,127.877982
2.76050,164.501311
2.76100,168.7740327
2.76150,105.5987903
2.76200,8.546968625
2.76250,-51.27113528
2.76300,-51.57632969
2.76350,-28.68674911
2.76400,-11.29066788
2.76450,13.43007915
2.76500,55.85210182
2.76550,91.55984752
2.76600,99.80009653
2.76650,98.8845133
2.76700,117.5013722
2.76750,150.4623682
2.76800,173.3519488
2.76850,182.2025866
2.76900,191.6636132
2.76950,201.7350287
2.77000,193.7999741
2.77050,159.6182004
2.77100,112.0078728
2.77150,65.31312846
2.77200,24.11188342
2.77250,-10.37508465
2.77300,-35.40102608
2.77350,-52.49191292
2.77400,-69.58279975
2.77450,-88.81004743
2.77500,-103.7645734
2.77550,-107.7321007
2.77600,-97.05029644
2.77650,-70.19318856
2.77700,-29.60233234
2.77750,18.00799526
2.77800,68.36507253
2.77850,123.3000659
2.77900,184.0337531
2.77950,242.6310793
2.78000,283.8323244
2.78050,302.4491832
2.78100,307.3322938
2.78150,306.7219049
2.78200,292.0725734
2.78250,246.5986066
2.78300,164.501311
2.78350,67.44948931
2.78400,-6.102362945
2.78450,-31.43349878
2.78500,-8.849112614
2.78550,43.3391311
2.78600,110.1767064
2.78650,180.3714202
2.78700,240.4947185
2.78750,279.8647971
2.78800,297.5660727
2.78850,295.1245175
2.78900,267.9622152
2.78950,216.0791659
2.79000,160.2285893
2.79050,125.7416212
2.79100,111.397484
2.79150,92.17023634
2.79200,54.9365186
2.79250,11.29371829
2.79300,-29.90752675
2.79350,-76.29707672
2.79400,-126.0437652
2.79450,-160.5307332
2.79500,-174.569676
2.79550,-192.5761461
2.79600,-229.8098638
2.79650,-260.0241102
2.79700,-247.205945
2.79750,-194.4073125
2.79800,-135.1995974
2.79850,-86.67368658
2.79900,-38.45297016
2.79950,15.26124559
2.80000,62.56637879
2.80050,92.17023634
2.80100,104.3780126
2.80150,95.52737482
2.80200,56.15729623
2.80250,-8.238723799
2.80300,-75.6866879
2.80350,-133.0632365
2.80400,-191.050174
2.80450,-260.3293046
2.80500,-329.6084351
2.80550,-378.4395403
2.80600,-401.9395097
2.80650,-408.3485923
2.80700,-398.2771768
2.80750,-363.7902088
2.80800,-303.9721049
2.80850,-228.8942806
2.80900,-146.4917905
2.80950,-57.98541225
2.81000,27.4690219
2.81050,88.81309785
2.81100,108.3455399
2.81150,91.25465311
2.81200,54.9365186
2.81250,12.20930152
2.81300,-31.43349878
2.81350,-72.32954942
2.81400,-106.2061287
2.81450,-139.1671247
2.81500,-176.7060368
2.81550,-211.1930049
2.81600,-226.4527253
2.81650,-221.8748092
2.81700,-211.1930049
2.81750,-199.5956174
2.81800,-175.1800648
2.81850,-130.3164869
2.81900,-80.26460402
2.81950,-46.38802476
2.82000,-29.29713793
2.82050,-14.34261195
2.82100,4.884635733
2.82150,24.72227223
2.82200,45.47549196
2.82250,72.94298865
2.82300,103.4624294
2.82350,123.6052603
2.82400,133.3714814
2.82450,152.2935347
2.82500,195.0207517
2.82550,256.3648277
2.82600,322.2868197
2.82650,389.124395
2.82700,455.3515815
2.82750,511.8125469
2.82800,546.9099038
2.82850,560.9488466
2.82900,563.6955962
2.82950,562.1696242
2.83000,553.3189864
2.83050,532.8709611
2.83100,505.09827
2.83150,479.4619397
2.83200,461.7606641
2.83250,443.754194
2.83300,406.2152819
2.83350,339.0725122
2.83400,263.9946879
2.83450,220.657082
2.83500,223.7090261
2.83550,242.3258849
2.83600,228.897331
2.83650,165.4168942
2.83700,77.21571036
2.83750,2.443080471
2.83800,-45.47244154
2.83850,-91.86199151
2.83900,-175.1800648
2.83950,-309.1604098
2.84000,-463.5887801
2.84050,-585.3613488
2.84100,-643.3482862
2.84150,-643.958675
2.84200,-605.5041797
2.84250,-534.0886883
2.84300,-433.3745337
2.84350,-325.3357134
2.84400,-238.6605016
2.84450,-183.7255082
2.84500,-146.1865961
2.84550,-115.3619609
2.84600,-97.05029644
2.84650,-98.57626848
2.84700,-111.699628
2.84750,-122.0762379
2.84800,-128.4853204
2.84850,-143.4398464
2.84900,-166.9398158
2.84950,-178.8423977
2.85000,-156.2580115
2.85050,-94.60874118
2.85100,0.3067196171
2.85150,126.35201
2.85200,274.3712977
2.85250,419.033447
2.85300,530.7346002
2.85350,604.2864525
2.85400,656.4746962
2.85450,689.4356922
2.85500,680.5850544
2.85550,614.6630623
2.85600,503.5722979
2.85650,367.4555921
2.85700,203.8713896
2.85750,4.579441325
2.85800,-209.0566441
2.85850,-392.4784831
2.85900,-518.2185791
2.85950,-591.1600425
2.86000,-621.9846777
2.86050,-606.4197629
2.86100,-545.0756869
2.86150,-459.9264472
2.86200,-374.7772074
2.86250,-292.3747174
2.86300,-208.7514497
2.86350,-141.3034856
2.86400,-117.1931273
2.86450,-136.420375
2.86500,-169.3813711
2.86550,-196.5436734
2.86600,-231.0306414
2.86650,-289.9331621
2.86700,-362.5694311
2.86750,-420.2511742
2.86800,-445.8875044
2.86850,-440.6991995
2.86900,-410.7901476
2.86950,-364.4005976
2.87000,-313.4331315
2.87050,-266.1279983
2.87100,-222.7903924
2.87150,-180.0631753
2.87200,-135.1995974
2.87250,-85.45290895
2.87300,-29.90752675
2.87350,25.63785546
2.87400,77.82609917
2.87450,132.4558982
2.87500,192.5791965
2.87550,233.7804415
2.87600,224.3194149
2.87650,181.2870034
2.87700,170.6051991
2.87750,232.8648583
2.87800,330.8322632
2.87850,404.6893098
2.87900,451.994443
2.87950,516.0852686
2.88000,610.695535
2.88050,701.3382741
2.88100,755.0524899
2.88150,773.9745431
2.88200,767.2602662
2.88250,729.721354
2.88300,659.5266403
2.88350,568.5787068
2.88400,463.2866361
2.88450,329.6114855
2.88500,159.0078116
2.88550,-28.99194352
2.88600,-206.6150888
2.88650,-363.17982
2.88700,-495.9393873
2.88750,-591.4652369
2.88800,-636.6340093
2.88850,-643.0430918
2.88900,-640.906731
2.88950,-645.4846471
2.89000,-643.6534806
2.89050,-614.0496231
2.89100,-553.315936
2.89150,-473.3550011
2.89200,-390.3421222
2.89250,-312.5175483
2.89300,-241.7124457
2.89350,-170.2969543
2.89400,-86.06329776
2.89450,15.87163441
2.89500,126.9623988
2.89550,226.4557757
2.89600,296.9556839
2.89650,332.6634296
2.89700,339.682901
2.89750,332.968624
2.89800,325.9491526
2.89850,328.0855135
2.89900,340.9036786
2.89950,361.0465095
2.90000,380.5789516
2.90050,389.124395
2.90100,376.0010355
2.90150,336.0205681
2.90200,271.9297425
2.90250,188.9168636
2.90300,90.9494587
2.90350,-20.1413057
2.90400,-142.2190688
2.90450,-271.3163032
2.90500,-399.8031489
2.90550,-520.6601343
2.90600,-621.3742889
2.90650,-684.8547257
2.90700,-694.0105579
2.90750,-647.9262023
2.90800,-565.2185179
2.90850,-465.1147521
2.90900,-348.5304884
2.90950,-204.1735335
2.91000,-38.14777575
2.91050,116.8909834
2.91100,229.2025254
2.91150,291.1569902
2.91200,318.9296813
2.91250,328.3907079
2.91300,322.2868197
2.91350,298.1764615
2.91400,255.14405
2.91450,194.4103629
2.91500,118.111761
2.91550,30.21577157
2.91600,-60.42696752
2.91650,-142.8294576
2.91700,-206.0047
2.91750,-244.4591954
2.91800,-258.8033325
2.91850,-251.7838611
2.91900,-223.7059756
2.91950,-181.5891474
2.92000,-138.5567359
2.92050,-104.3749622
2.92100,-74.77110468
2.92150,-36.31660931
2.92200,14.04046796
2.92250,62.26118438
2.92300,86.9819314
2.92350,80.57284884
2.92400,58.29365708
2.92450,47.3066584
2.92500,60.12482353
2.92550,79.35207121
2.92600,73.24818306
2.92650,33.87810446
2.92700,-5.186779721
2.92750,0.3067196171
2.92800,67.44948931
2.92850,168.1636439
2.92900,256.6700221
2.92950,307.6374882
2.93000,331.1374576
2.93050,357.9945654
