type,name,time_units,begin_time,frequency,count,units
signal,"Noraxon Ultium-RT LAT. TRICEPS","s",0.00000,2000,57280,"uV"

time,value
0.00000,3.074517177
0.00050,2.769322769
0.00100,2.158933954
0.00150,2.464128361
0.00200,3.074517177
0.00250,2.464128361
0.00300,1.24335073
0.00350,0.9381563227
0.00400,1.548545138
0.00450,1.24335073
0.00500,0.02257309962
0.00550,0.02257309962
0.00600,1.24335073
0.00650,2.158933954
0.00700,2.464128361
0.00750,2.158933954
0.00800,2.769322769
0.00850,3.074517177
0.00900,2.158933954
0.00950,1.24335073
0.01000,1.24335073
0.01050,1.548545138
0.01100,0.9381563227
0.01150,0.02257309962
0.01200,-0.5878157158
0.01250,-0.5878157158
0.01300,-0.8930101235
0.01350,-0.8930101235
0.01400,0.02257309962
0.01450,0.9381563227
0.01500,1.24335073
0.01550,0.632961915
0.01600,0.3277675073
0.01650,0.632961915
0.01700,0.9381563227
0.01750,1.24335073
0.01800,1.853739546
0.01850,3.074517177
0.01900,3.074517177
0.01950,1.548545138
0.02000,0.02257309962
0.02050,-0.5878157158
0.02100,-0.5878157158
0.02150,-0.5878157158
0.02200,-0.5878157158
0.02250,-1.503398939
0.02300,-2.418982162
0.02350,-3.334565385
0.02400,-3.334565385
0.02450,-2.72417657
0.02500,-2.72417657
0.02550,-2.72417657
0.02600,-2.418982162
0.02650,-1.198204531
0.02700,-0.8930101235
0.02750,-1.503398939
0.02800,-2.113787754
0.02850,-1.503398939
0.02900,-0.8930101235
0.02950,-0.8930101235
0.03000,-0.5878157158
0.03050,0.3277675073
0.03100,1.24335073
0.03150,1.548545138
0.03200,1.24335073
0.03250,1.853739546
0.03300,2.158933954
0.03350,1.548545138
0.03400,0.3277675073
0.03450,0.3277675073
0.03500,1.24335073
0.03550,1.853739546
0.03600,0.9381563227
0.03650,0.02257309962
0.03700,0.02257309962
0.03750,1.24335073
0.03800,2.464128361
0.03850,2.769322769
0.03900,2.464128361
0.03950,2.158933954
0.04000,2.158933954
0.04050,2.158933954
0.04100,1.853739546
0.04150,1.548545138
0.04200,1.24335073
0.04250,0.9381563227
0.04300,0.9381563227
0.04350,1.24335073
0.04400,1.24335073
0.04450,0.9381563227
0.04500,0.632961915
0.04550,1.24335073
0.04600,1.853739546
0.04650,1.853739546
0.04700,0.632961915
0.04750,0.02257309962
0.04800,0.632961915
0.04850,1.24335073
0.04900,0.632961915
0.04950,0.02257309962
0.05000,0.02257309962
0.05050,0.632961915
0.05100,0.02257309962
0.05150,-0.5878157158
0.05200,-1.198204531
0.05250,-0.5878157158
0.05300,-0.2826213081
0.05350,-0.5878157158
0.05400,-0.5878157158
0.05450,0.02257309962
0.05500,0.9381563227
0.05550,0.632961915
0.05600,0.02257309962
0.05650,-0.5878157158
0.05700,-0.5878157158
0.05750,-0.2826213081
0.05800,0.02257309962
0.05850,0.02257309962
0.05900,0.3277675073
0.05950,0.632961915
0.06000,0.9381563227
0.06050,0.9381563227
0.06100,0.02257309962
0.06150,-0.5878157158
0.06200,-0.5878157158
0.06250,0.02257309962
0.06300,0.3277675073
0.06350,-0.2826213081
0.06400,-1.198204531
0.06450,-1.503398939
0.06500,-1.808593347
0.06550,-2.113787754
0.06600,-2.418982162
0.06650,-1.808593347
0.06700,0.02257309962
0.06750,1.24335073
0.06800,1.548545138
0.06850,1.24335073
0.06900,0.02257309962
0.06950,-0.5878157158
0.07000,-0.8930101235
0.07050,-0.5878157158
0.07100,-0.2826213081
0.07150,-0.5878157158
0.07200,-0.5878157158
0.07250,0.3277675073
0.07300,1.853739546
0.07350,1.548545138
0.07400,0.632961915
0.07450,0.3277675073
0.07500,1.24335073
0.07550,1.853739546
0.07600,1.853739546
0.07650,2.158933954
0.07700,3.379711584
0.07750,3.9901004
0.07800,2.769322769
0.07850,1.853739546
0.07900,2.769322769
0.07950,3.9901004
0.08000,3.684905992
0.08050,2.464128361
0.08100,2.769322769
0.08150,4.600489215
0.08200,5.210878031
0.08250,3.684905992
0.08300,1.853739546
0.08350,1.853739546
0.08400,3.074517177
0.08450,3.379711584
0.08500,2.464128361
0.08550,1.24335073
0.08600,0.3277675073
0.08650,-0.5878157158
0.08700,-1.503398939
0.08750,-2.418982162
0.08800,-2.418982162
0.08850,-1.198204531
0.08900,-0.5878157158
0.08950,-1.503398939
0.09000,-3.334565385
0.09050,-4.555343016
0.09100,-4.250148608
0.09150,-3.029370977
0.09200,-3.029370977
0.09250,-4.250148608
0.09300,-5.165731831
0.09350,-5.165731831
0.09400,-3.9449542
0.09450,-2.113787754
0.09500,-0.5878157158
0.09550,0.02257309962
0.09600,-0.8930101235
0.09650,-2.113787754
0.09700,-2.72417657
0.09750,-2.113787754
0.09800,-1.503398939
0.09850,-0.8930101235
0.09900,-0.5878157158
0.09950,-0.2826213081
0.10000,-0.5878157158
0.10050,-0.8930101235
0.10100,-1.198204531
0.10150,-0.5878157158
0.10200,-0.2826213081
0.10250,0.02257309962
0.10300,0.02257309962
0.10350,0.02257309962
0.10400,0.3277675073
0.10450,1.24335073
0.10500,1.853739546
0.10550,1.548545138
0.10600,0.3277675073
0.10650,-0.5878157158
0.10700,-0.5878157158
0.10750,-0.2826213081
0.10800,-0.2826213081
0.10850,-0.5878157158
0.10900,-0.2826213081
0.10950,0.9381563227
0.11000,2.464128361
0.11050,3.379711584
0.11100,2.769322769
0.11150,1.548545138
0.11200,0.3277675073
0.11250,0.02257309962
0.11300,0.9381563227
0.11350,1.548545138
0.11400,0.9381563227
0.11450,0.632961915
0.11500,1.548545138
0.11550,2.158933954
0.11600,2.158933954
0.11650,1.24335073
0.11700,0.9381563227
0.11750,1.24335073
0.11800,1.24335073
0.11850,0.632961915
0.11900,0.3277675073
0.11950,0.3277675073
0.12000,0.632961915
0.12050,1.24335073
0.12100,2.769322769
0.12150,3.9901004
0.12200,3.379711584
0.12250,2.464128361
0.12300,2.158933954
0.12350,2.769322769
0.12400,2.158933954
0.12450,0.632961915
0.12500,1.24335073
0.12550,3.074517177
0.12600,3.9901004
0.12650,2.769322769
0.12700,1.24335073
0.12750,1.24335073
0.12800,1.548545138
0.12850,0.632961915
0.12900,-0.2826213081
0.12950,-0.2826213081
0.13000,0.02257309962
0.13050,0.02257309962
0.13100,-0.2826213081
0.13150,0.02257309962
0.13200,0.632961915
0.13250,0.3277675073
0.13300,-0.5878157158
0.13350,-1.503398939
0.13400,-1.808593347
0.13450,-2.418982162
0.13500,-3.029370977
0.13550,-3.334565385
0.13600,-2.72417657
0.13650,-1.808593347
0.13700,-0.8930101235
0.13750,-0.2826213081
0.13800,0.02257309962
0.13850,0.02257309962
0.13900,0.3277675073
0.13950,0.3277675073
0.14000,0.3277675073
0.14050,0.632961915
0.14100,1.548545138
0.14150,2.158933954
0.14200,1.24335073
0.14250,-0.5878157158
0.14300,-2.418982162
0.14350,-2.113787754
0.14400,-0.5878157158
0.14450,-0.2826213081
0.14500,-1.503398939
0.14550,-3.334565385
0.14600,-3.334565385
0.14650,-2.113787754
0.14700,-0.5878157158
0.14750,0.02257309962
0.14800,-0.5878157158
0.14850,-0.8930101235
0.14900,-0.2826213081
0.14950,0.02257309962
0.15000,0.3277675073
0.15050,0.3277675073
0.15100,0.632961915
0.15150,1.548545138
0.15200,2.158933954
0.15250,1.548545138
0.15300,0.9381563227
0.15350,1.24335073
0.15400,1.853739546
0.15450,1.548545138
0.15500,0.3277675073
0.15550,0.02257309962
0.15600,0.632961915
0.15650,1.853739546
0.15700,3.074517177
0.15750,3.9901004
0.15800,4.295294807
0.15850,4.295294807
0.15900,3.684905992
0.15950,2.769322769
0.16000,1.548545138
0.16050,0.9381563227
0.16100,1.24335073
0.16150,2.464128361
0.16200,2.769322769
0.16250,2.158933954
0.16300,1.548545138
0.16350,2.158933954
0.16400,3.074517177
0.16450,2.158933954
0.16500,0.02257309962
0.16550,-0.8930101235
0.16600,0.02257309962
0.16650,0.3277675073
0.16700,-0.8930101235
0.16750,-3.029370977
0.16800,-3.639759793
0.16850,-3.639759793
0.16900,-3.639759793
0.16950,-3.9449542
0.17000,-4.250148608
0.17050,-4.860537424
0.17100,-5.470926239
0.17150,-5.776120647
0.17200,-4.860537424
0.17250,-3.9449542
0.17300,-4.250148608
0.17350,-5.470926239
0.17400,-5.776120647
0.17450,-4.860537424
0.17500,-3.639759793
0.17550,-3.029370977
0.17600,-3.029370977
0.17650,-3.029370977
0.17700,-3.9449542
0.17750,-5.165731831
0.17800,-6.386509462
0.17850,-6.69170387
0.17900,-5.165731831
0.17950,-3.029370977
0.18000,-1.503398939
0.18050,-1.503398939
0.18100,-1.808593347
0.18150,-2.113787754
0.18200,-2.418982162
0.18250,-3.029370977
0.18300,-3.9449542
0.18350,-4.555343016
0.18400,-4.250148608
0.18450,-3.029370977
0.18500,-1.808593347
0.18550,-0.8930101235
0.18600,-1.808593347
0.18650,-3.334565385
0.18700,-3.9449542
0.18750,-3.029370977
0.18800,-2.418982162
0.18850,-2.418982162
0.18900,-3.029370977
0.18950,-3.029370977
0.19000,-2.72417657
0.19050,-3.639759793
0.19100,-5.165731831
0.19150,-6.386509462
0.19200,-6.69170387
0.19250,-6.081315054
0.19300,-4.860537424
0.19350,-3.9449542
0.19400,-4.250148608
0.19450,-4.250148608
0.19500,-3.029370977
0.19550,-1.503398939
0.19600,-0.8930101235
0.19650,-1.808593347
0.19700,-1.808593347
0.19750,0.02257309962
0.19800,1.853739546
0.19850,1.548545138
0.19900,0.02257309962
0.19950,-0.8930101235
0.20000,-0.2826213081
0.20050,0.3277675073
0.20100,0.9381563227
0.20150,0.632961915
0.20200,0.02257309962
0.20250,-0.5878157158
0.20300,-1.198204531
0.20350,-0.5878157158
0.20400,0.02257309962
0.20450,0.3277675073
0.20500,0.02257309962
0.20550,0.02257309962
0.20600,0.02257309962
0.20650,-0.2826213081
0.20700,-0.8930101235
0.20750,-0.5878157158
0.20800,0.632961915
0.20850,1.853739546
0.20900,1.853739546
0.20950,1.24335073
0.21000,1.548545138
0.21050,3.379711584
0.21100,4.905683623
0.21150,4.905683623
0.21200,3.379711584
0.21250,2.158933954
0.21300,2.158933954
0.21350,2.464128361
0.21400,1.853739546
0.21450,1.24335073
0.21500,0.9381563227
0.21550,1.24335073
0.21600,0.9381563227
0.21650,0.3277675073
0.21700,0.02257309962
0.21750,0.02257309962
0.21800,0.02257309962
0.21850,-0.5878157158
0.21900,-0.8930101235
0.21950,-0.5878157158
0.22000,0.02257309962
0.22050,0.02257309962
0.22100,0.02257309962
0.22150,-0.2826213081
0.22200,0.02257309962
0.22250,0.02257309962
0.22300,-1.198204531
0.22350,-2.418982162
0.22400,-1.808593347
0.22450,0.3277675073
0.22500,2.158933954
0.22550,1.548545138
0.22600,0.3277675073
0.22650,0.3277675073
0.22700,0.632961915
0.22750,0.632961915
0.22800,0.02257309962
0.22850,-0.8930101235
0.22900,-1.198204531
0.22950,-1.503398939
0.23000,-1.503398939
0.23050,0.02257309962
0.23100,1.24335073
0.23150,1.548545138
0.23200,0.632961915
0.23250,0.632961915
0.23300,1.548545138
0.23350,2.464128361
0.23400,2.769322769
0.23450,3.074517177
0.23500,3.684905992
0.23550,3.379711584
0.23600,2.464128361
0.23650,2.769322769
0.23700,4.295294807
0.23750,5.210878031
0.23800,5.210878031
0.23850,5.516072438
0.23900,6.431655661
0.23950,6.126461254
0.24000,3.684905992
0.24050,1.548545138
0.24100,1.853739546
0.24150,2.769322769
0.24200,2.158933954
0.24250,0.9381563227
0.24300,1.548545138
0.24350,3.684905992
0.24400,4.295294807
0.24450,3.684905992
0.24500,2.464128361
0.24550,2.464128361
0.24600,1.548545138
0.24650,0.02257309962
0.24700,-1.808593347
0.24750,-1.808593347
0.24800,-1.198204531
0.24850,-1.198204531
0.24900,-1.198204531
0.24950,-0.5878157158
0.25000,0.632961915
0.25050,1.548545138
0.25100,0.632961915
0.25150,-0.5878157158
0.25200,-1.198204531
0.25250,-0.5878157158
0.25300,0.02257309962
0.25350,0.632961915
0.25400,0.3277675073
0.25450,-0.5878157158
0.25500,-2.113787754
0.25550,-2.418982162
0.25600,-1.808593347
0.25650,-2.113787754
0.25700,-3.9449542
0.25750,-5.776120647
0.25800,-5.165731831
0.25850,-3.029370977
0.25900,-1.808593347
0.25950,-3.029370977
0.26000,-4.250148608
0.26050,-4.250148608
0.26100,-3.639759793
0.26150,-3.029370977
0.26200,-2.418982162
0.26250,-1.503398939
0.26300,-0.5878157158
0.26350,0.02257309962
0.26400,1.24335073
0.26450,3.074517177
0.26500,4.600489215
0.26550,4.905683623
0.26600,4.295294807
0.26650,3.9901004
0.26700,4.600489215
0.26750,4.905683623
0.26800,4.295294807
0.26850,3.074517177
0.26900,1.853739546
0.26950,1.853739546
0.27000,2.464128361
0.27050,2.769322769
0.27100,2.158933954
0.27150,1.548545138
0.27200,2.769322769
0.27250,4.295294807
0.27300,4.600489215
0.27350,3.379711584
0.27400,2.464128361
0.27450,2.464128361
0.27500,2.769322769
0.27550,2.158933954
0.27600,1.548545138
0.27650,1.853739546
0.27700,2.158933954
0.27750,1.853739546
0.27800,0.632961915
0.27850,0.3277675073
0.27900,0.02257309962
0.27950,-0.2826213081
0.28000,-1.198204531
0.28050,-2.113787754
0.28100,-1.808593347
0.28150,-0.5878157158
0.28200,0.3277675073
0.28250,0.632961915
0.28300,0.02257309962
0.28350,-0.5878157158
0.28400,-0.5878157158
0.28450,-0.8930101235
0.28500,-2.418982162
0.28550,-3.334565385
0.28600,-2.72417657
0.28650,-0.8930101235
0.28700,-0.5878157158
0.28750,-1.808593347
0.28800,-3.639759793
0.28850,-5.470926239
0.28900,-7.302092685
0.28950,-7.607287093
0.29000,-6.996898278
0.29050,-5.776120647
0.29100,-5.470926239
0.29150,-5.470926239
0.29200,-4.555343016
0.29250,-2.72417657
0.29300,-0.8930101235
0.29350,0.02257309962
0.29400,0.9381563227
0.29450,1.24335073
0.29500,0.9381563227
0.29550,0.3277675073
0.29600,0.02257309962
0.29650,0.02257309962
0.29700,-0.2826213081
0.29750,-0.5878157158
0.29800,0.02257309962
0.29850,0.02257309962
0.29900,-0.8930101235
0.29950,-1.808593347
0.30000,-1.198204531
0.30050,0.3277675073
0.30100,0.9381563227
0.30150,0.02257309962
0.30200,-0.2826213081
0.30250,0.02257309962
0.30300,0.9381563227
0.30350,0.9381563227
0.30400,0.3277675073
0.30450,0.02257309962
0.30500,0.9381563227
0.30550,2.769322769
0.30600,5.210878031
0.30650,6.431655661
0.30700,6.126461254
0.30750,5.210878031
0.30800,5.210878031
0.30850,5.210878031
0.30900,4.905683623
0.30950,4.600489215
0.31000,5.210878031
0.31050,5.821266846
0.31100,5.516072438
0.31150,4.600489215
0.31200,4.600489215
0.31250,4.600489215
0.31300,3.9901004
0.31350,3.684905992
0.31400,4.600489215
0.31450,6.126461254
0.31500,6.736850069
0.31550,6.431655661
0.31600,5.516072438
0.31650,4.600489215
0.31700,3.9901004
0.31750,3.9901004
0.31800,4.600489215
0.31850,5.210878031
0.31900,4.295294807
0.31950,2.464128361
0.32000,1.548545138
0.32050,1.853739546
0.32100,2.464128361
0.32150,2.769322769
0.32200,3.074517177
0.32250,2.769322769
0.32300,1.853739546
0.32350,0.9381563227
0.32400,0.632961915
0.32450,0.632961915
0.32500,0.02257309962
0.32550,0.02257309962
0.32600,0.3277675073
0.32650,0.9381563227
0.32700,1.24335073
0.32750,1.548545138
0.32800,2.464128361
0.32850,3.379711584
0.32900,3.074517177
0.32950,2.464128361
0.33000,2.769322769
0.33050,3.379711584
0.33100,3.074517177
0.33150,2.158933954
0.33200,1.24335073
0.33250,0.9381563227
0.33300,0.632961915
0.33350,0.3277675073
0.33400,0.02257309962
0.33450,0.02257309962
0.33500,0.02257309962
0.33550,0.02257309962
0.33600,0.02257309962
0.33650,0.3277675073
0.33700,0.02257309962
0.33750,0.02257309962
0.33800,0.02257309962
0.33850,0.9381563227
0.33900,0.9381563227
0.33950,0.632961915
0.34000,0.02257309962
0.34050,0.02257309962
0.34100,-1.198204531
0.34150,-2.418982162
0.34200,-2.418982162
0.34250,-1.503398939
0.34300,-0.5878157158
0.34350,0.02257309962
0.34400,0.02257309962
0.34450,0.3277675073
0.34500,0.02257309962
0.34550,-1.198204531
0.34600,-2.418982162
0.34650,-3.029370977
0.34700,-3.029370977
0.34750,-2.113787754
0.34800,-0.8930101235
0.34850,-0.2826213081
0.34900,-2.113787754
0.34950,-4.555343016
0.35000,-5.776120647
0.35050,-4.555343016
0.35100,-3.334565385
0.35150,-4.250148608
0.35200,-5.165731831
0.35250,-4.860537424
0.35300,-3.029370977
0.35350,-2.418982162
0.35400,-2.113787754
0.35450,-1.808593347
0.35500,-0.8930101235
0.35550,0.02257309962
0.35600,0.02257309962
0.35650,-0.2826213081
0.35700,-0.2826213081
0.35750,-0.2826213081
0.35800,-0.2826213081
0.35850,0.02257309962
0.35900,0.3277675073
0.35950,0.02257309962
0.36000,-0.5878157158
0.36050,0.02257309962
0.36100,1.24335073
0.36150,2.158933954
0.36200,2.464128361
0.36250,2.158933954
0.36300,1.853739546
0.36350,1.24335073
0.36400,0.02257309962
0.36450,-1.503398939
0.36500,-2.72417657
0.36550,-3.029370977
0.36600,-2.113787754
0.36650,-1.198204531
0.36700,-1.198204531
0.36750,-1.198204531
0.36800,-0.5878157158
0.36850,0.3277675073
0.36900,0.632961915
0.36950,0.02257309962
0.37000,-0.5878157158
0.37050,-0.8930101235
0.37100,-1.503398939
0.37150,-3.029370977
0.37200,-4.555343016
0.37250,-4.860537424
0.37300,-4.555343016
0.37350,-4.860537424
0.37400,-4.860537424
0.37450,-4.555343016
0.37500,-4.860537424
0.37550,-6.386509462
0.37600,-7.607287093
0.37650,-7.302092685
0.37700,-6.081315054
0.37750,-5.470926239
0.37800,-5.165731831
0.37850,-4.555343016
0.37900,-4.250148608
0.37950,-4.860537424
0.38000,-5.776120647
0.38050,-4.250148608
0.38100,-1.503398939
0.38150,-0.5878157158
0.38200,-2.113787754
0.38250,-3.334565385
0.38300,-3.334565385
0.38350,-3.029370977
0.38400,-3.639759793
0.38450,-3.639759793
0.38500,-2.72417657
0.38550,-2.113787754
0.38600,-2.72417657
0.38650,-2.72417657
0.38700,-1.808593347
0.38750,-0.8930101235
0.38800,-0.2826213081
0.38850,0.02257309962
0.38900,0.02257309962
0.38950,0.9381563227
0.39000,1.548545138
0.39050,1.548545138
0.39100,1.548545138
0.39150,2.158933954
0.39200,3.379711584
0.39250,4.600489215
0.39300,4.905683623
0.39350,4.905683623
0.39400,5.821266846
0.39450,6.736850069
0.39500,7.042044477
0.39550,5.821266846
0.39600,4.295294807
0.39650,3.379711584
0.39700,2.464128361
0.39750,1.548545138
0.39800,2.158933954
0.39850,3.379711584
0.39900,3.074517177
0.39950,1.24335073
0.40000,0.3277675073
0.40050,1.853739546
0.40100,3.379711584
0.40150,2.158933954
0.40200,0.02257309962
0.40250,0.02257309962
0.40300,1.24335073
0.40350,1.548545138
0.40400,0.02257309962
0.40450,0.02257309962
0.40500,1.24335073
0.40550,2.158933954
0.40600,0.9381563227
0.40650,-0.2826213081
0.40700,-0.8930101235
0.40750,-1.198204531
0.40800,-2.113787754
0.40850,-2.72417657
0.40900,-0.8930101235
0.40950,1.24335073
0.41000,2.464128361
0.41050,3.379711584
0.41100,4.905683623
0.41150,7.347238884
0.41200,7.652433292
0.41250,5.821266846
0.41300,4.295294807
0.41350,4.295294807
0.41400,4.600489215
0.41450,3.9901004
0.41500,3.379711584
0.41550,3.9901004
0.41600,4.600489215
0.41650,3.684905992
0.41700,2.464128361
0.41750,2.464128361
0.41800,3.379711584
0.41850,3.684905992
0.41900,2.464128361
0.41950,1.548545138
0.42000,1.853739546
0.42050,2.464128361
0.42100,2.464128361
0.42150,1.24335073
0.42200,0.02257309962
0.42250,-1.198204531
0.42300,-2.113787754
0.42350,-2.418982162
0.42400,-2.418982162
0.42450,-2.418982162
0.42500,-2.72417657
0.42550,-2.72417657
0.42600,-1.808593347
0.42650,-1.198204531
0.42700,-2.113787754
0.42750,-3.639759793
0.42800,-4.555343016
0.42850,-4.250148608
0.42900,-3.9449542
0.42950,-3.639759793
0.43000,-2.72417657
0.43050,-1.503398939
0.43100,-0.8930101235
0.43150,-1.808593347
0.43200,-3.334565385
0.43250,-3.029370977
0.43300,-1.503398939
0.43350,0.02257309962
0.43400,-0.2826213081
0.43450,-1.808593347
0.43500,-3.639759793
0.43550,-5.165731831
0.43600,-6.081315054
0.43650,-5.470926239
0.43700,-4.860537424
0.43750,-4.555343016
0.43800,-5.165731831
0.43850,-6.081315054
0.43900,-6.386509462
0.43950,-6.69170387
0.44000,-6.386509462
0.44050,-5.470926239
0.44100,-4.250148608
0.44150,-3.9449542
0.44200,-4.860537424
0.44250,-5.470926239
0.44300,-4.860537424
0.44350,-3.639759793
0.44400,-3.029370977
0.44450,-3.639759793
0.44500,-4.250148608
0.44550,-4.555343016
0.44600,-3.334565385
0.44650,-1.808593347
0.44700,-0.8930101235
0.44750,-1.198204531
0.44800,-2.418982162
0.44850,-2.418982162
0.44900,-1.503398939
0.44950,-0.2826213081
0.45000,0.02257309962
0.45050,0.3277675073
0.45100,0.9381563227
0.45150,0.632961915
0.45200,-0.2826213081
0.45250,-1.503398939
0.45300,-1.808593347
0.45350,-0.5878157158
0.45400,0.02257309962
0.45450,0.02257309962
0.45500,-0.8930101235
0.45550,-1.503398939
0.45600,-0.8930101235
0.45650,0.02257309962
0.45700,-0.2826213081
0.45750,-1.198204531
0.45800,-1.503398939
0.45850,-0.5878157158
0.45900,-0.2826213081
0.45950,-0.2826213081
0.46000,-0.5878157158
0.46050,0.02257309962
0.46100,0.9381563227
0.46150,1.548545138
0.46200,1.853739546
0.46250,3.074517177
0.46300,3.684905992
0.46350,3.684905992
0.46400,3.379711584
0.46450,3.379711584
0.46500,3.379711584
0.46550,3.074517177
0.46600,2.769322769
0.46650,2.769322769
0.46700,3.074517177
0.46750,2.769322769
0.46800,2.464128361
0.46850,3.379711584
0.46900,4.905683623
0.46950,5.210878031
0.47000,4.600489215
0.47050,3.9901004
0.47100,3.684905992
0.47150,3.379711584
0.47200,3.379711584
0.47250,3.9901004
0.47300,4.295294807
0.47350,3.9901004
0.47400,3.379711584
0.47450,3.074517177
0.47500,3.074517177
0.47550,3.074517177
0.47600,3.074517177
0.47650,3.379711584
0.47700,3.684905992
0.47750,3.074517177
0.47800,1.853739546
0.47850,1.24335073
0.47900,1.853739546
0.47950,2.464128361
0.48000,2.464128361
0.48050,1.853739546
0.48100,0.9381563227
0.48150,0.632961915
0.48200,0.632961915
0.48250,0.9381563227
0.48300,1.548545138
0.48350,1.548545138
0.48400,0.9381563227
0.48450,0.632961915
0.48500,0.632961915
0.48550,0.632961915
0.48600,0.3277675073
0.48650,0.02257309962
0.48700,-0.5878157158
0.48750,-0.8930101235
0.48800,-1.198204531
0.48850,-1.808593347
0.48900,-1.808593347
0.48950,-1.808593347
0.49000,-2.113787754
0.49050,-2.418982162
0.49100,-2.418982162
0.49150,-1.808593347
0.49200,-1.198204531
0.49250,-1.808593347
0.49300,-2.113787754
0.49350,-1.503398939
0.49400,0.02257309962
0.49450,0.02257309962
0.49500,-0.2826213081
0.49550,0.02257309962
0.49600,2.464128361
0.49650,4.295294807
0.49700,3.379711584
0.49750,1.853739546
0.49800,2.158933954
0.49850,3.9901004
0.49900,5.210878031
0.49950,4.600489215
0.50000,3.9901004
0.50050,4.600489215
0.50100,5.210878031
0.50150,5.516072438
0.50200,5.210878031
0.50250,4.905683623
0.50300,3.684905992
0.50350,1.853739546
0.50400,1.24335073
0.50450,1.548545138
0.50500,2.158933954
0.50550,2.158933954
0.50600,2.158933954
0.50650,2.464128361
0.50700,2.769322769
0.50750,1.853739546
0.50800,0.632961915
0.50850,0.3277675073
0.50900,1.24335073
0.50950,1.853739546
0.51000,1.853739546
0.51050,1.853739546
0.51100,1.853739546
0.51150,1.548545138
0.51200,0.3277675073
0.51250,-0.8930101235
0.51300,-1.808593347
0.51350,-1.198204531
0.51400,-0.2826213081
0.51450,0.632961915
0.51500,1.24335073
0.51550,0.9381563227
0.51600,-0.2826213081
0.51650,-2.72417657
0.51700,-4.555343016
0.51750,-4.555343016
0.51800,-4.555343016
0.51850,-5.470926239
0.51900,-7.302092685
0.51950,-9.133259131
0.52000,-9.743647947
0.52050,-10.04884235
0.52100,-10.65923117
0.52150,-11.26961999
0.52200,-12.49039762
0.52250,-13.71117525
0.52300,-14.01636965
0.52350,-13.40598084
0.52400,-12.49039762
0.52450,-13.10078643
0.52500,-14.93195288
0.52550,-15.8475361
0.52600,-14.93195288
0.52650,-12.18520321
0.52700,-9.743647947
0.52750,-8.217675908
0.52800,-7.607287093
0.52850,-7.607287093
0.52900,-6.996898278
0.52950,-6.69170387
0.53000,-6.386509462
0.53050,-6.081315054
0.53100,-6.081315054
0.53150,-6.081315054
0.53200,-6.386509462
0.53250,-6.386509462
0.53300,-5.776120647
0.53350,-4.555343016
0.53400,-3.9449542
0.53450,-4.250148608
0.53500,-4.555343016
0.53550,-4.250148608
0.53600,-3.639759793
0.53650,-3.639759793
0.53700,-4.555343016
0.53750,-5.165731831
0.53800,-4.860537424
0.53850,-3.334565385
0.53900,-2.113787754
0.53950,-2.418982162
0.54000,-3.029370977
0.54050,-3.029370977
0.54100,-2.113787754
0.54150,-1.198204531
0.54200,-0.5878157158
0.54250,0.02257309962
0.54300,1.548545138
0.54350,2.464128361
0.54400,3.379711584
0.54450,4.295294807
0.54500,6.126461254
0.54550,7.042044477
0.54600,5.516072438
0.54650,3.379711584
0.54700,2.769322769
0.54750,3.379711584
0.54800,4.295294807
0.54850,4.295294807
0.54900,4.295294807
0.54950,4.295294807
0.55000,3.379711584
0.55050,3.379711584
0.55100,4.600489215
0.55150,6.126461254
0.55200,6.126461254
0.55250,5.210878031
0.55300,5.516072438
0.55350,7.042044477
0.55400,7.347238884
0.55450,6.431655661
0.55500,6.736850069
0.55550,7.652433292
0.55600,7.042044477
0.55650,4.905683623
0.55700,4.295294807
0.55750,4.905683623
0.55800,5.516072438
0.55850,4.600489215
0.55900,4.295294807
0.55950,4.600489215
0.56000,3.684905992
0.56050,1.24335073
0.56100,0.02257309962
0.56150,1.853739546
0.56200,4.905683623
0.56250,5.821266846
0.56300,5.210878031
0.56350,5.516072438
0.56400,6.126461254
0.56450,5.821266846
0.56500,5.210878031
0.56550,6.431655661
0.56600,7.9576277
0.56650,7.347238884
0.56700,5.210878031
0.56750,4.295294807
0.56800,4.905683623
0.56850,5.516072438
0.56900,4.295294807
0.56950,3.074517177
0.57000,2.464128361
0.57050,1.24335073
0.57100,-0.5878157158
0.57150,-2.113787754
0.57200,-1.503398939
0.57250,-0.2826213081
0.57300,-0.5878157158
0.57350,-2.418982162
0.57400,-3.9449542
0.57450,-4.860537424
0.57500,-6.081315054
0.57550,-8.217675908
0.57600,-9.133259131
0.57650,-8.522870316
0.57700,-7.302092685
0.57750,-6.386509462
0.57800,-5.470926239
0.57850,-5.165731831
0.57900,-5.776120647
0.57950,-7.302092685
0.58000,-7.302092685
0.58050,-4.555343016
0.58100,-0.5878157158
0.58150,0.9381563227
0.58200,0.02257309962
0.58250,-0.5878157158
0.58300,0.02257309962
0.58350,1.548545138
0.58400,0.632961915
0.58450,-1.808593347
0.58500,-4.250148608
0.58550,-5.165731831
0.58600,-5.165731831
0.58650,-5.470926239
0.58700,-5.165731831
0.58750,-3.9449542
0.58800,-2.72417657
0.58850,-2.72417657
0.58900,-3.334565385
0.58950,-3.9449542
0.59000,-3.639759793
0.59050,-3.334565385
0.59100,-2.72417657
0.59150,-2.418982162
0.59200,-2.113787754
0.59250,-2.72417657
0.59300,-3.9449542
0.59350,-5.165731831
0.59400,-6.081315054
0.59450,-6.996898278
0.59500,-7.607287093
0.59550,-7.912481501
0.59600,-8.217675908
0.59650,-7.302092685
0.59700,-5.776120647
0.59750,-3.9449542
0.59800,-2.418982162
0.59850,-1.198204531
0.59900,0.02257309962
0.59950,2.158933954
0.60000,3.074517177
0.60050,2.158933954
0.60100,1.24335073
0.60150,1.548545138
0.60200,2.464128361
0.60250,2.769322769
0.60300,2.464128361
0.60350,2.158933954
0.60400,3.074517177
0.60450,3.9901004
0.60500,3.9901004
0.60550,3.074517177
0.60600,2.464128361
0.60650,2.769322769
0.60700,3.379711584
0.60750,3.684905992
0.60800,2.769322769
0.60850,1.548545138
0.60900,0.02257309962
0.60950,-0.8930101235
0.61000,-1.808593347
0.61050,-2.113787754
0.61100,-1.808593347
0.61150,-1.808593347
0.61200,-2.72417657
0.61250,-3.639759793
0.61300,-3.639759793
0.61350,-2.418982162
0.61400,-1.198204531
0.61450,-0.8930101235
0.61500,0.02257309962
0.61550,1.548545138
0.61600,3.074517177
0.61650,3.684905992
0.61700,4.905683623
0.61750,5.821266846
0.61800,5.821266846
0.61850,4.600489215
0.61900,3.684905992
0.61950,3.9901004
0.62000,5.210878031
0.62050,5.516072438
0.62100,5.210878031
0.62150,5.821266846
0.62200,6.736850069
0.62250,7.042044477
0.62300,6.736850069
0.62350,5.821266846
0.62400,5.821266846
0.62450,5.821266846
0.62500,5.821266846
0.62550,5.210878031
0.62600,3.684905992
0.62650,0.9381563227
0.62700,-1.198204531
0.62750,-2.72417657
0.62800,-2.72417657
0.62850,-1.808593347
0.62900,-1.503398939
0.62950,-3.029370977
0.63000,-4.860537424
0.63050,-5.165731831
0.63100,-3.639759793
0.63150,-2.418982162
0.63200,-2.418982162
0.63250,-3.9449542
0.63300,-4.250148608
0.63350,-3.639759793
0.63400,-3.029370977
0.63450,-2.72417657
0.63500,-2.418982162
0.63550,-1.198204531
0.63600,-0.2826213081
0.63650,-0.2826213081
0.63700,0.02257309962
0.63750,1.24335073
0.63800,3.379711584
0.63850,3.9901004
0.63900,3.9901004
0.63950,3.9901004
0.64000,3.9901004
0.64050,3.074517177
0.64100,1.24335073
0.64150,0.632961915
0.64200,1.548545138
0.64250,2.769322769
0.64300,3.379711584
0.64350,3.074517177
0.64400,2.464128361
0.64450,1.548545138
0.64500,0.02257309962
0.64550,-1.503398939
0.64600,-2.113787754
0.64650,-1.808593347
0.64700,-1.808593347
0.64750,-2.113787754
0.64800,-1.808593347
0.64850,-0.2826213081
0.64900,1.24335073
0.64950,2.464128361
0.65000,3.684905992
0.65050,5.210878031
0.65100,6.736850069
0.65150,7.652433292
0.65200,8.568016515
0.65250,9.483599738
0.65300,9.788794146
0.65350,8.873210923
0.65400,7.9576277
0.65450,7.9576277
0.65500,7.9576277
0.65550,6.736850069
0.65600,4.905683623
0.65650,4.600489215
0.65700,5.516072438
0.65750,6.431655661
0.65800,6.736850069
0.65850,7.042044477
0.65900,7.9576277
0.65950,8.873210923
0.66000,8.873210923
0.66050,9.178405331
0.66100,9.178405331
0.66150,9.178405331
0.66200,9.178405331
0.66250,9.178405331
0.66300,9.178405331
0.66350,7.9576277
0.66400,6.126461254
0.66450,4.905683623
0.66500,4.905683623
0.66550,5.516072438
0.66600,5.210878031
0.66650,3.9901004
0.66700,1.548545138
0.66750,-0.5878157158
0.66800,-2.113787754
0.66850,-1.503398939
0.66900,-0.8930101235
0.66950,-2.113787754
0.67000,-4.250148608
0.67050,-4.555343016
0.67100,-3.029370977
0.67150,-1.503398939
0.67200,-1.808593347
0.67250,-2.418982162
0.67300,-1.503398939
0.67350,0.02257309962
0.67400,0.632961915
0.67450,0.632961915
0.67500,0.632961915
0.67550,0.632961915
0.67600,0.3277675073
0.67650,0.3277675073
0.67700,0.9381563227
0.67750,1.853739546
0.67800,1.548545138
0.67850,0.632961915
0.67900,0.632961915
0.67950,2.158933954
0.68000,3.684905992
0.68050,4.905683623
0.68100,5.821266846
0.68150,7.652433292
0.68200,9.483599738
0.68250,10.39918296
0.68300,10.39918296
0.68350,9.483599738
0.68400,8.262822108
0.68450,7.9576277
0.68500,8.873210923
0.68550,10.09398855
0.68600,9.788794146
0.68650,7.652433292
0.68700,5.821266846
0.68750,4.600489215
0.68800,3.074517177
0.68850,1.548545138
0.68900,0.9381563227
0.68950,0.9381563227
0.69000,0.3277675073
0.69050,-0.2826213081
0.69100,-1.198204531
0.69150,-1.503398939
0.69200,-2.113787754
0.69250,-2.72417657
0.69300,-3.029370977
0.69350,-3.029370977
0.69400,-3.9449542
0.69450,-5.165731831
0.69500,-5.776120647
0.69550,-5.165731831
0.69600,-6.386509462
0.69650,-8.828064724
0.69700,-10.96442558
0.69750,-10.65923117
0.69800,-9.743647947
0.69850,-10.35403676
0.69900,-11.57481439
0.69950,-11.8800088
0.70000,-10.35403676
0.70050,-8.217675908
0.70100,-7.302092685
0.70150,-6.996898278
0.70200,-6.996898278
0.70250,-6.081315054
0.70300,-4.555343016
0.70350,-4.250148608
0.70400,-4.860537424
0.70450,-4.860537424
0.70500,-3.334565385
0.70550,-0.8930101235
0.70600,0.02257309962
0.70650,-0.5878157158
0.70700,-0.8930101235
0.70750,0.02257309962
0.70800,1.24335073
0.70850,1.24335073
0.70900,0.632961915
0.70950,0.3277675073
0.71000,0.02257309962
0.71050,0.632961915
0.71100,1.548545138
0.71150,1.853739546
0.71200,0.9381563227
0.71250,0.02257309962
0.71300,0.02257309962
0.71350,1.24335073
0.71400,2.158933954
0.71450,2.464128361
0.71500,2.464128361
0.71550,3.074517177
0.71600,3.379711584
0.71650,3.379711584
0.71700,3.684905992
0.71750,3.379711584
0.71800,2.769322769
0.71850,1.853739546
0.71900,1.24335073
0.71950,1.24335073
0.72000,2.464128361
0.72050,3.9901004
0.72100,5.516072438
0.72150,6.736850069
0.72200,8.262822108
0.72250,11.31476618
0.72300,14.06151585
0.72350,14.97709908
0.72400,14.06151585
0.72450,12.53554382
0.72500,12.23034941
0.72550,11.925155
0.72600,11.00957178
0.72650,9.483599738
0.72700,8.568016515
0.72750,7.347238884
0.72800,6.126461254
0.72850,5.516072438
0.72900,6.431655661
0.72950,7.347238884
0.73000,6.431655661
0.73050,4.905683623
0.73100,4.600489215
0.73150,5.516072438
0.73200,5.821266846
0.73250,4.600489215
0.73300,3.379711584
0.73350,2.464128361
0.73400,1.548545138
0.73450,0.3277675073
0.73500,-0.5878157158
0.73550,-0.8930101235
0.73600,-1.808593347
0.73650,-3.334565385
0.73700,-4.860537424
0.73750,-5.165731831
0.73800,-4.250148608
0.73850,-3.9449542
0.73900,-4.250148608
0.73950,-3.639759793
0.74000,-1.808593347
0.74050,-0.5878157158
0.74100,-0.5878157158
0.74150,-0.8930101235
0.74200,0.02257309962
0.74250,0.3277675073
0.74300,0.02257309962
0.74350,-1.198204531
0.74400,-0.8930101235
0.74450,0.02257309962
0.74500,0.3277675073
0.74550,0.632961915
0.74600,1.853739546
0.74650,3.379711584
0.74700,2.769322769
0.74750,0.632961915
0.74800,-0.2826213081
0.74850,0.02257309962
0.74900,0.9381563227
0.74950,0.9381563227
0.75000,0.3277675073
0.75050,0.02257309962
0.75100,-0.8930101235
0.75150,-2.72417657
0.75200,-4.555343016
0.75250,-5.165731831
0.75300,-3.9449542
0.75350,-2.72417657
0.75400,-2.113787754
0.75450,-2.418982162
0.75500,-2.72417657
0.75550,-2.418982162
0.75600,-1.503398939
0.75650,-0.8930101235
0.75700,-2.113787754
0.75750,-3.9449542
0.75800,-5.165731831
0.75850,-5.165731831
0.75900,-5.165731831
0.75950,-5.776120647
0.76000,-6.386509462
0.76050,-6.081315054
0.76100,-5.165731831
0.76150,-3.9449542
0.76200,-3.639759793
0.76250,-3.9449542
0.76300,-5.165731831
0.76350,-6.081315054
0.76400,-5.470926239
0.76450,-4.860537424
0.76500,-5.470926239
0.76550,-7.607287093
0.76600,-9.438453539
0.76650,-10.65923117
0.76700,-11.8800088
0.76750,-13.71117525
0.76800,-15.23714729
0.76850,-16.15273051
0.76900,-16.45792492
0.76950,-16.45792492
0.77000,-15.54234169
0.77050,-13.10078643
0.77100,-10.65923117
0.77150,-8.217675908
0.77200,-6.69170387
0.77250,-5.776120647
0.77300,-5.776120647
0.77350,-5.776120647
0.77400,-4.860537424
0.77450,-3.639759793
0.77500,-3.334565385
0.77550,-3.9449542
0.77600,-4.555343016
0.77650,-5.470926239
0.77700,-6.386509462
0.77750,-7.607287093
0.77800,-7.912481501
0.77850,-6.996898278
0.77900,-5.776120647
0.77950,-5.165731831
0.78000,-4.860537424
0.78050,-4.250148608
0.78100,-3.029370977
0.78150,-2.113787754
0.78200,-1.503398939
0.78250,-1.503398939
0.78300,-1.808593347
0.78350,-1.808593347
0.78400,-1.808593347
0.78450,-1.808593347
0.78500,-1.808593347
0.78550,-2.113787754
0.78600,-2.418982162
0.78650,-3.029370977
0.78700,-4.250148608
0.78750,-4.860537424
0.78800,-4.250148608
0.78850,-3.9449542
0.78900,-4.860537424
0.78950,-6.69170387
0.79000,-6.996898278
0.79050,-6.081315054
0.79100,-5.165731831
0.79150,-5.776120647
0.79200,-6.386509462
0.79250,-6.081315054
0.79300,-5.470926239
0.79350,-4.860537424
0.79400,-3.9449542
0.79450,-2.113787754
0.79500,0.02257309962
0.79550,1.548545138
0.79600,2.464128361
0.79650,3.379711584
0.79700,3.9901004
0.79750,3.684905992
0.79800,2.464128361
0.79850,1.548545138
0.79900,1.853739546
0.79950,2.464128361
0.80000,2.769322769
0.80050,2.158933954
0.80100,1.853739546
0.80150,2.158933954
0.80200,2.464128361
0.80250,2.464128361
0.80300,2.158933954
0.80350,1.853739546
0.80400,1.548545138
0.80450,0.9381563227
0.80500,0.02257309962
0.80550,-0.5878157158
0.80600,-0.5878157158
0.80650,0.02257309962
0.80700,0.9381563227
0.80750,2.158933954
0.80800,3.074517177
0.80850,3.074517177
0.80900,2.769322769
0.80950,2.769322769
0.81000,2.769322769
0.81050,2.158933954
0.81100,1.24335073
0.81150,0.9381563227
0.81200,1.853739546
0.81250,2.464128361
0.81300,1.853739546
0.81350,0.9381563227
0.81400,0.9381563227
0.81450,1.853739546
0.81500,2.464128361
0.81550,2.464128361
0.81600,1.853739546
0.81650,1.853739546
0.81700,1.853739546
0.81750,2.158933954
0.81800,2.769322769
0.81850,3.379711584
0.81900,3.684905992
0.81950,3.379711584
0.82000,3.074517177
0.82050,2.158933954
0.82100,1.853739546
0.82150,2.769322769
0.82200,4.295294807
0.82250,5.210878031
0.82300,4.905683623
0.82350,3.379711584
0.82400,3.074517177
0.82450,3.379711584
0.82500,3.379711584
0.82550,3.074517177
0.82600,2.769322769
0.82650,2.769322769
0.82700,2.769322769
0.82750,2.769322769
0.82800,2.769322769
0.82850,2.464128361
0.82900,1.853739546
0.82950,0.9381563227
0.83000,0.02257309962
0.83050,-1.503398939
0.83100,-2.72417657
0.83150,-3.9449542
0.83200,-5.165731831
0.83250,-5.776120647
0.83300,-6.081315054
0.83350,-5.470926239
0.83400,-5.470926239
0.83450,-6.386509462
0.83500,-7.607287093
0.83550,-7.912481501
0.83600,-7.607287093
0.83650,-6.996898278
0.83700,-6.69170387
0.83750,-6.081315054
0.83800,-5.165731831
0.83850,-4.860537424
0.83900,-4.555343016
0.83950,-3.9449542
0.84000,-3.334565385
0.84050,-3.639759793
0.84100,-4.555343016
0.84150,-4.250148608
0.84200,-2.113787754
0.84250,-0.5878157158
0.84300,-0.8930101235
0.84350,-2.113787754
0.84400,-2.418982162
0.84450,-1.808593347
0.84500,-1.808593347
0.84550,-2.72417657
0.84600,-3.029370977
0.84650,-2.418982162
0.84700,-2.113787754
0.84750,-2.113787754
0.84800,-2.113787754
0.84850,-2.113787754
0.84900,-2.113787754
0.84950,-2.418982162
0.85000,-2.72417657
0.85050,-2.418982162
0.85100,-1.808593347
0.85150,-1.198204531
0.85200,-0.5878157158
0.85250,-0.5878157158
0.85300,-1.198204531
0.85350,-1.198204531
0.85400,-0.2826213081
0.85450,0.632961915
0.85500,0.02257309962
0.85550,-0.8930101235
0.85600,-0.8930101235
0.85650,0.02257309962
0.85700,0.632961915
0.85750,0.9381563227
0.85800,1.548545138
0.85850,1.548545138
0.85900,0.9381563227
0.85950,0.02257309962
0.86000,0.02257309962
0.86050,0.632961915
0.86100,0.9381563227
0.86150,0.632961915
0.86200,0.02257309962
0.86250,-0.2826213081
0.86300,-0.2826213081
0.86350,-0.8930101235
0.86400,-1.503398939
0.86450,-0.5878157158
0.86500,0.632961915
0.86550,1.548545138
0.86600,0.632961915
0.86650,0.02257309962
0.86700,0.632961915
0.86750,2.769322769
0.86800,3.074517177
0.86850,0.632961915
0.86900,-0.2826213081
0.86950,1.24335073
0.87000,4.295294807
0.87050,4.905683623
0.87100,2.769322769
0.87150,1.548545138
0.87200,2.158933954
0.87250,2.769322769
0.87300,2.464128361
0.87350,2.158933954
0.87400,2.158933954
0.87450,1.853739546
0.87500,1.24335073
0.87550,1.548545138
0.87600,3.379711584
0.87650,3.9901004
0.87700,3.684905992
0.87750,3.379711584
0.87800,3.9901004
0.87850,4.905683623
0.87900,4.905683623
0.87950,4.905683623
0.88000,5.821266846
0.88050,6.431655661
0.88100,5.821266846
0.88150,4.600489215
0.88200,3.684905992
0.88250,3.074517177
0.88300,2.464128361
0.88350,1.548545138
0.88400,0.9381563227
0.88450,0.02257309962
0.88500,0.02257309962
0.88550,0.3277675073
0.88600,1.548545138
0.88650,2.769322769
0.88700,2.464128361
0.88750,1.853739546
0.88800,1.548545138
0.88850,1.548545138
0.88900,1.24335073
0.88950,1.548545138
0.89000,3.684905992
0.89050,5.821266846
0.89100,6.431655661
0.89150,5.210878031
0.89200,3.379711584
0.89250,1.548545138
0.89300,0.02257309962
0.89350,-1.198204531
0.89400,-1.808593347
0.89450,-1.808593347
0.89500,-1.198204531
0.89550,-0.8930101235
0.89600,-1.198204531
0.89650,-1.503398939
0.89700,-2.113787754
0.89750,-2.418982162
0.89800,-2.113787754
0.89850,-1.503398939
0.89900,-1.198204531
0.89950,-1.808593347
0.90000,-3.029370977
0.90050,-3.639759793
0.90100,-3.9449542
0.90150,-3.9449542
0.90200,-3.9449542
0.90250,-3.029370977
0.90300,-1.198204531
0.90350,0.3277675073
0.90400,0.02257309962
0.90450,-1.198204531
0.90500,-2.418982162
0.90550,-2.72417657
0.90600,-2.113787754
0.90650,-2.113787754
0.90700,-2.113787754
0.90750,-1.503398939
0.90800,-0.2826213081
0.90850,0.632961915
0.90900,1.548545138
0.90950,1.548545138
0.91000,1.548545138
0.91050,0.9381563227
0.91100,0.02257309962
0.91150,0.02257309962
0.91200,0.3277675073
0.91250,1.24335073
0.91300,2.158933954
0.91350,2.158933954
0.91400,1.548545138
0.91450,0.3277675073
0.91500,0.02257309962
0.91550,0.3277675073
0.91600,1.24335073
0.91650,2.158933954
0.91700,2.158933954
0.91750,1.548545138
0.91800,0.02257309962
0.91850,0.02257309962
0.91900,0.3277675073
0.91950,2.158933954
0.92000,3.074517177
0.92050,3.379711584
0.92100,2.464128361
0.92150,1.24335073
0.92200,0.02257309962
0.92250,0.02257309962
0.92300,0.3277675073
0.92350,1.24335073
0.92400,0.9381563227
0.92450,0.02257309962
0.92500,0.02257309962
0.92550,0.9381563227
0.92600,2.158933954
0.92650,2.769322769
0.92700,3.074517177
0.92750,3.379711584
0.92800,3.074517177
0.92850,2.158933954
0.92900,1.853739546
0.92950,2.464128361
0.93000,3.074517177
0.93050,3.074517177
0.93100,3.074517177
0.93150,3.684905992
0.93200,4.295294807
0.93250,4.295294807
0.93300,4.295294807
0.93350,3.9901004
0.93400,3.379711584
0.93450,2.158933954
0.93500,1.24335073
0.93550,0.9381563227
0.93600,1.24335073
0.93650,0.9381563227
0.93700,1.548545138
0.93750,2.464128361
0.93800,2.464128361
0.93850,0.632961915
0.93900,-0.8930101235
0.93950,-0.8930101235
0.94000,0.3277675073
0.94050,1.24335073
0.94100,1.24335073
0.94150,1.548545138
0.94200,2.464128361
0.94250,2.464128361
0.94300,1.548545138
0.94350,1.548545138
0.94400,3.379711584
0.94450,5.821266846
0.94500,7.042044477
0.94550,6.736850069
0.94600,4.905683623
0.94650,3.074517177
0.94700,2.464128361
0.94750,3.9901004
0.94800,5.516072438
0.94850,4.905683623
0.94900,2.158933954
0.94950,-0.5878157158
0.95000,-1.808593347
0.95050,-1.198204531
0.95100,-0.8930101235
0.95150,-0.8930101235
0.95200,0.02257309962
0.95250,1.548545138
0.95300,2.464128361
0.95350,0.632961915
0.95400,-2.113787754
0.95450,-3.9449542
0.95500,-3.639759793
0.95550,-3.334565385
0.95600,-4.250148608
0.95650,-5.776120647
0.95700,-5.470926239
0.95750,-4.555343016
0.95800,-4.555343016
0.95850,-5.776120647
0.95900,-7.912481501
0.95950,-10.04884235
0.96000,-12.18520321
0.96050,-12.18520321
0.96100,-10.35403676
0.96150,-8.522870316
0.96200,-9.133259131
0.96250,-10.35403676
0.96300,-10.35403676
0.96350,-9.438453539
0.96400,-9.133259131
0.96450,-9.743647947
0.96500,-8.828064724
0.96550,-6.69170387
0.96600,-5.165731831
0.96650,-5.776120647
0.96700,-6.081315054
0.96750,-5.470926239
0.96800,-4.250148608
0.96850,-3.9449542
0.96900,-4.250148608
0.96950,-3.9449542
0.97000,-3.334565385
0.97050,-2.72417657
0.97100,-2.113787754
0.97150,-1.503398939
0.97200,-0.8930101235
0.97250,-0.2826213081
0.97300,0.3277675073
0.97350,1.24335073
0.97400,1.548545138
0.97450,1.24335073
0.97500,1.24335073
0.97550,1.548545138
0.97600,1.853739546
0.97650,2.158933954
0.97700,2.769322769
0.97750,3.684905992
0.97800,3.9901004
0.97850,3.684905992
0.97900,3.379711584
0.97950,3.9901004
0.98000,5.210878031
0.98050,7.042044477
0.98100,8.262822108
0.98150,7.9576277
0.98200,7.042044477
0.98250,6.126461254
0.98300,7.042044477
0.98350,8.568016515
0.98400,9.483599738
0.98450,8.873210923
0.98500,7.9576277
0.98550,7.9576277
0.98600,8.262822108
0.98650,8.568016515
0.98700,8.568016515
0.98750,8.568016515
0.98800,7.9576277
0.98850,7.347238884
0.98900,7.042044477
0.98950,7.042044477
0.99000,7.652433292
0.99050,7.652433292
0.99100,6.736850069
0.99150,5.516072438
0.99200,4.905683623
0.99250,5.210878031
0.99300,6.431655661
0.99350,7.042044477
0.99400,6.736850069
0.99450,6.126461254
0.99500,5.821266846
0.99550,5.821266846
0.99600,4.905683623
0.99650,4.295294807
0.99700,3.684905992
0.99750,3.684905992
0.99800,3.379711584
0.99850,3.074517177
0.99900,2.769322769
0.99950,2.158933954
1.00000,1.24335073
1.00050,1.24335073
1.00100,2.158933954
1.00150,2.769322769
1.00200,2.464128361
1.00250,2.158933954
1.00300,2.464128361
1.00350,2.158933954
1.00400,0.632961915
1.00450,-0.8930101235
1.00500,-0.8930101235
1.00550,-0.2826213081
1.00600,-0.8930101235
1.00650,-2.72417657
1.00700,-3.334565385
1.00750,-2.113787754
1.00800,-0.8930101235
1.00850,-0.8930101235
1.00900,-0.2826213081
1.00950,0.9381563227
1.01000,1.853739546
1.01050,1.548545138
1.01100,0.3277675073
1.01150,0.3277675073
1.01200,0.3277675073
1.01250,-0.2826213081
1.01300,-1.503398939
1.01350,-2.72417657
1.01400,-3.334565385
1.01450,-3.639759793
1.01500,-2.72417657
1.01550,-1.503398939
1.01600,-0.8930101235
1.01650,-0.5878157158
1.01700,0.3277675073
1.01750,2.158933954
1.01800,2.464128361
1.01850,1.24335073
1.01900,0.3277675073
1.01950,1.24335073
1.02000,2.769322769
1.02050,2.158933954
1.02100,0.632961915
1.02150,0.3277675073
1.02200,1.548545138
1.02250,2.158933954
1.02300,0.9381563227
1.02350,-0.5878157158
1.02400,-0.5878157158
1.02450,0.02257309962
1.02500,0.9381563227
1.02550,1.24335073
1.02600,1.24335073
1.02650,1.853739546
1.02700,2.158933954
1.02750,2.158933954
1.02800,1.548545138
1.02850,1.853739546
1.02900,2.769322769
1.02950,3.379711584
1.03000,3.684905992
1.03050,3.9901004
1.03100,4.600489215
1.03150,4.905683623
1.03200,4.295294807
1.03250,3.684905992
1.03300,3.684905992
1.03350,3.684905992
1.03400,2.464128361
1.03450,0.632961915
1.03500,-0.2826213081
1.03550,0.02257309962
1.03600,0.9381563227
1.03650,1.548545138
1.03700,0.9381563227
1.03750,0.3277675073
1.03800,0.3277675073
1.03850,0.632961915
1.03900,0.3277675073
1.03950,0.02257309962
1.04000,-0.2826213081
1.04050,0.02257309962
1.04100,0.02257309962
1.04150,-0.5878157158
1.04200,-0.2826213081
1.04250,0.632961915
1.04300,3.379711584
1.04350,6.126461254
1.04400,7.347238884
1.04450,7.042044477
1.04500,4.905683623
1.04550,1.548545138
1.04600,-1.198204531
1.04650,-4.860537424
1.04700,-8.828064724
1.04750,-11.26961999
1.04800,-12.18520321
1.04850,-12.79559202
1.04900,-13.40598084
1.04950,-14.01636965
1.05000,-13.40598084
1.05050,-12.79559202
1.05100,-13.71117525
1.05150,-15.8475361
1.05200,-15.8475361
1.05250,-14.32156406
1.05300,-14.01636965
1.05350,-15.23714729
1.05400,-15.8475361
1.05450,-14.62675847
1.05500,-12.49039762
1.05550,-11.8800088
1.05600,-11.8800088
1.05650,-10.96442558
1.05700,-9.438453539
1.05750,-8.522870316
1.05800,-7.912481501
1.05850,-7.302092685
1.05900,-6.69170387
1.05950,-6.69170387
1.06000,-6.386509462
1.06050,-5.470926239
1.06100,-4.860537424
1.06150,-5.165731831
1.06200,-5.776120647
1.06250,-6.081315054
1.06300,-5.776120647
1.06350,-5.470926239
1.06400,-4.860537424
1.06450,-5.470926239
1.06500,-6.386509462
1.06550,-6.69170387
1.06600,-4.860537424
1.06650,-2.113787754
1.06700,-0.8930101235
1.06750,-1.198204531
1.06800,-0.8930101235
1.06850,0.02257309962
1.06900,1.24335073
1.06950,2.464128361
1.07000,3.9901004
1.07050,5.821266846
1.07100,6.431655661
1.07150,6.126461254
1.07200,6.126461254
1.07250,6.431655661
1.07300,6.126461254
1.07350,4.905683623
1.07400,3.9901004
1.07450,3.684905992
1.07500,3.684905992
1.07550,2.769322769
1.07600,2.158933954
1.07650,2.464128361
1.07700,3.074517177
1.07750,3.379711584
1.07800,2.158933954
1.07850,0.632961915
1.07900,-0.2826213081
1.07950,-0.5878157158
1.08000,0.02257309962
1.08050,1.548545138
1.08100,2.464128361
1.08150,2.464128361
1.08200,2.158933954
1.08250,2.158933954
1.08300,1.548545138
1.08350,0.9381563227
1.08400,0.632961915
1.08450,1.24335073
1.08500,2.158933954
1.08550,3.074517177
1.08600,3.074517177
1.08650,2.464128361
1.08700,1.853739546
1.08750,2.158933954
1.08800,2.769322769
1.08850,3.379711584
1.08900,3.9901004
1.08950,3.684905992
1.09000,3.379711584
1.09050,2.769322769
1.09100,2.464128361
1.09150,3.074517177
1.09200,3.684905992
1.09250,3.379711584
1.09300,2.769322769
1.09350,2.769322769
1.09400,3.9901004
1.09450,5.210878031
1.09500,5.821266846
1.09550,5.821266846
1.09600,6.126461254
1.09650,7.347238884
1.09700,7.9576277
1.09750,8.262822108
1.09800,9.483599738
1.09850,10.39918296
1.09900,10.39918296
1.09950,9.178405331
1.10000,7.652433292
1.10050,7.042044477
1.10100,6.736850069
1.10150,7.042044477
1.10200,7.9576277
1.10250,9.178405331
1.10300,9.178405331
1.10350,8.262822108
1.10400,7.042044477
1.10450,7.042044477
1.10500,7.652433292
1.10550,8.262822108
1.10600,7.9576277
1.10650,5.821266846
1.10700,3.074517177
1.10750,0.632961915
1.10800,-1.198204531
1.10850,-2.113787754
1.10900,-2.72417657
1.10950,-3.029370977
1.11000,-4.250148608
1.11050,-6.081315054
1.11100,-7.607287093
1.11150,-9.133259131
1.11200,-10.65923117
1.11250,-12.18520321
1.11300,-13.40598084
1.11350,-14.32156406
1.11400,-15.54234169
1.11450,-16.45792492
1.11500,-16.45792492
1.11550,-15.23714729
1.11600,-13.10078643
1.11650,-11.57481439
1.11700,-10.65923117
1.11750,-9.743647947
1.11800,-8.828064724
1.11850,-9.133259131
1.11900,-9.743647947
1.11950,-10.04884235
1.12000,-10.04884235
1.12050,-10.65923117
1.12100,-11.8800088
1.12150,-12.49039762
1.12200,-11.8800088
1.12250,-10.65923117
1.12300,-9.133259131
1.12350,-7.302092685
1.12400,-5.165731831
1.12450,-4.250148608
1.12500,-4.555343016
1.12550,-4.860537424
1.12600,-3.639759793
1.12650,-2.418982162
1.12700,-2.113787754
1.12750,-2.418982162
1.12800,-1.808593347
1.12850,-1.503398939
1.12900,-1.808593347
1.12950,-2.72417657
1.13000,-2.113787754
1.13050,-0.8930101235
1.13100,-0.8930101235
1.13150,-1.198204531
1.13200,-0.2826213081
1.13250,0.632961915
1.13300,0.9381563227
1.13350,-0.2826213081
1.13400,-0.5878157158
1.13450,0.9381563227
1.13500,3.074517177
1.13550,3.684905992
1.13600,3.074517177
1.13650,3.074517177
1.13700,3.684905992
1.13750,4.600489215
1.13800,4.295294807
1.13850,3.074517177
1.13900,2.158933954
1.13950,2.464128361
1.14000,2.769322769
1.14050,2.158933954
1.14100,0.3277675073
1.14150,-0.5878157158
1.14200,0.02257309962
1.14250,0.3277675073
1.14300,0.02257309962
1.14350,0.02257309962
1.14400,0.02257309962
1.14450,0.632961915
1.14500,0.02257309962
1.14550,-0.2826213081
1.14600,0.632961915
1.14650,1.853739546
1.14700,1.853739546
1.14750,0.632961915
1.14800,0.9381563227
1.14850,1.548545138
1.14900,0.9381563227
1.14950,0.02257309962
1.15000,0.632961915
1.15050,2.464128361
1.15100,3.379711584
1.15150,2.464128361
1.15200,1.548545138
1.15250,1.24335073
1.15300,1.24335073
1.15350,0.632961915
1.15400,0.632961915
1.15450,0.3277675073
1.15500,0.02257309962
1.15550,-0.2826213081
1.15600,0.3277675073
1.15650,1.853739546
1.15700,2.158933954
1.15750,2.158933954
1.15800,2.769322769
1.15850,3.684905992
1.15900,3.074517177
1.15950,0.632961915
1.16000,-0.8930101235
1.16050,-1.808593347
1.16100,-2.418982162
1.16150,-3.029370977
1.16200,-2.113787754
1.16250,0.02257309962
1.16300,1.548545138
1.16350,2.158933954
1.16400,2.464128361
1.16450,2.464128361
1.16500,1.548545138
1.16550,0.632961915
1.16600,1.24335073
1.16650,2.464128361
1.16700,3.074517177
1.16750,2.769322769
1.16800,3.684905992
1.16850,4.905683623
1.16900,5.210878031
1.16950,4.295294807
1.17000,4.600489215
1.17050,6.736850069
1.17100,7.347238884
1.17150,5.821266846
1.17200,4.295294807
1.17250,3.9901004
1.17300,4.600489215
1.17350,4.600489215
1.17400,4.295294807
1.17450,4.600489215
1.17500,4.905683623
1.17550,4.295294807
1.17600,3.379711584
1.17650,3.074517177
1.17700,3.379711584
1.17750,3.074517177
1.17800,2.769322769
1.17850,3.074517177
1.17900,3.379711584
1.17950,3.074517177
1.18000,2.464128361
1.18050,3.074517177
1.18100,3.9901004
1.18150,4.295294807
1.18200,3.9901004
1.18250,3.9901004
1.18300,4.600489215
1.18350,4.905683623
1.18400,4.295294807
1.18450,3.9901004
1.18500,4.905683623
1.18550,6.431655661
1.18600,6.736850069
1.18650,6.126461254
1.18700,6.431655661
1.18750,7.652433292
1.18800,8.873210923
1.18850,7.9576277
1.18900,6.126461254
1.18950,5.821266846
1.19000,5.821266846
1.19050,5.516072438
1.19100,4.600489215
1.19150,3.074517177
1.19200,1.548545138
1.19250,0.02257309962
1.19300,-2.418982162
1.19350,-3.9449542
1.19400,-4.555343016
1.19450,-4.555343016
1.19500,-4.555343016
1.19550,-4.555343016
1.19600,-4.250148608
1.19650,-4.250148608
1.19700,-4.555343016
1.19750,-4.555343016
1.19800,-4.555343016
1.19850,-4.555343016
1.19900,-4.250148608
1.19950,-3.9449542
1.20000,-2.72417657
1.20050,-2.418982162
1.20100,-3.639759793
1.20150,-5.776120647
1.20200,-8.217675908
1.20250,-9.743647947
1.20300,-10.96442558
1.20350,-11.8800088
1.20400,-11.57481439
1.20450,-10.35403676
1.20500,-9.743647947
1.20550,-10.65923117
1.20600,-12.18520321
1.20650,-12.79559202
1.20700,-11.57481439
1.20750,-9.438453539
1.20800,-8.217675908
1.20850,-7.912481501
1.20900,-7.302092685
1.20950,-6.69170387
1.21000,-6.081315054
1.21050,-5.470926239
1.21100,-4.555343016
1.21150,-4.250148608
1.21200,-4.860537424
1.21250,-5.776120647
1.21300,-5.776120647
1.21350,-4.250148608
1.21400,-2.72417657
1.21450,-3.029370977
1.21500,-4.555343016
1.21550,-5.165731831
1.21600,-3.9449542
1.21650,-2.418982162
1.21700,-1.503398939
1.21750,-1.808593347
1.21800,-1.808593347
1.21850,-1.808593347
1.21900,-2.72417657
1.21950,-5.165731831
1.22000,-7.912481501
1.22050,-9.438453539
1.22100,-9.133259131
1.22150,-7.912481501
1.22200,-6.081315054
1.22250,-4.250148608
1.22300,-3.639759793
1.22350,-3.639759793
1.22400,-2.72417657
1.22450,-0.2826213081
1.22500,1.24335073
1.22550,0.9381563227
1.22600,-0.5878157158
1.22650,-1.503398939
1.22700,-0.8930101235
1.22750,0.02257309962
1.22800,0.02257309962
1.22850,0.02257309962
1.22900,0.02257309962
1.22950,0.02257309962
1.23000,0.02257309962
1.23050,0.632961915
1.23100,1.853739546
1.23150,2.464128361
1.23200,2.464128361
1.23250,2.769322769
1.23300,3.074517177
1.23350,2.769322769
1.23400,2.158933954
1.23450,1.853739546
1.23500,1.548545138
1.23550,0.9381563227
1.23600,0.3277675073
1.23650,1.24335073
1.23700,2.464128361
1.23750,3.379711584
1.23800,3.379711584
1.23850,3.379711584
1.23900,3.074517177
1.23950,2.464128361
1.24000,1.548545138
1.24050,1.853739546
1.24100,2.464128361
1.24150,2.158933954
1.24200,1.24335073
1.24250,1.853739546
1.24300,3.684905992
1.24350,4.905683623
1.24400,4.600489215
1.24450,4.295294807
1.24500,4.600489215
1.24550,5.210878031
1.24600,5.210878031
1.24650,6.126461254
1.24700,7.9576277
1.24750,8.568016515
1.24800,6.431655661
1.24850,4.295294807
1.24900,4.905683623
1.24950,7.042044477
1.25000,7.652433292
1.25050,6.126461254
1.25100,5.210878031
1.25150,5.516072438
1.25200,6.126461254
1.25250,5.516072438
1.25300,4.905683623
1.25350,5.516072438
1.25400,5.821266846
1.25450,5.210878031
1.25500,4.600489215
1.25550,4.295294807
1.25600,3.379711584
1.25650,2.158933954
1.25700,1.853739546
1.25750,1.853739546
1.25800,1.853739546
1.25850,0.9381563227
1.25900,0.02257309962
1.25950,0.3277675073
1.26000,1.24335073
1.26050,2.769322769
1.26100,5.210878031
1.26150,7.347238884
1.26200,7.042044477
1.26250,4.905683623
1.26300,3.074517177
1.26350,2.158933954
1.26400,1.548545138
1.26450,0.9381563227
1.26500,1.548545138
1.26550,3.9901004
1.26600,5.516072438
1.26650,5.516072438
1.26700,5.516072438
1.26750,7.652433292
1.26800,9.788794146
1.26850,10.09398855
1.26900,8.873210923
1.26950,8.262822108
1.27000,8.262822108
1.27050,7.652433292
1.27100,6.736850069
1.27150,7.347238884
1.27200,8.262822108
1.27250,8.262822108
1.27300,7.347238884
1.27350,7.347238884
1.27400,7.652433292
1.27450,7.042044477
1.27500,5.516072438
1.27550,4.295294807
1.27600,4.905683623
1.27650,4.905683623
1.27700,3.684905992
1.27750,1.548545138
1.27800,0.632961915
1.27850,0.9381563227
1.27900,0.9381563227
1.27950,0.9381563227
1.28000,0.632961915
1.28050,0.3277675073
1.28100,-0.5878157158
1.28150,-1.198204531
1.28200,-0.5878157158
1.28250,0.3277675073
1.28300,1.548545138
1.28350,1.853739546
1.28400,1.853739546
1.28450,1.548545138
1.28500,0.9381563227
1.28550,0.02257309962
1.28600,-1.198204531
1.28650,-2.113787754
1.28700,-3.029370977
1.28750,-4.555343016
1.28800,-6.69170387
1.28850,-8.217675908
1.28900,-8.522870316
1.28950,-7.302092685
1.29000,-5.776120647
1.29050,-5.165731831
1.29100,-5.470926239
1.29150,-4.555343016
1.29200,-3.029370977
1.29250,-1.808593347
1.29300,-2.418982162
1.29350,-3.9449542
1.29400,-4.555343016
1.29450,-4.860537424
1.29500,-6.081315054
1.29550,-7.302092685
1.29600,-7.912481501
1.29650,-6.996898278
1.29700,-5.776120647
1.29750,-4.860537424
1.29800,-4.555343016
1.29850,-4.860537424
1.29900,-5.776120647
1.29950,-6.996898278
1.30000,-6.996898278
1.30050,-6.69170387
1.30100,-6.69170387
1.30150,-6.996898278
1.30200,-6.69170387
1.30250,-5.165731831
1.30300,-3.334565385
1.30350,-1.808593347
1.30400,-0.8930101235
1.30450,-0.2826213081
1.30500,-0.2826213081
1.30550,-0.5878157158
1.30600,-0.5878157158
1.30650,-0.2826213081
1.30700,-0.5878157158
1.30750,-1.198204531
1.30800,-1.503398939
1.30850,-0.5878157158
1.30900,0.3277675073
1.30950,0.632961915
1.31000,0.02257309962
1.31050,-0.2826213081
1.31100,-0.5878157158
1.31150,-0.5878157158
1.31200,0.02257309962
1.31250,0.3277675073
1.31300,0.3277675073
1.31350,0.02257309962
1.31400,0.02257309962
1.31450,1.24335073
1.31500,3.684905992
1.31550,4.905683623
1.31600,4.295294807
1.31650,3.074517177
1.31700,2.769322769
1.31750,3.684905992
1.31800,3.9901004
1.31850,3.9901004
1.31900,4.295294807
1.31950,4.905683623
1.32000,5.210878031
1.32050,4.905683623
1.32100,4.295294807
1.32150,3.9901004
1.32200,3.379711584
1.32250,2.769322769
1.32300,2.158933954
1.32350,2.158933954
1.32400,2.464128361
1.32450,2.158933954
1.32500,1.24335073
1.32550,0.3277675073
1.32600,0.3277675073
1.32650,1.24335073
1.32700,1.24335073
1.32750,0.632961915
1.32800,0.02257309962
1.32850,0.9381563227
1.32900,2.769322769
1.32950,3.074517177
1.33000,1.853739546
1.33050,0.3277675073
1.33100,0.02257309962
1.33150,0.02257309962
1.33200,-0.2826213081
1.33250,-0.8930101235
1.33300,-1.198204531
1.33350,-2.113787754
1.33400,-3.029370977
1.33450,-3.029370977
1.33500,-0.5878157158
1.33550,1.853739546
1.33600,3.074517177
1.33650,1.853739546
1.33700,1.24335073
1.33750,1.548545138
1.33800,1.548545138
1.33850,0.3277675073
1.33900,-0.2826213081
1.33950,0.02257309962
1.34000,2.464128361
1.34050,3.9901004
1.34100,3.9901004
1.34150,4.295294807
1.34200,5.210878031
1.34250,6.431655661
1.34300,6.431655661
1.34350,5.210878031
1.34400,3.9901004
1.34450,2.464128361
1.34500,0.632961915
1.34550,-1.503398939
1.34600,-3.029370977
1.34650,-3.029370977
1.34700,-1.198204531
1.34750,0.02257309962
1.34800,0.3277675073
1.34850,0.3277675073
1.34900,0.632961915
1.34950,0.9381563227
1.35000,0.9381563227
1.35050,0.632961915
1.35100,0.02257309962
1.35150,-0.2826213081
1.35200,-0.8930101235
1.35250,-1.503398939
1.35300,-1.808593347
1.35350,-2.418982162
1.35400,-3.334565385
1.35450,-4.555343016
1.35500,-5.776120647
1.35550,-7.302092685
1.35600,-8.828064724
1.35650,-10.65923117
1.35700,-12.79559202
1.35750,-14.93195288
1.35800,-17.37350814
1.35850,-19.20467459
1.35900,-19.50986899
1.35950,-17.67870255
1.36000,-14.32156406
1.36050,-10.65923117
1.36100,-7.912481501
1.36150,-6.69170387
1.36200,-6.69170387
1.36250,-7.302092685
1.36300,-7.912481501
1.36350,-7.912481501
1.36400,-7.607287093
1.36450,-6.69170387
1.36500,-6.386509462
1.36550,-6.081315054
1.36600,-5.776120647
1.36650,-6.386509462
1.36700,-7.607287093
1.36750,-9.133259131
1.36800,-9.438453539
1.36850,-9.133259131
1.36900,-9.743647947
1.36950,-10.96442558
1.37000,-11.26961999
1.37050,-9.743647947
1.37100,-7.302092685
1.37150,-6.081315054
1.37200,-5.470926239
1.37250,-5.165731831
1.37300,-5.165731831
1.37350,-5.165731831
1.37400,-5.165731831
1.37450,-4.250148608
1.37500,-3.029370977
1.37550,-2.113787754
1.37600,-0.8930101235
1.37650,0.3277675073
1.37700,1.548545138
1.37750,1.24335073
1.37800,1.548545138
1.37850,3.379711584
1.37900,5.516072438
1.37950,5.821266846
1.38000,5.210878031
1.38050,4.905683623
1.38100,5.821266846
1.38150,6.126461254
1.38200,4.905683623
1.38250,3.684905992
1.38300,3.684905992
1.38350,4.295294807
1.38400,3.9901004
1.38450,3.379711584
1.38500,2.769322769
1.38550,2.769322769
1.38600,3.074517177
1.38650,2.769322769
1.38700,1.548545138
1.38750,0.3277675073
1.38800,0.632961915
1.38850,2.769322769
1.38900,5.516072438
1.38950,7.652433292
1.39000,8.262822108
1.39050,7.652433292
1.39100,7.042044477
1.39150,6.126461254
1.39200,4.905683623
1.39250,3.684905992
1.39300,3.379711584
1.39350,3.684905992
1.39400,3.379711584
1.39450,2.464128361
1.39500,0.9381563227
1.39550,0.02257309962
1.39600,-0.2826213081
1.39650,-0.5878157158
1.39700,-1.503398939
1.39750,-1.808593347
1.39800,-1.198204531
1.39850,0.632961915
1.39900,2.158933954
1.39950,2.769322769
1.40000,2.158933954
1.40050,0.9381563227
1.40100,0.02257309962
1.40150,-1.503398939
1.40200,-3.029370977
1.40250,-4.555343016
1.40300,-6.081315054
1.40350,-6.081315054
1.40400,-3.9449542
1.40450,-0.5878157158
1.40500,1.548545138
1.40550,3.074517177
1.40600,4.295294807
1.40650,5.210878031
1.40700,5.821266846
1.40750,5.821266846
1.40800,5.516072438
1.40850,5.821266846
1.40900,6.736850069
1.40950,7.347238884
1.41000,7.652433292
1.41050,7.652433292
1.41100,7.652433292
1.41150,6.736850069
1.41200,5.516072438
1.41250,3.9901004
1.41300,2.769322769
1.41350,2.464128361
1.41400,3.074517177
1.41450,3.684905992
1.41500,3.074517177
1.41550,0.632961915
1.41600,-1.503398939
1.41650,-2.418982162
1.41700,-2.418982162
1.41750,-2.72417657
1.41800,-3.639759793
1.41850,-3.334565385
1.41900,-2.418982162
1.41950,-2.418982162
1.42000,-4.860537424
1.42050,-7.912481501
1.42100,-9.743647947
1.42150,-9.438453539
1.42200,-9.743647947
1.42250,-10.65923117
1.42300,-12.18520321
1.42350,-13.40598084
1.42400,-14.62675847
1.42450,-14.93195288
1.42500,-13.71117525
1.42550,-11.57481439
1.42600,-9.438453539
1.42650,-7.912481501
1.42700,-6.386509462
1.42750,-4.860537424
1.42800,-3.9449542
1.42850,-3.639759793
1.42900,-2.418982162
1.42950,-0.2826213081
1.43000,0.9381563227
1.43050,1.24335073
1.43100,1.24335073
1.43150,2.158933954
1.43200,3.379711584
1.43250,3.9901004
1.43300,4.295294807
1.43350,4.600489215
1.43400,4.600489215
1.43450,3.9901004
1.43500,3.684905992
1.43550,4.295294807
1.43600,4.295294807
1.43650,3.379711584
1.43700,3.074517177
1.43750,4.295294807
1.43800,5.516072438
1.43850,4.905683623
1.43900,3.9901004
1.43950,4.600489215
1.44000,5.516072438
1.44050,5.516072438
1.44100,4.295294807
1.44150,4.905683623
1.44200,7.042044477
1.44250,8.568016515
1.44300,8.873210923
1.44350,9.483599738
1.44400,10.70437737
1.44450,11.61996059
1.44500,11.31476618
1.44550,10.09398855
1.44600,9.483599738
1.44650,9.483599738
1.44700,9.483599738
1.44750,9.788794146
1.44800,10.39918296
1.44850,10.09398855
1.44900,9.788794146
1.44950,10.09398855
1.45000,11.00957178
1.45050,11.925155
1.45100,11.61996059
1.45150,11.00957178
1.45200,11.925155
1.45250,13.45112704
1.45300,14.06151585
1.45350,12.84073822
1.45400,10.70437737
1.45450,8.568016515
1.45500,6.431655661
1.45550,4.600489215
1.45600,2.464128361
1.45650,0.632961915
1.45700,-0.5878157158
1.45750,-1.198204531
1.45800,-1.808593347
1.45850,-2.72417657
1.45900,-3.639759793
1.45950,-3.9449542
1.46000,-3.334565385
1.46050,-2.113787754
1.46100,-1.808593347
1.46150,-1.808593347
1.46200,-1.808593347
1.46250,-2.113787754
1.46300,-2.113787754
1.46350,-1.808593347
1.46400,-2.113787754
1.46450,-3.334565385
1.46500,-4.555343016
1.46550,-4.555343016
1.46600,-4.250148608
1.46650,-4.860537424
1.46700,-5.776120647
1.46750,-5.470926239
1.46800,-3.639759793
1.46850,-3.639759793
1.46900,-5.470926239
1.46950,-6.69170387
1.47000,-5.470926239
1.47050,-3.639759793
1.47100,-4.250148608
1.47150,-5.165731831
1.47200,-4.860537424
1.47250,-3.639759793
1.47300,-3.334565385
1.47350,-3.334565385
1.47400,-2.72417657
1.47450,-2.72417657
1.47500,-4.250148608
1.47550,-6.081315054
1.47600,-5.470926239
1.47650,-2.418982162
1.47700,-0.2826213081
1.47750,0.02257309962
1.47800,0.3277675073
1.47850,0.9381563227
1.47900,1.853739546
1.47950,2.464128361
1.48000,2.769322769
1.48050,2.464128361
1.48100,0.9381563227
1.48150,-0.2826213081
1.48200,-0.2826213081
1.48250,1.24335073
1.48300,2.464128361
1.48350,1.24335073
1.48400,-0.2826213081
1.48450,-0.5878157158
1.48500,0.3277675073
1.48550,1.548545138
1.48600,1.853739546
1.48650,0.9381563227
1.48700,-0.2826213081
1.48750,-2.418982162
1.48800,-3.334565385
1.48850,-2.418982162
1.48900,-0.2826213081
1.48950,0.3277675073
1.49000,0.02257309962
1.49050,-1.198204531
1.49100,-2.418982162
1.49150,-3.334565385
1.49200,-4.555343016
1.49250,-4.250148608
1.49300,-2.72417657
1.49350,-1.198204531
1.49400,-0.8930101235
1.49450,-0.8930101235
1.49500,-0.8930101235
1.49550,-0.8930101235
1.49600,-1.503398939
1.49650,-2.113787754
1.49700,-0.8930101235
1.49750,0.9381563227
1.49800,1.548545138
1.49850,0.632961915
1.49900,0.02257309962
1.49950,1.24335073
1.50000,3.074517177
1.50050,4.295294807
1.50100,4.905683623
1.50150,5.516072438
1.50200,6.126461254
1.50250,5.210878031
1.50300,3.9901004
1.50350,3.684905992
1.50400,3.379711584
1.50450,2.769322769
1.50500,1.853739546
1.50550,2.158933954
1.50600,2.464128361
1.50650,2.158933954
1.50700,0.9381563227
1.50750,0.3277675073
1.50800,0.9381563227
1.50850,1.24335073
1.50900,0.9381563227
1.50950,0.3277675073
1.51000,0.02257309962
1.51050,0.3277675073
1.51100,0.9381563227
1.51150,1.853739546
1.51200,3.074517177
1.51250,2.769322769
1.51300,1.548545138
1.51350,1.853739546
1.51400,3.9901004
1.51450,6.736850069
1.51500,7.9576277
1.51550,8.568016515
1.51600,8.873210923
1.51650,9.178405331
1.51700,8.568016515
1.51750,7.9576277
1.51800,9.178405331
1.51850,11.00957178
1.51900,10.09398855
1.51950,6.736850069
1.52000,4.295294807
1.52050,4.600489215
1.52100,6.126461254
1.52150,6.126461254
1.52200,4.905683623
1.52250,4.905683623
1.52300,6.736850069
1.52350,9.483599738
1.52400,11.925155
1.52450,14.67190467
1.52500,16.80826552
1.52550,16.50307112
1.52600,14.06151585
1.52650,11.925155
1.52700,11.31476618
1.52750,10.09398855
1.52800,6.736850069
1.52850,3.379711584
1.52900,1.853739546
1.52950,1.548545138
1.53000,0.3277675073
1.53050,-1.198204531
1.53100,-1.503398939
1.53150,-0.8930101235
1.53200,-0.5878157158
1.53250,-0.5878157158
1.53300,-0.5878157158
1.53350,-0.8930101235
1.53400,-2.418982162
1.53450,-5.165731831
1.53500,-6.69170387
1.53550,-7.912481501
1.53600,-10.65923117
1.53650,-13.71117525
1.53700,-15.23714729
1.53750,-14.32156406
1.53800,-13.40598084
1.53850,-14.32156406
1.53900,-14.93195288
1.53950,-14.32156406
1.54000,-13.40598084
1.54050,-13.71117525
1.54100,-14.93195288
1.54150,-14.62675847
1.54200,-13.40598084
1.54250,-11.8800088
1.54300,-10.04884235
1.54350,-7.912481501
1.54400,-5.470926239
1.54450,-3.334565385
1.54500,-0.8930101235
1.54550,0.632961915
1.54600,1.853739546
1.54650,1.548545138
1.54700,1.24335073
1.54750,1.24335073
1.54800,1.853739546
1.54850,3.074517177
1.54900,4.905683623
1.54950,6.126461254
1.55000,6.431655661
1.55050,5.516072438
1.55100,3.684905992
1.55150,1.548545138
1.55200,-0.8930101235
1.55250,-2.72417657
1.55300,-3.334565385
1.55350,-3.639759793
1.55400,-5.776120647
1.55450,-9.133259131
1.55500,-11.26961999
1.55550,-12.49039762
1.55600,-13.71117525
1.55650,-15.23714729
1.55700,-15.8475361
1.55750,-14.93195288
1.55800,-15.54234169
1.55850,-18.59428577
1.55900,-21.64622985
1.55950,-22.25661866
1.56000,-21.95142425
1.56050,-21.64622985
1.56100,-20.73064662
1.56150,-18.28909136
1.56200,-15.8475361
1.56250,-14.62675847
1.56300,-13.71117525
1.56350,-11.8800088
1.56400,-10.04884235
1.56450,-9.438453539
1.56500,-9.133259131
1.56550,-6.69170387
1.56600,-3.9449542
1.56650,-2.72417657
1.56700,-3.334565385
1.56750,-3.334565385
1.56800,-1.198204531
1.56850,0.3277675073
1.56900,1.548545138
1.56950,1.548545138
1.57000,1.853739546
1.57050,1.548545138
1.57100,0.632961915
1.57150,0.632961915
1.57200,1.548545138
1.57250,1.853739546
1.57300,1.548545138
1.57350,0.9381563227
1.57400,1.24335073
1.57450,1.853739546
1.57500,1.853739546
1.57550,2.158933954
1.57600,3.074517177
1.57650,3.379711584
1.57700,2.464128361
1.57750,1.853739546
1.57800,2.158933954
1.57850,3.074517177
1.57900,3.379711584
1.57950,2.769322769
1.58000,3.379711584
1.58050,4.905683623
1.58100,6.126461254
1.58150,5.210878031
1.58200,4.295294807
1.58250,4.905683623
1.58300,6.736850069
1.58350,8.262822108
1.58400,7.652433292
1.58450,6.126461254
1.58500,4.600489215
1.58550,3.684905992
1.58600,3.379711584
1.58650,2.769322769
1.58700,2.464128361
1.58750,2.464128361
1.58800,2.769322769
1.58850,2.769322769
1.58900,2.769322769
1.58950,3.074517177
1.59000,3.379711584
1.59050,3.379711584
1.59100,4.295294807
1.59150,5.821266846
1.59200,6.736850069
1.59250,6.431655661
1.59300,4.600489215
1.59350,3.684905992
1.59400,4.295294807
1.59450,5.516072438
1.59500,5.821266846
1.59550,5.821266846
1.59600,5.210878031
1.59650,4.905683623
1.59700,4.295294807
1.59750,4.600489215
1.59800,6.736850069
1.59850,9.483599738
1.59900,11.00957178
1.59950,11.00957178
1.60000,11.61996059
1.60050,13.45112704
1.60100,15.28229348
1.60150,15.28229348
1.60200,14.97709908
1.60250,14.67190467
1.60300,14.36671026
1.60350,12.84073822
1.60400,10.09398855
1.60450,7.347238884
1.60500,4.905683623
1.60550,2.464128361
1.60600,0.02257309962
1.60650,-0.8930101235
1.60700,-0.5878157158
1.60750,0.3277675073
1.60800,0.3277675073
1.60850,-1.503398939
1.60900,-5.165731831
1.60950,-7.607287093
1.61000,-7.912481501
1.61050,-7.302092685
1.61100,-7.912481501
1.61150,-9.133259131
1.61200,-9.133259131
1.61250,-7.607287093
1.61300,-7.607287093
1.61350,-9.438453539
1.61400,-10.96442558
1.61450,-10.04884235
1.61500,-8.217675908
1.61550,-7.607287093
1.61600,-7.607287093
1.61650,-6.386509462
1.61700,-4.860537424
1.61750,-4.860537424
1.61800,-4.860537424
1.61850,-3.029370977
1.61900,0.02257309962
1.61950,2.464128361
1.62000,2.464128361
1.62050,1.24335073
1.62100,-0.5878157158
1.62150,-2.72417657
1.62200,-4.250148608
1.62250,-4.555343016
1.62300,-4.250148608
1.62350,-4.555343016
1.62400,-4.555343016
1.62450,-3.639759793
1.62500,-2.418982162
1.62550,-2.418982162
1.62600,-3.9449542
1.62650,-5.165731831
1.62700,-5.776120647
1.62750,-6.69170387
1.62800,-9.743647947
1.62850,-14.01636965
1.62900,-16.76311932
1.62950,-17.06831373
1.63000,-16.15273051
1.63050,-15.23714729
1.63100,-14.93195288
1.63150,-14.32156406
1.63200,-12.79559202
1.63250,-11.26961999
1.63300,-10.35403676
1.63350,-9.743647947
1.63400,-8.522870316
1.63450,-6.386509462
1.63500,-4.555343016
1.63550,-4.555343016
1.63600,-6.996898278
1.63650,-9.743647947
1.63700,-11.26961999
1.63750,-10.65923117
1.63800,-9.133259131
1.63850,-9.133259131
1.63900,-10.96442558
1.63950,-12.49039762
1.64000,-11.8800088
1.64050,-9.743647947
1.64100,-8.828064724
1.64150,-9.743647947
1.64200,-10.35403676
1.64250,-7.912481501
1.64300,-4.860537424
1.64350,-3.639759793
1.64400,-2.418982162
1.64450,0.02257309962
1.64500,2.158933954
1.64550,1.24335073
1.64600,-1.198204531
1.64650,-1.503398939
1.64700,1.24335073
1.64750,4.295294807
1.64800,4.295294807
1.64850,3.684905992
1.64900,4.295294807
1.64950,5.821266846
1.65000,6.126461254
1.65050,5.821266846
1.65100,6.126461254
1.65150,6.431655661
1.65200,6.431655661
1.65250,5.821266846
1.65300,6.431655661
1.65350,6.736850069
1.65400,5.821266846
1.65450,4.905683623
1.65500,6.126461254
1.65550,7.9576277
1.65600,8.262822108
1.65650,6.736850069
1.65700,5.821266846
1.65750,6.431655661
1.65800,7.042044477
1.65850,6.736850069
1.65900,6.431655661
1.65950,7.347238884
1.66000,8.873210923
1.66050,9.178405331
1.66100,7.652433292
1.66150,5.210878031
1.66200,3.684905992
1.66250,3.379711584
1.66300,3.9901004
1.66350,5.210878031
1.66400,6.126461254
1.66450,6.126461254
1.66500,5.821266846
1.66550,6.126461254
1.66600,7.042044477
1.66650,7.9576277
1.66700,9.178405331
1.66750,11.61996059
1.66800,14.36671026
1.66850,15.8926823
1.66900,14.97709908
1.66950,13.75632145
1.67000,14.67190467
1.67050,16.50307112
1.67100,18.02904315
1.67150,18.63943197
1.67200,19.24982078
1.67250,19.55501519
1.67300,19.24982078
1.67350,18.02904315
1.67400,17.72384875
1.67450,18.33423756
1.67500,18.33423756
1.67550,17.11345993
1.67600,16.50307112
1.67650,16.50307112
1.67700,16.50307112
1.67750,14.97709908
1.67800,13.14593263
1.67850,10.39918296
1.67900,6.126461254
1.67950,1.548545138
1.68000,-0.8930101235
1.68050,-1.198204531
1.68100,-1.198204531
1.68150,-2.113787754
1.68200,-2.418982162
1.68250,-0.5878157158
1.68300,1.853739546
1.68350,3.684905992
1.68400,5.210878031
1.68450,7.042044477
1.68500,8.262822108
1.68550,7.652433292
1.68600,5.516072438
1.68650,3.379711584
1.68700,0.9381563227
1.68750,-1.503398939
1.68800,-3.639759793
1.68850,-3.639759793
1.68900,-2.113787754
1.68950,-0.5878157158
1.69000,-0.5878157158
1.69050,-1.808593347
1.69100,-3.639759793
1.69150,-5.165731831
1.69200,-6.386509462
1.69250,-7.912481501
1.69300,-9.743647947
1.69350,-12.18520321
1.69400,-14.01636965
1.69450,-14.93195288
1.69500,-14.93195288
1.69550,-15.23714729
1.69600,-15.8475361
1.69650,-17.37350814
1.69700,-20.12025781
1.69750,-23.7825907
1.69800,-27.750118
1.69850,-31.10725649
1.69900,-34.15920056
1.69950,-35.37997819
1.70000,-35.07478379
1.70050,-32.63322852
1.70100,-29.27609004
1.70150,-25.61375715
1.70200,-21.95142425
1.70250,-19.50986899
1.70300,-19.50986899
1.70350,-20.73064662
1.70400,-21.34103544
1.70450,-19.50986899
1.70500,-17.37350814
1.70550,-15.8475361
1.70600,-14.32156406
1.70650,-12.79559202
1.70700,-10.65923117
1.70750,-9.743647947
1.70800,-9.743647947
1.70850,-9.743647947
1.70900,-9.133259131
1.70950,-6.386509462
1.71000,-3.334565385
1.71050,-0.8930101235
1.71100,0.02257309962
1.71150,0.9381563227
1.71200,2.158933954
1.71250,3.379711584
1.71300,3.684905992
1.71350,3.684905992
1.71400,3.9901004
1.71450,4.905683623
1.71500,5.821266846
1.71550,6.126461254
1.71600,6.431655661
1.71650,6.431655661
1.71700,5.821266846
1.71750,5.210878031
1.71800,6.126461254
1.71850,7.347238884
1.71900,7.347238884
1.71950,6.431655661
1.72000,7.042044477
1.72050,9.178405331
1.72100,9.788794146
1.72150,8.873210923
1.72200,9.178405331
1.72250,11.31476618
1.72300,14.06151585
1.72350,14.67190467
1.72400,14.06151585
1.72450,14.97709908
1.72500,17.11345993
1.72550,18.63943197
1.72600,18.63943197
1.72650,17.72384875
1.72700,17.11345993
1.72750,16.80826552
1.72800,16.19787671
1.72850,15.28229348
1.72900,14.36671026
1.72950,14.06151585
1.73000,13.75632145
1.73050,13.75632145
1.73100,13.45112704
1.73150,13.14593263
1.73200,12.23034941
1.73250,10.39918296
1.73300,7.347238884
1.73350,6.126461254
1.73400,7.347238884
1.73450,8.568016515
1.73500,7.347238884
1.73550,4.905683623
1.73600,3.9901004
1.73650,4.295294807
1.73700,2.464128361
1.73750,-2.113787754
1.73800,-6.081315054
1.73850,-7.912481501
1.73900,-7.912481501
1.73950,-8.217675908
1.74000,-8.217675908
1.74050,-6.386509462
1.74100,-4.860537424
1.74150,-4.555343016
1.74200,-5.165731831
1.74250,-6.081315054
1.74300,-6.081315054
1.74350,-5.470926239
1.74400,-4.555343016
1.74450,-3.029370977
1.74500,-2.418982162
1.74550,-3.029370977
1.74600,-3.9449542
1.74650,-3.9449542
1.74700,-3.9449542
1.74750,-4.555343016
1.74800,-4.555343016
1.74850,-3.334565385
1.74900,-1.198204531
1.74950,0.02257309962
1.75000,0.632961915
1.75050,0.632961915
1.75100,1.548545138
1.75150,3.074517177
1.75200,4.295294807
1.75250,4.905683623
1.75300,5.210878031
1.75350,5.516072438
1.75400,5.210878031
1.75450,4.600489215
1.75500,3.9901004
1.75550,3.9901004
1.75600,4.905683623
1.75650,5.210878031
1.75700,4.600489215
1.75750,4.295294807
1.75800,4.905683623
1.75850,5.821266846
1.75900,5.821266846
1.75950,6.126461254
1.76000,7.042044477
1.76050,8.262822108
1.76100,8.262822108
1.76150,7.347238884
1.76200,7.042044477
1.76250,6.736850069
1.76300,6.126461254
1.76350,4.295294807
1.76400,3.379711584
1.76450,3.379711584
1.76500,3.9901004
1.76550,3.9901004
1.76600,3.9901004
1.76650,5.210878031
1.76700,7.042044477
1.76750,7.9576277
1.76800,7.652433292
1.76850,7.347238884
1.76900,7.9576277
1.76950,9.178405331
1.77000,9.483599738
1.77050,9.483599738
1.77100,9.788794146
1.77150,10.09398855
1.77200,10.09398855
1.77250,9.483599738
1.77300,8.568016515
1.77350,7.9576277
1.77400,6.431655661
1.77450,3.9901004
1.77500,2.769322769
1.77550,3.684905992
1.77600,5.821266846
1.77650,6.126461254
1.77700,3.684905992
1.77750,0.02257309962
1.77800,-1.808593347
1.77850,-1.503398939
1.77900,-0.8930101235
1.77950,0.02257309962
1.78000,0.632961915
1.78050,0.632961915
1.78100,-0.5878157158
1.78150,-2.72417657
1.78200,-4.555343016
1.78250,-6.386509462
1.78300,-8.828064724
1.78350,-11.57481439
1.78400,-13.40598084
1.78450,-14.93195288
1.78500,-17.06831373
1.78550,-19.20467459
1.78600,-19.20467459
1.78650,-17.06831373
1.78700,-15.23714729
1.78750,-14.62675847
1.78800,-14.01636965
1.78850,-12.49039762
1.78900,-11.26961999
1.78950,-11.26961999
1.79000,-11.26961999
1.79050,-8.828064724
1.79100,-4.250148608
1.79150,0.02257309962
1.79200,2.158933954
1.79250,2.769322769
1.79300,2.464128361
1.79350,2.464128361
1.79400,3.074517177
1.79450,4.295294807
1.79500,5.210878031
1.79550,4.600489215
1.79600,3.684905992
1.79650,3.684905992
1.79700,4.600489215
1.79750,5.516072438
1.79800,6.126461254
1.79850,6.431655661
1.79900,6.431655661
1.79950,6.431655661
1.80000,6.126461254
1.80050,5.821266846
1.80100,4.295294807
1.80150,2.158933954
1.80200,0.3277675073
1.80250,0.02257309962
1.80300,0.02257309962
1.80350,-0.5878157158
1.80400,-2.418982162
1.80450,-3.334565385
1.80500,-3.639759793
1.80550,-4.250148608
1.80600,-5.776120647
1.80650,-7.607287093
1.80700,-9.133259131
1.80750,-9.743647947
1.80800,-9.743647947
1.80850,-9.743647947
1.80900,-11.57481439
1.80950,-14.01636965
1.81000,-14.93195288
1.81050,-14.01636965
1.81100,-13.10078643
1.81150,-13.71117525
1.81200,-13.71117525
1.81250,-11.57481439
1.81300,-10.04884235
1.81350,-11.26961999
1.81400,-12.79559202
1.81450,-11.8800088
1.81500,-9.438453539
1.81550,-8.217675908
1.81600,-8.217675908
1.81650,-7.607287093
1.81700,-5.776120647
1.81750,-4.250148608
1.81800,-3.9449542
1.81850,-3.639759793
1.81900,-2.72417657
1.81950,-1.808593347
1.82000,-0.8930101235
1.82050,0.9381563227
1.82100,3.379711584
1.82150,4.600489215
1.82200,4.600489215
1.82250,3.9901004
1.82300,3.9901004
1.82350,2.769322769
1.82400,0.02257309962
1.82450,-3.029370977
1.82500,-5.470926239
1.82550,-5.470926239
1.82600,-3.334565385
1.82650,0.02257309962
1.82700,2.158933954
1.82750,2.464128361
1.82800,2.158933954
1.82850,2.769322769
1.82900,3.379711584
1.82950,2.158933954
1.83000,-0.5878157158
1.83050,-2.72417657
1.83100,-3.029370977
1.83150,-2.418982162
1.83200,-1.808593347
1.83250,-0.8930101235
1.83300,0.02257309962
1.83350,1.24335073
1.83400,1.24335073
1.83450,0.02257309962
1.83500,-2.113787754
1.83550,-5.470926239
1.83600,-8.217675908
1.83650,-9.133259131
1.83700,-8.828064724
1.83750,-8.522870316
1.83800,-8.217675908
1.83850,-7.607287093
1.83900,-7.302092685
1.83950,-8.217675908
1.84000,-8.217675908
1.84050,-5.776120647
1.84100,-2.113787754
1.84150,-0.2826213081
1.84200,-1.198204531
1.84250,-2.418982162
1.84300,-2.72417657
1.84350,-3.029370977
1.84400,-3.9449542
1.84450,-4.250148608
1.84500,-3.334565385
1.84550,-1.808593347
1.84600,-0.8930101235
1.84650,0.02257309962
1.84700,1.853739546
1.84750,3.684905992
1.84800,5.210878031
1.84850,6.431655661
1.84900,7.347238884
1.84950,7.652433292
1.85000,7.347238884
1.85050,7.652433292
1.85100,9.178405331
1.85150,11.61996059
1.85200,14.06151585
1.85250,15.8926823
1.85300,16.50307112
1.85350,15.8926823
1.85400,15.58748789
1.85450,16.19787671
1.85500,16.50307112
1.85550,15.8926823
1.85600,14.67190467
1.85650,13.45112704
1.85700,13.14593263
1.85750,14.36671026
1.85800,16.19787671
1.85850,18.33423756
1.85900,18.94462638
1.85950,18.63943197
1.86000,19.55501519
1.86050,22.91215368
1.86100,27.18487539
1.86150,29.32123624
1.86200,29.93162505
1.86250,30.54201387
1.86300,30.54201387
1.86350,29.01604183
1.86400,25.35370894
1.86450,20.47059842
1.86500,15.28229348
1.86550,10.70437737
1.86600,7.347238884
1.86650,5.516072438
1.86700,2.464128361
1.86750,-2.418982162
1.86800,-7.302092685
1.86850,-8.828064724
1.86900,-6.996898278
1.86950,-4.555343016
1.87000,-2.418982162
1.87050,-0.2826213081
1.87100,0.3277675073
1.87150,-0.8930101235
1.87200,-3.029370977
1.87250,-3.639759793
1.87300,-3.639759793
1.87350,-5.470926239
1.87400,-9.438453539
1.87450,-12.18520321
1.87500,-13.71117525
1.87550,-17.06831373
1.87600,-22.86700748
1.87650,-27.13972919
1.87700,-27.13972919
1.87750,-25.91895156
1.87800,-25.61375715
1.87850,-25.61375715
1.87900,-24.39297952
1.87950,-22.56181307
1.88000,-21.64622985
1.88050,-20.73064662
1.88100,-18.28909136
1.88150,-14.62675847
1.88200,-12.18520321
1.88250,-11.57481439
1.88300,-11.8800088
1.88350,-11.57481439
1.88400,-11.26961999
1.88450,-11.57481439
1.88500,-12.49039762
1.88550,-13.71117525
1.88600,-14.32156406
1.88650,-14.01636965
1.88700,-12.79559202
1.88750,-11.26961999
1.88800,-9.133259131
1.88850,-5.776120647
1.88900,-1.503398939
1.88950,1.548545138
1.89000,3.379711584
1.89050,4.295294807
1.89100,3.9901004
1.89150,2.769322769
1.89200,1.548545138
1.89250,2.769322769
1.89300,6.431655661
1.89350,8.873210923
1.89400,7.347238884
1.89450,3.379711584
1.89500,0.632961915
1.89550,0.02257309962
1.89600,0.02257309962
1.89650,-0.2826213081
1.89700,-1.808593347
1.89750,-3.9449542
1.89800,-6.386509462
1.89850,-8.217675908
1.89900,-8.522870316
1.89950,-7.912481501
1.90000,-7.607287093
1.90050,-8.217675908
1.90100,-8.217675908
1.90150,-7.302092685
1.90200,-6.996898278
1.90250,-7.607287093
1.90300,-8.828064724
1.90350,-9.133259131
1.90400,-8.828064724
1.90450,-8.217675908
1.90500,-7.607287093
1.90550,-6.69170387
1.90600,-4.860537424
1.90650,-2.418982162
1.90700,0.02257309962
1.90750,2.158933954
1.90800,3.379711584
1.90850,4.295294807
1.90900,6.431655661
1.90950,8.262822108
1.91000,9.483599738
1.91050,10.39918296
1.91100,12.84073822
1.91150,15.8926823
1.91200,17.41865434
1.91250,17.72384875
1.91300,18.33423756
1.91350,20.16540401
1.91400,21.69137605
1.91450,21.38618164
1.91500,20.77579282
1.91550,20.47059842
1.91600,20.77579282
1.91650,21.08098723
1.91700,21.99657045
1.91750,24.13293131
1.91800,25.96409775
1.91850,27.49006979
1.91900,29.01604183
1.91950,29.93162505
1.92000,28.71084742
1.92050,24.74332012
1.92100,21.38618164
1.92150,20.47059842
1.92200,21.38618164
1.92250,21.99657045
1.92300,20.16540401
1.92350,16.80826552
1.92400,12.84073822
1.92450,10.09398855
1.92500,9.178405331
1.92550,10.09398855
1.92600,10.70437737
1.92650,9.483599738
1.92700,7.042044477
1.92750,5.210878031
1.92800,4.295294807
1.92850,3.684905992
1.92900,0.9381563227
1.92950,-3.9449542
1.93000,-10.04884235
1.93050,-14.93195288
1.93100,-17.06831373
1.93150,-17.06831373
1.93200,-16.15273051
1.93250,-14.62675847
1.93300,-13.71117525
1.93350,-14.01636965
1.93400,-15.23714729
1.93450,-14.62675847
1.93500,-12.18520321
1.93550,-10.96442558
1.93600,-13.40598084
1.93650,-18.59428577
1.93700,-21.95142425
1.93750,-21.64622985
1.93800,-20.42545222
1.93850,-20.73064662
1.93900,-23.17220189
1.93950,-25.91895156
1.94000,-27.750118
1.94050,-28.05531241
1.94100,-27.750118
1.94150,-26.83453478
1.94200,-25.00336833
1.94250,-21.64622985
1.94300,-18.59428577
1.94350,-16.76311932
1.94400,-16.15273051
1.94450,-15.23714729
1.94500,-13.71117525
1.94550,-13.71117525
1.94600,-16.15273051
1.94650,-17.98389695
1.94700,-17.06831373
1.94750,-14.62675847
1.94800,-14.01636965
1.94850,-15.23714729
1.94900,-14.93195288
1.94950,-10.96442558
1.95000,-5.165731831
1.95050,0.02257309962
1.95100,3.684905992
1.95150,7.042044477
1.95200,9.788794146
1.95250,10.70437737
1.95300,8.873210923
1.95350,6.126461254
1.95400,3.9901004
1.95450,3.074517177
1.95500,1.853739546
1.95550,-1.503398939
1.95600,-6.996898278
1.95650,-11.26961999
1.95700,-11.8800088
1.95750,-10.04884235
1.95800,-8.217675908
1.95850,-6.996898278
1.95900,-5.165731831
1.95950,-2.113787754
1.96000,0.02257309962
1.96050,0.9381563227
1.96100,2.464128361
1.96150,6.126461254
1.96200,9.788794146
1.96250,10.70437737
1.96300,10.09398855
1.96350,10.39918296
1.96400,11.925155
1.96450,13.14593263
1.96500,11.925155
1.96550,9.483599738
1.96600,6.431655661
1.96650,2.769322769
1.96700,-0.2826213081
1.96750,-2.72417657
1.96800,-3.639759793
1.96850,-3.9449542
1.96900,-3.9449542
1.96950,-3.334565385
1.97000,-2.418982162
1.97050,-0.8930101235
1.97100,0.02257309962
1.97150,0.3277675073
1.97200,0.02257309962
1.97250,-0.5878157158
1.97300,-0.8930101235
1.97350,-0.2826213081
1.97400,0.3277675073
1.97450,0.9381563227
1.97500,0.9381563227
1.97550,0.3277675073
1.97600,0.02257309962
1.97650,-0.8930101235
1.97700,-1.808593347
1.97750,-2.418982162
1.97800,-3.639759793
1.97850,-5.470926239
1.97900,-6.386509462
1.97950,-4.250148608
1.98000,0.3277675073
1.98050,3.9901004
1.98100,5.210878031
1.98150,4.905683623
1.98200,5.210878031
1.98250,5.821266846
1.98300,5.210878031
1.98350,3.379711584
1.98400,1.853739546
1.98450,1.548545138
1.98500,2.158933954
1.98550,3.379711584
1.98600,3.379711584
1.98650,2.464128361
1.98700,0.9381563227
1.98750,1.24335073
1.98800,2.769322769
1.98850,4.295294807
1.98900,4.295294807
1.98950,3.9901004
1.99000,4.905683623
1.99050,6.126461254
1.99100,6.736850069
1.99150,7.652433292
1.99200,9.483599738
1.99250,11.31476618
1.99300,11.00957178
1.99350,8.873210923
1.99400,6.431655661
1.99450,4.600489215
1.99500,3.074517177
1.99550,2.464128361
1.99600,3.684905992
1.99650,4.905683623
1.99700,4.295294807
1.99750,3.379711584
1.99800,4.905683623
1.99850,8.262822108
1.99900,10.70437737
1.99950,10.39918296
2.00000,9.483599738
2.00050,8.262822108
2.00100,6.736850069
2.00150,5.210878031
2.00200,4.295294807
2.00250,3.9901004
2.00300,2.769322769
2.00350,0.632961915
2.00400,-1.198204531
2.00450,-3.9449542
2.00500,-7.912481501
2.00550,-11.26961999
2.00600,-10.35403676
2.00650,-6.081315054
2.00700,-2.418982162
2.00750,-0.5878157158
2.00800,1.24335073
2.00850,4.905683623
2.00900,7.9576277
2.00950,9.483599738
2.01000,11.925155
2.01050,15.28229348
2.01100,16.80826552
2.01150,16.19787671
2.01200,15.8926823
2.01250,16.19787671
2.01300,14.97709908
2.01350,11.925155
2.01400,10.39918296
2.01450,13.45112704
2.01500,16.80826552
2.01550,17.72384875
2.01600,17.11345993
2.01650,18.02904315
2.01700,19.55501519
2.01750,20.47059842
2.01800,19.8602096
2.01850,19.55501519
2.01900,18.33423756
2.01950,15.58748789
2.02000,13.14593263
2.02050,11.925155
2.02100,9.788794146
2.02150,5.210878031
2.02200,0.02257309962
2.02250,-3.029370977
2.02300,-4.555343016
2.02350,-6.996898278
2.02400,-8.522870316
2.02450,-5.776120647
2.02500,-0.5878157158
2.02550,2.158933954
2.02600,0.9381563227
2.02650,-0.8930101235
2.02700,-1.198204531
2.02750,-0.5878157158
2.02800,-2.113787754
2.02850,-6.996898278
2.02900,-13.10078643
2.02950,-19.50986899
2.03000,-24.39297952
2.03050,-26.52934037
2.03100,-26.22414596
2.03150,-24.08778511
2.03200,-20.73064662
2.03250,-16.45792492
2.03300,-12.79559202
2.03350,-10.35403676
2.03400,-10.35403676
2.03450,-11.26961999
2.03500,-12.49039762
2.03550,-14.32156406
2.03600,-15.23714729
2.03650,-14.32156406
2.03700,-11.57481439
2.03750,-8.522870316
2.03800,-5.776120647
2.03850,-2.113787754
2.03900,1.548545138
2.03950,3.684905992
2.04000,2.769322769
2.04050,1.24335073
2.04100,0.632961915
2.04150,1.24335073
2.04200,0.02257309962
2.04250,-2.113787754
2.04300,-3.639759793
2.04350,-2.72417657
2.04400,-1.198204531
2.04450,-1.198204531
2.04500,-2.113787754
2.04550,-2.113787754
2.04600,0.3277675073
2.04650,4.905683623
2.04700,9.178405331
2.04750,11.925155
2.04800,12.53554382
2.04850,11.61996059
2.04900,11.00957178
2.04950,11.00957178
2.05000,10.39918296
2.05050,6.736850069
2.05100,-0.2826213081
2.05150,-8.217675908
2.05200,-14.01636965
2.05250,-17.06831373
2.05300,-17.67870255
2.05350,-15.8475361
2.05400,-12.18520321
2.05450,-9.743647947
2.05500,-10.96442558
2.05550,-14.62675847
2.05600,-16.76311932
2.05650,-15.8475361
2.05700,-12.49039762
2.05750,-8.828064724
2.05800,-5.165731831
2.05850,-1.198204531
2.05900,2.464128361
2.05950,4.295294807
2.06000,3.684905992
2.06050,1.853739546
2.06100,0.02257309962
2.06150,-0.8930101235
2.06200,-2.113787754
2.06250,-2.113787754
2.06300,-0.2826213081
2.06350,2.769322769
2.06400,5.516072438
2.06450,7.9576277
2.06500,10.39918296
2.06550,12.53554382
2.06600,13.45112704
2.06650,12.53554382
2.06700,11.925155
2.06750,13.14593263
2.06800,14.97709908
2.06850,16.50307112
2.06900,16.50307112
2.06950,15.58748789
2.07000,13.14593263
2.07050,9.483599738
2.07100,5.821266846
2.07150,4.600489215
2.07200,5.821266846
2.07250,7.9576277
2.07300,9.178405331
2.07350,8.873210923
2.07400,8.873210923
2.07450,8.873210923
2.07500,8.873210923
2.07550,8.873210923
2.07600,8.262822108
2.07650,7.347238884
2.07700,6.126461254
2.07750,3.684905992
2.07800,0.632961915
2.07850,-1.808593347
2.07900,-3.334565385
2.07950,-4.860537424
2.08000,-7.607287093
2.08050,-10.96442558
2.08100,-12.49039762
2.08150,-12.18520321
2.08200,-12.18520321
2.08250,-13.40598084
2.08300,-14.32156406
2.08350,-13.40598084
2.08400,-10.65923117
2.08450,-8.522870316
2.08500,-7.302092685
2.08550,-7.302092685
2.08600,-7.302092685
2.08650,-8.522870316
2.08700,-10.65923117
2.08750,-12.49039762
2.08800,-12.79559202
2.08850,-12.49039762
2.08900,-12.79559202
2.08950,-14.01636965
2.09000,-15.23714729
2.09050,-14.93195288
2.09100,-12.79559202
2.09150,-9.133259131
2.09200,-6.081315054
2.09250,-6.996898278
2.09300,-12.79559202
2.09350,-20.42545222
2.09400,-25.61375715
2.09450,-26.83453478
2.09500,-25.91895156
2.09550,-24.69817392
2.09600,-23.47739629
2.09650,-20.73064662
2.09700,-17.06831373
2.09750,-14.01636965
2.09800,-12.18520321
2.09850,-10.96442558
2.09900,-9.438453539
2.09950,-7.912481501
2.10000,-6.386509462
2.10050,-4.250148608
2.10100,-1.503398939
2.10150,2.464128361
2.10200,6.736850069
2.10250,10.39918296
2.10300,13.45112704
2.10350,16.80826552
2.10400,20.47059842
2.10450,22.30176486
2.10500,21.69137605
2.10550,19.8602096
2.10600,18.63943197
2.10650,17.41865434
2.10700,14.36671026
2.10750,10.70437737
2.10800,8.568016515
2.10850,9.178405331
2.10900,10.70437737
2.10950,11.61996059
2.11000,12.53554382
2.11050,14.06151585
2.11100,15.28229348
2.11150,15.8926823
2.11200,16.50307112
2.11250,16.19787671
2.11300,13.75632145
2.11350,9.178405331
2.11400,3.9901004
2.11450,0.3277675073
2.11500,-0.5878157158
2.11550,0.02257309962
2.11600,2.464128361
2.11650,4.295294807
2.11700,3.9901004
2.11750,1.853739546
2.11800,-0.8930101235
2.11850,-2.72417657
2.11900,-3.9449542
2.11950,-3.9449542
2.12000,-3.029370977
2.12050,-3.029370977
2.12100,-3.639759793
2.12150,-4.860537424
2.12200,-5.470926239
2.12250,-5.776120647
2.12300,-6.69170387
2.12350,-7.302092685
2.12400,-7.302092685
2.12450,-7.302092685
2.12500,-8.522870316
2.12550,-9.743647947
2.12600,-8.217675908
2.12650,-4.250148608
2.12700,-0.2826213081
2.12750,2.464128361
2.12800,5.516072438
2.12850,9.178405331
2.12900,11.31476618
2.12950,11.31476618
2.13000,10.09398855
2.13050,9.483599738
2.13100,8.568016515
2.13150,7.042044477
2.13200,7.042044477
2.13250,10.09398855
2.13300,14.97709908
2.13350,17.41865434
2.13400,14.36671026
2.13450,7.9576277
2.13500,3.074517177
2.13550,0.9381563227
2.13600,-0.2826213081
2.13650,-4.250148608
2.13700,-9.133259131
2.13750,-11.57481439
2.13800,-10.04884235
2.13850,-7.302092685
2.13900,-5.776120647
2.13950,-4.250148608
2.14000,-1.808593347
2.14050,0.9381563227
2.14100,2.158933954
2.14150,1.853739546
2.14200,1.24335073
2.14250,0.02257309962
2.14300,-1.808593347
2.14350,-3.029370977
2.14400,-3.029370977
2.14450,-2.72417657
2.14500,-4.250148608
2.14550,-8.217675908
2.14600,-12.49039762
2.14650,-15.23714729
2.14700,-15.8475361
2.14750,-14.93195288
2.14800,-13.10078643
2.14850,-11.57481439
2.14900,-10.65923117
2.14950,-10.04884235
2.15000,-9.743647947
2.15050,-10.04884235
2.15100,-10.65923117
2.15150,-10.96442558
2.15200,-10.35403676
2.15250,-8.522870316
2.15300,-5.165731831
2.15350,-1.808593347
2.15400,0.632961915
2.15450,2.464128361
2.15500,5.210878031
2.15550,9.788794146
2.15600,15.28229348
2.15650,18.02904315
2.15700,17.11345993
2.15750,14.06151585
2.15800,11.31476618
2.15850,10.70437737
2.15900,12.23034941
2.15950,14.97709908
2.16000,17.41865434
2.16050,18.33423756
2.16100,17.72384875
2.16150,16.50307112
2.16200,15.58748789
2.16250,14.06151585
2.16300,11.31476618
2.16350,7.9576277
2.16400,4.905683623
2.16450,1.853739546
2.16500,-1.808593347
2.16550,-6.386509462
2.16600,-9.133259131
2.16650,-9.743647947
2.16700,-9.438453539
2.16750,-9.743647947
2.16800,-9.438453539
2.16850,-7.607287093
2.16900,-6.386509462
2.16950,-7.607287093
2.17000,-9.438453539
2.17050,-9.743647947
2.17100,-8.217675908
2.17150,-7.302092685
2.17200,-7.912481501
2.17250,-8.217675908
2.17300,-7.912481501
2.17350,-6.996898278
2.17400,-5.470926239
2.17450,-3.334565385
2.17500,-0.2826213081
2.17550,1.548545138
2.17600,4.295294807
2.17650,8.568016515
2.17700,12.84073822
2.17750,14.97709908
2.17800,14.97709908
2.17850,15.8926823
2.17900,18.63943197
2.17950,21.99657045
2.18000,22.60695927
2.18050,20.47059842
2.18100,16.80826552
2.18150,14.06151585
2.18200,13.14593263
2.18250,12.84073822
2.18300,10.70437737
2.18350,6.126461254
2.18400,1.853739546
2.18450,-0.2826213081
2.18500,-1.808593347
2.18550,-4.555343016
2.18600,-6.69170387
2.18650,-7.302092685
2.18700,-6.69170387
2.18750,-7.607287093
2.18800,-9.743647947
2.18850,-12.79559202
2.18900,-16.15273051
2.18950,-19.8150634
2.19000,-21.64622985
2.19050,-21.03584103
2.19100,-20.12025781
2.19150,-19.8150634
2.19200,-18.59428577
2.19250,-14.93195288
2.19300,-10.65923117
2.19350,-8.217675908
2.19400,-6.69170387
2.19450,-4.555343016
2.19500,-2.72417657
2.19550,-2.72417657
2.19600,-3.334565385
2.19650,-2.72417657
2.19700,-1.808593347
2.19750,-1.808593347
2.19800,-1.503398939
2.19850,0.02257309962
2.19900,0.3277675073
2.19950,-1.503398939
2.20000,-3.334565385
2.20050,-0.5878157158
2.20100,5.210878031
2.20150,10.70437737
2.20200,13.14593263
2.20250,13.45112704
2.20300,12.53554382
2.20350,10.39918296
2.20400,7.652433292
2.20450,4.905683623
2.20500,2.464128361
2.20550,-0.2826213081
2.20600,-3.334565385
2.20650,-5.776120647
2.20700,-7.912481501
2.20750,-10.65923117
2.20800,-12.79559202
2.20850,-13.71117525
2.20900,-13.10078643
2.20950,-12.18520321
2.21000,-11.26961999
2.21050,-9.133259131
2.21100,-5.165731831
2.21150,-0.2826213081
2.21200,3.684905992
2.21250,6.126461254
2.21300,7.347238884
2.21350,9.178405331
2.21400,12.53554382
2.21450,15.8926823
2.21500,16.80826552
2.21550,14.06151585
2.21600,10.39918296
2.21650,7.9576277
2.21700,5.516072438
2.21750,0.632961915
2.21800,-6.081315054
2.21850,-11.57481439
2.21900,-13.71117525
2.21950,-13.40598084
2.22000,-13.10078643
2.22050,-11.57481439
2.22100,-8.522870316
2.22150,-5.165731831
2.22200,-3.9449542
2.22250,-3.334565385
2.22300,-0.2826213081
2.22350,3.074517177
2.22400,1.853739546
2.22450,-4.860537424
2.22500,-10.65923117
2.22550,-8.522870316
2.22600,-1.503398939
2.22650,3.684905992
2.22700,4.905683623
2.22750,5.210878031
2.22800,6.431655661
2.22850,6.736850069
2.22900,5.821266846
2.22950,4.600489215
2.23000,3.9901004
2.23050,3.684905992
2.23100,3.379711584
2.23150,4.905683623
2.23200,8.568016515
2.23250,11.31476618
2.23300,11.31476618
2.23350,10.70437737
2.23400,11.00957178
2.23450,12.84073822
2.23500,14.36671026
2.23550,13.75632145
2.23600,10.70437737
2.23650,6.431655661
2.23700,3.074517177
2.23750,1.853739546
2.23800,2.158933954
2.23850,2.158933954
2.23900,0.02257309962
2.23950,-4.250148608
2.24000,-10.35403676
2.24050,-15.23714729
2.24100,-15.8475361
2.24150,-12.79559202
2.24200,-11.26961999
2.24250,-13.40598084
2.24300,-16.15273051
2.24350,-15.23714729
2.24400,-12.49039762
2.24450,-11.26961999
2.24500,-11.57481439
2.24550,-10.35403676
2.24600,-8.217675908
2.24650,-8.217675908
2.24700,-9.438453539
2.24750,-10.04884235
2.24800,-10.35403676
2.24850,-13.40598084
2.24900,-17.67870255
2.24950,-16.76311932
2.25000,-8.522870316
2.25050,0.632961915
2.25100,5.821266846
2.25150,5.821266846
2.25200,4.905683623
2.25250,4.295294807
2.25300,2.769322769
2.25350,0.02257309962
2.25400,0.02257309962
2.25450,2.769322769
2.25500,7.347238884
2.25550,10.09398855
2.25600,11.00957178
2.25650,11.61996059
2.25700,13.45112704
2.25750,15.58748789
2.25800,17.11345993
2.25850,17.41865434
2.25900,16.50307112
2.25950,14.67190467
2.26000,13.14593263
2.26050,13.45112704
2.26100,14.36671026
2.26150,14.06151585
2.26200,12.84073822
2.26250,12.84073822
2.26300,16.50307112
2.26350,21.08098723
2.26400,23.52254249
2.26450,24.13293131
2.26500,24.74332012
2.26550,25.35370894
2.26600,23.52254249
2.26650,19.55501519
2.26700,15.28229348
2.26750,11.00957178
2.26800,6.736850069
2.26850,3.684905992
2.26900,3.379711584
2.26950,4.600489215
2.27000,3.074517177
2.27050,-1.198204531
2.27100,-5.165731831
2.27150,-5.165731831
2.27200,-1.808593347
2.27250,0.9381563227
2.27300,1.853739546
2.27350,2.769322769
2.27400,6.736850069
2.27450,12.23034941
2.27500,15.28229348
2.27550,11.925155
2.27600,4.295294807
2.27650,-3.029370977
2.27700,-8.522870316
2.27750,-12.79559202
2.27800,-17.06831373
2.27850,-20.42545222
2.27900,-22.25661866
2.27950,-24.39297952
2.28000,-28.05531241
2.28050,-30.80206208
2.28100,-31.41245089
2.28150,-32.02283971
2.28200,-34.15920056
2.28250,-35.6851726
2.28300,-34.76958938
2.28350,-32.32803412
2.28400,-31.7176453
2.28450,-31.7176453
2.28500,-28.97089563
2.28550,-22.25661866
2.28600,-14.62675847
2.28650,-9.438453539
2.28700,-6.69170387
2.28750,-5.165731831
2.28800,-3.639759793
2.28850,-2.418982162
2.28900,-1.503398939
2.28950,-1.198204531
2.29000,-0.2826213081
2.29050,1.548545138
2.29100,4.905683623
2.29150,8.873210923
2.29200,11.00957178
2.29250,11.925155
2.29300,11.925155
2.29350,11.00957178
2.29400,9.483599738
2.29450,7.652433292
2.29500,7.042044477
2.29550,7.347238884
2.29600,7.9576277
2.29650,8.568016515
2.29700,9.788794146
2.29750,11.00957178
2.29800,12.53554382
2.29850,14.97709908
2.29900,19.24982078
2.29950,24.43812572
2.30000,29.32123624
2.30050,32.98356913
2.30100,34.50954117
2.30150,32.98356913
2.30200,27.49006979
2.30250,20.47059842
2.30300,14.67190467
2.30350,10.70437737
2.30400,6.736850069
2.30450,2.464128361
2.30500,-1.198204531
2.30550,-5.165731831
2.30600,-9.743647947
2.30650,-15.23714729
2.30700,-18.59428577
2.30750,-18.28909136
2.30800,-14.62675847
2.30850,-10.35403676
2.30900,-8.522870316
2.30950,-7.912481501
2.31000,-7.607287093
2.31050,-6.996898278
2.31100,-6.996898278
2.31150,-9.133259131
2.31200,-12.49039762
2.31250,-17.37350814
2.31300,-24.08778511
2.31350,-31.7176453
2.31400,-36.29556142
2.31450,-34.46439497
2.31500,-29.27609004
2.31550,-25.30856274
2.31600,-23.47739629
2.31650,-19.20467459
2.31700,-10.65923117
2.31750,-0.5878157158
2.31800,5.516072438
2.31850,7.347238884
2.31900,7.347238884
2.31950,7.347238884
2.32000,7.042044477
2.32050,6.431655661
2.32100,6.736850069
2.32150,7.652433292
2.32200,7.652433292
2.32250,7.652433292
2.32300,8.873210923
2.32350,12.23034941
2.32400,16.19787671
2.32450,19.55501519
2.32500,23.21734808
2.32550,27.7952642
2.32600,32.37318032
2.32650,33.89915235
2.32700,32.37318032
2.32750,29.93162505
2.32800,29.32123624
2.32850,30.54201387
2.32900,30.84720828
2.32950,29.01604183
2.33000,25.04851453
2.33050,19.24982078
2.33100,12.23034941
2.33150,6.126461254
2.33200,0.9381563227
2.33250,-3.029370977
2.33300,-7.302092685
2.33350,-11.26961999
2.33400,-14.01636965
2.33450,-15.23714729
2.33500,-15.8475361
2.33550,-15.54234169
2.33600,-14.01636965
2.33650,-12.18520321
2.33700,-11.26961999
2.33750,-10.65923117
2.33800,-8.217675908
2.33850,-5.470926239
2.33900,-4.860537424
2.33950,-5.470926239
2.34000,-4.250148608
2.34050,-2.113787754
2.34100,-3.334565385
2.34150,-10.96442558
2.34200,-21.03584103
2.34250,-27.750118
2.34300,-30.19167326
2.34350,-31.10725649
2.34400,-31.7176453
2.34450,-31.7176453
2.34500,-30.80206208
2.34550,-28.66570122
2.34600,-22.25661866
2.34650,-11.57481439
2.34700,-2.418982162
2.34750,-0.5878157158
2.34800,-4.555343016
2.34850,-7.302092685
2.34900,-5.165731831
2.34950,-1.503398939
2.35000,0.3277675073
2.35050,2.464128361
2.35100,5.210878031
2.35150,6.736850069
2.35200,7.042044477
2.35250,7.9576277
2.35300,11.31476618
2.35350,15.28229348
2.35400,18.02904315
2.35450,19.24982078
2.35500,19.8602096
2.35550,18.33423756
2.35600,14.67190467
2.35650,12.23034941
2.35700,13.45112704
2.35750,15.28229348
2.35800,12.84073822
2.35850,6.431655661
2.35900,1.24335073
2.35950,-0.2826213081
2.36000,-0.5878157158
2.36050,-1.503398939
2.36100,-2.113787754
2.36150,-2.113787754
2.36200,-2.72417657
2.36250,-5.776120647
2.36300,-9.438453539
2.36350,-10.35403676
2.36400,-6.996898278
2.36450,-1.808593347
2.36500,1.853739546
2.36550,3.684905992
2.36600,2.769322769
2.36650,0.02257309962
2.36700,-3.639759793
2.36750,-5.165731831
2.36800,-2.72417657
2.36850,2.769322769
2.36900,7.9576277
2.36950,10.09398855
2.37000,9.483599738
2.37050,9.178405331
2.37100,10.39918296
2.37150,12.53554382
2.37200,14.36671026
2.37250,15.8926823
2.37300,17.11345993
2.37350,18.02904315
2.37400,18.02904315
2.37450,17.11345993
2.37500,16.50307112
2.37550,16.80826552
2.37600,18.02904315
2.37650,19.55501519
2.37700,19.8602096
2.37750,17.41865434
2.37800,13.14593263
2.37850,11.31476618
2.37900,13.14593263
2.37950,15.28229348
2.38000,12.53554382
2.38050,6.431655661
2.38100,3.074517177
2.38150,5.516072438
2.38200,9.178405331
2.38250,8.262822108
2.38300,4.600489215
2.38350,3.074517177
2.38400,4.295294807
2.38450,5.210878031
2.38500,5.210878031
2.38550,5.516072438
2.38600,5.821266846
2.38650,3.684905992
2.38700,-0.8930101235
2.38750,-5.776120647
2.38800,-8.522870316
2.38850,-10.96442558
2.38900,-13.71117525
2.38950,-14.01636965
2.39000,-10.65923117
2.39050,-6.996898278
2.39100,-6.386509462
2.39150,-6.996898278
2.39200,-5.165731831
2.39250,-2.72417657
2.39300,-3.639759793
2.39350,-6.996898278
2.39400,-7.912481501
2.39450,-5.470926239
2.39500,-5.470926239
2.39550,-11.57481439
2.39600,-21.95142425
2.39650,-32.93842293
2.39700,-40.87347753
2.39750,-44.53581042
2.39800,-43.00983839
2.39850,-38.43192227
2.39900,-34.46439497
2.39950,-33.85400616
2.40000,-35.07478379
2.40050,-35.6851726
2.40100,-34.15920056
2.40150,-30.80206208
2.40200,-25.61375715
2.40250,-19.20467459
2.40300,-13.10078643
2.40350,-8.828064724
2.40400,-5.776120647
2.40450,-3.9449542
2.40500,-3.029370977
2.40550,-2.72417657
2.40600,-1.808593347
2.40650,-0.5878157158
2.40700,-1.808593347
2.40750,-6.386509462
2.40800,-12.79559202
2.40850,-17.06831373
2.40900,-17.67870255
2.40950,-14.93195288
2.41000,-12.18520321
2.41050,-10.96442558
2.41100,-9.438453539
2.41150,-5.470926239
2.41200,-0.2826213081
2.41250,2.158933954
2.41300,0.3277675073
2.41350,-3.029370977
2.41400,-5.165731831
2.41450,-5.470926239
2.41500,-6.081315054
2.41550,-6.69170387
2.41600,-6.386509462
2.41650,-5.776120647
2.41700,-4.860537424
2.41750,-4.250148608
2.41800,-3.029370977
2.41850,-0.8930101235
2.41900,1.548545138
2.41950,4.905683623
2.42000,7.9576277
2.42050,8.262822108
2.42100,4.905683623
2.42150,-0.2826213081
2.42200,-3.639759793
2.42250,-3.639759793
2.42300,0.02257309962
2.42350,4.905683623
2.42400,8.873210923
2.42450,11.00957178
2.42500,12.84073822
2.42550,16.50307112
2.42600,19.55501519
2.42650,19.55501519
2.42700,17.41865434
2.42750,17.11345993
2.42800,19.55501519
2.42850,20.47059842
2.42900,17.11345993
2.42950,14.06151585
2.43000,15.58748789
2.43050,20.16540401
2.43100,22.60695927
2.43150,23.52254249
2.43200,25.96409775
2.43250,28.71084742
2.43300,27.18487539
2.43350,20.77579282
2.43400,15.58748789
2.43450,14.97709908
2.43500,16.50307112
2.43550,17.72384875
2.43600,18.02904315
2.43650,18.02904315
2.43700,15.58748789
2.43750,8.873210923
2.43800,0.3277675073
2.43850,-5.776120647
2.43900,-8.217675908
2.43950,-8.522870316
2.44000,-8.828064724
2.44050,-8.828064724
2.44100,-5.776120647
2.44150,0.9381563227
2.44200,10.70437737
2.44250,19.8602096
2.44300,26.26929216
2.44350,29.93162505
2.44400,32.37318032
2.44450,33.59395795
2.44500,33.59395795
2.44550,31.45759709
2.44600,27.18487539
2.44650,21.99657045
2.44700,17.11345993
2.44750,14.36671026
2.44800,14.36671026
2.44850,16.50307112
2.44900,18.63943197
2.44950,19.8602096
2.45000,21.08098723
2.45050,24.13293131
2.45100,28.71084742
2.45150,32.06798591
2.45200,29.93162505
2.45250,22.30176486
2.45300,12.23034941
2.45350,2.158933954
2.45400,-6.386509462
2.45450,-14.62675847
2.45500,-21.34103544
2.45550,-26.52934037
2.45600,-31.7176453
2.45650,-35.6851726
2.45700,-35.07478379
2.45750,-28.97089563
2.45800,-22.25661866
2.45850,-19.8150634
2.45900,-21.34103544
2.45950,-23.47739629
2.46000,-24.08778511
2.46050,-23.7825907
2.46100,-24.08778511
2.46150,-24.08778511
2.46200,-23.47739629
2.46250,-22.56181307
2.46300,-22.86700748
2.46350,-26.52934037
2.46400,-34.46439497
2.46450,-43.31503279
2.46500,-47.28256009
2.46550,-44.53581042
2.46600,-38.73711668
2.46650,-33.24361734
2.46700,-27.44492359
2.46750,-20.73064662
2.46800,-15.8475361
2.46850,-13.71117525
2.46900,-11.8800088
2.46950,-6.386509462
2.47000,1.853739546
2.47050,7.652433292
2.47100,8.568016515
2.47150,7.9576277
2.47200,8.262822108
2.47250,7.347238884
2.47300,3.379711584
2.47350,-0.2826213081
2.47400,0.02257309962
2.47450,3.379711584
2.47500,5.821266846
2.47550,5.210878031
2.47600,3.074517177
2.47650,1.548545138
2.47700,0.632961915
2.47750,1.24335073
2.47800,3.9901004
2.47850,7.9576277
2.47900,10.39918296
2.47950,11.925155
2.48000,16.50307112
2.48050,25.35370894
2.48100,32.67837472
2.48150,32.98356913
2.48200,26.87968098
2.48250,20.16540401
2.48300,13.75632145
2.48350,6.736850069
2.48400,-0.2826213081
2.48450,-4.555343016
2.48500,-3.029370977
2.48550,0.632961915
2.48600,3.684905992
2.48650,5.210878031
2.48700,6.126461254
2.48750,7.042044477
2.48800,8.873210923
2.48850,10.70437737
2.48900,10.39918296
2.48950,7.042044477
2.49000,2.464128361
2.49050,0.02257309962
2.49100,-1.503398939
2.49150,-5.776120647
2.49200,-13.40598084
2.49250,-20.42545222
2.49300,-23.47739629
2.49350,-23.17220189
2.49400,-19.8150634
2.49450,-12.49039762
2.49500,-1.198204531
2.49550,8.873210923
2.49600,14.06151585
2.49650,14.97709908
2.49700,16.50307112
2.49750,20.77579282
2.49800,25.65890335
2.49850,28.71084742
2.49900,29.62643065
2.49950,28.10045861
2.50000,22.60695927
2.50050,13.75632145
2.50100,4.600489215
2.50150,-0.5878157158
2.50200,-1.503398939
2.50250,-0.8930101235
2.50300,-2.418982162
2.50350,-8.522870316
2.50400,-15.8475361
2.50450,-19.50986899
2.50500,-17.06831373
2.50550,-11.57481439
2.50600,-5.776120647
2.50650,-0.2826213081
2.50700,4.600489215
2.50750,7.347238884
2.50800,4.600489215
2.50850,-2.418982162
2.50900,-9.438453539
2.50950,-12.18520321
2.51000,-11.26961999
2.51050,-7.912481501
2.51100,-3.9449542
2.51150,-1.198204531
2.51200,0.02257309962
2.51250,0.02257309962
2.51300,-0.2826213081
2.51350,-0.5878157158
2.51400,-0.8930101235
2.51450,-1.503398939
2.51500,-2.113787754
2.51550,-4.250148608
2.51600,-6.386509462
2.51650,-6.386509462
2.51700,-3.029370977
2.51750,0.9381563227
2.51800,2.464128361
2.51850,1.853739546
2.51900,0.3277675073
2.51950,-1.503398939
2.52000,-7.302092685
2.52050,-16.15273051
2.52100,-25.00336833
2.52150,-29.58128445
2.52200,-28.66570122
2.52250,-25.30856274
2.52300,-22.86700748
2.52350,-21.64622985
2.52400,-19.20467459
2.52450,-12.18520321
2.52500,-2.418982162
2.52550,3.684905992
2.52600,3.9901004
2.52650,1.24335073
2.52700,-0.5878157158
2.52750,-2.418982162
2.52800,-5.776120647
2.52850,-10.35403676
2.52900,-13.40598084
2.52950,-15.23714729
2.53000,-17.37350814
2.53050,-21.03584103
2.53100,-23.47739629
2.53150,-24.39297952
2.53200,-23.17220189
2.53250,-20.42545222
2.53300,-15.8475361
2.53350,-11.8800088
2.53400,-10.65923117
2.53450,-11.8800088
2.53500,-11.26961999
2.53550,-7.607287093
2.53600,-2.418982162
2.53650,3.074517177
2.53700,8.873210923
2.53750,13.14593263
2.53800,12.84073822
2.53850,9.178405331
2.53900,7.042044477
2.53950,9.178405331
2.54000,12.23034941
2.54050,12.53554382
2.54100,11.31476618
2.54150,12.53554382
2.54200,14.67190467
2.54250,12.84073822
2.54300,5.821266846
2.54350,-0.5878157158
2.54400,-1.198204531
2.54450,2.769322769
2.54500,7.9576277
2.54550,11.00957178
2.54600,11.925155
2.54650,11.31476618
2.54700,11.00957178
2.54750,12.23034941
2.54800,14.67190467
2.54850,16.50307112
2.54900,18.02904315
2.54950,19.24982078
2.55000,19.55501519
2.55050,18.94462638
2.55100,19.55501519
2.55150,22.60695927
2.55200,25.96409775
2.55250,24.43812572
2.55300,17.41865434
2.55350,11.00957178
2.55400,10.09398855
2.55450,13.45112704
2.55500,14.97709908
2.55550,14.06151585
2.55600,13.14593263
2.55650,13.45112704
2.55700,13.45112704
2.55750,12.23034941
2.55800,11.31476618
2.55850,11.31476618
2.55900,11.61996059
2.55950,11.00957178
2.56000,10.09398855
2.56050,10.09398855
2.56100,10.39918296
2.56150,9.483599738
2.56200,7.9576277
2.56250,6.431655661
2.56300,4.600489215
2.56350,0.3277675073
2.56400,-5.470926239
2.56450,-11.57481439
2.56500,-14.32156406
2.56550,-14.62675847
2.56600,-13.71117525
2.56650,-11.8800088
2.56700,-7.302092685
2.56750,-1.808593347
2.56800,0.632961915
2.56850,-1.808593347
2.56900,-8.217675908
2.56950,-13.10078643
2.57000,-13.71117525
2.57050,-11.26961999
2.57100,-10.04884235
2.57150,-13.10078643
2.57200,-17.67870255
2.57250,-20.73064662
2.57300,-21.95142425
2.57350,-22.86700748
2.57400,-23.17220189
2.57450,-19.8150634
2.57500,-11.26961999
2.57550,-1.503398939
2.57600,5.210878031
2.57650,8.873210923
2.57700,12.23034941
2.57750,14.97709908
2.57800,14.67190467
2.57850,10.39918296
2.57900,4.600489215
2.57950,1.24335073
2.58000,0.632961915
2.58050,2.158933954
2.58100,5.210878031
2.58150,9.788794146
2.58200,12.84073822
2.58250,12.53554382
2.58300,9.483599738
2.58350,6.431655661
2.58400,3.9901004
2.58450,1.548545138
2.58500,-0.8930101235
2.58550,-2.113787754
2.58600,0.02257309962
2.58650,2.158933954
2.58700,1.24335073
2.58750,-3.029370977
2.58800,-6.996898278
2.58850,-6.996898278
2.58900,-4.250148608
2.58950,-1.808593347
2.59000,-0.8930101235
2.59050,0.3277675073
2.59100,3.684905992
2.59150,7.347238884
2.59200,9.483599738
2.59250,9.788794146
2.59300,7.9576277
2.59350,3.379711584
2.59400,-3.334565385
2.59450,-10.65923117
2.59500,-14.93195288
2.59550,-15.8475361
2.59600,-15.23714729
2.59650,-14.62675847
2.59700,-12.49039762
2.59750,-7.912481501
2.59800,-2.418982162
2.59850,0.02257309962
2.59900,-0.2826213081
2.59950,-0.2826213081
2.60000,2.158933954
2.60050,7.652433292
2.60100,15.58748789
2.60150,25.65890335
2.60200,35.42512439
2.60250,40.30823492
2.60300,37.86667965
2.60350,29.01604183
2.60400,18.33423756
2.60450,9.178405331
2.60500,2.769322769
2.60550,0.02257309962
2.60600,0.3277675073
2.60650,2.769322769
2.60700,3.684905992
2.60750,0.632961915
2.60800,-4.555343016
2.60850,-8.217675908
2.60900,-7.607287093
2.60950,-4.860537424
2.61000,-3.334565385
2.61050,-1.808593347
2.61100,2.158933954
2.61150,9.178405331
2.61200,13.45112704
2.61250,8.568016515
2.61300,-4.250148608
2.61350,-17.06831373
2.61400,-22.56181307
2.61450,-21.34103544
2.61500,-20.12025781
2.61550,-22.86700748
2.61600,-28.97089563
2.61650,-34.46439497
2.61700,-37.21114464
2.61750,-36.60075582
2.61800,-33.24361734
2.61850,-27.44492359
2.61900,-20.42545222
2.61950,-13.10078643
2.62000,-5.776120647
2.62050,0.3277675073
2.62100,5.210878031
2.62150,7.9576277
2.62200,9.483599738
2.62250,11.31476618
2.62300,14.06151585
2.62350,18.02904315
2.62400,21.99657045
2.62450,24.13293131
2.62500,23.52254249
2.62550,20.16540401
2.62600,15.8926823
2.62650,11.61996059
2.62700,7.042044477
2.62750,3.074517177
2.62800,1.24335073
2.62850,3.074517177
2.62900,7.042044477
2.62950,7.9576277
2.63000,3.9901004
2.63050,-2.418982162
2.63100,-7.302092685
2.63150,-9.743647947
2.63200,-11.8800088
2.63250,-14.93195288
2.63300,-15.8475361
2.63350,-12.49039762
2.63400,-7.912481501
2.63450,-6.69170387
2.63500,-8.828064724
2.63550,-9.438453539
2.63600,-6.69170387
2.63650,-3.9449542
2.63700,-5.776120647
2.63750,-11.57481439
2.63800,-17.37350814
2.63850,-21.34103544
2.63900,-21.95142425
2.63950,-18.89948018
2.64000,-11.8800088
2.64050,-2.72417657
2.64100,4.295294807
2.64150,5.821266846
2.64200,1.24335073
2.64250,-6.996898278
2.64300,-14.32156406
2.64350,-16.76311932
2.64400,-14.93195288
2.64450,-13.40598084
2.64500,-15.8475361
2.64550,-20.73064662
2.64600,-23.47739629
2.64650,-21.64622985
2.64700,-16.76311932
2.64750,-12.49039762
2.64800,-10.35403676
2.64850,-9.133259131
2.64900,-7.607287093
2.64950,-5.776120647
2.65000,-4.555343016
2.65050,-3.639759793
2.65100,0.02257309962
2.65150,6.736850069
2.65200,12.23034941
2.65250,12.23034941
2.65300,8.873210923
2.65350,7.042044477
2.65400,8.873210923
2.65450,11.00957178
2.65500,11.31476618
2.65550,11.31476618
2.65600,11.61996059
2.65650,8.873210923
2.65700,3.9901004
2.65750,3.074517177
2.65800,11.31476618
2.65850,23.21734808
2.65900,28.71084742
2.65950,25.04851453
2.66000,18.63943197
2.66050,15.58748789
2.66100,15.8926823
2.66150,15.58748789
2.66200,11.925155
2.66250,5.210878031
2.66300,-2.113787754
2.66350,-6.996898278
2.66400,-8.217675908
2.66450,-6.996898278
2.66500,-5.470926239
2.66550,-4.250148608
2.66600,-3.029370977
2.66650,-2.113787754
2.66700,-2.418982162
2.66750,-3.334565385
2.66800,-3.029370977
2.66850,-1.503398939
2.66900,-1.808593347
2.66950,-6.69170387
2.67000,-15.23714729
2.67050,-25.00336833
2.67100,-33.85400616
2.67150,-39.6526999
2.67200,-40.87347753
2.67250,-37.51633905
2.67300,-31.7176453
2.67350,-25.30856274
2.67400,-19.50986899
2.67450,-13.71117525
2.67500,-8.217675908
2.67550,-3.334565385
2.67600,-0.8930101235
2.67650,-0.5878157158
2.67700,-0.2826213081
2.67750,2.769322769
2.67800,8.873210923
2.67850,13.75632145
2.67900,14.36671026
2.67950,13.75632145
2.68000,17.11345993
2.68050,24.43812572
2.68100,29.93162505
2.68150,30.54201387
2.68200,29.62643065
2.68250,31.15240269
2.68300,34.50954117
2.68350,35.7303188
2.68400,34.81473558
2.68450,34.50954117
2.68500,36.03551321
2.68550,36.95109643
2.68600,34.50954117
2.68650,29.01604183
2.68700,22.30176486
2.68750,16.19787671
2.68800,10.70437737
2.68850,5.210878031
2.68900,-1.503398939
2.68950,-10.65923117
2.69000,-20.12025781
2.69050,-27.44492359
2.69100,-29.27609004
2.69150,-25.00336833
2.69200,-18.59428577
2.69250,-15.54234169
2.69300,-17.06831373
2.69350,-20.12025781
2.69400,-20.12025781
2.69450,-16.45792492
2.69500,-13.40598084
2.69550,-14.01636965
2.69600,-17.67870255
2.69650,-21.64622985
2.69700,-25.00336833
2.69750,-26.22414596
2.69800,-24.39297952
2.69850,-18.59428577
2.69900,-10.65923117
2.69950,-4.555343016
2.70000,-2.113787754
2.70050,-2.418982162
2.70100,-4.555343016
2.70150,-6.69170387
2.70200,-7.912481501
2.70250,-8.217675908
2.70300,-8.217675908
2.70350,-6.69170387
2.70400,-1.808593347
2.70450,5.516072438
2.70500,11.925155
2.70550,13.75632145
2.70600,13.75632145
2.70650,16.50307112
2.70700,23.52254249
2.70750,29.62643065
2.70800,31.15240269
2.70850,28.40565302
2.70900,23.52254249
2.70950,17.11345993
2.71000,10.70437737
2.71050,6.736850069
2.71100,6.431655661
2.71150,5.821266846
2.71200,0.632961915
2.71250,-5.776120647
2.71300,-7.912481501
2.71350,-3.9449542
2.71400,1.548545138
2.71450,5.210878031
2.71500,6.126461254
2.71550,4.600489215
2.71600,2.769322769
2.71650,1.853739546
2.71700,3.684905992
2.71750,5.821266846
2.71800,4.600489215
2.71850,0.02257309962
2.71900,-2.113787754
2.71950,0.632961915
2.72000,5.210878031
2.72050,7.042044477
2.72100,4.600489215
2.72150,0.02257309962
2.72200,-5.165731831
2.72250,-11.26961999
2.72300,-15.8475361
2.72350,-15.54234169
2.72400,-10.65923117
2.72450,-4.555343016
2.72500,0.02257309962
2.72550,1.853739546
2.72600,3.379711584
2.72650,6.431655661
2.72700,11.925155
2.72750,18.94462638
2.72800,25.04851453
2.72850,27.7952642
2.72900,27.49006979
2.72950,25.96409775
2.73000,22.60695927
2.73050,16.80826552
2.73100,8.873210923
2.73150,0.02257309962
2.73200,-9.743647947
2.73250,-18.28909136
2.73300,-24.08778511
2.73350,-27.44492359
2.73400,-29.58128445
2.73450,-32.32803412
2.73500,-33.24361734
2.73550,-30.80206208
2.73600,-25.00336833
2.73650,-17.98389695
2.73700,-10.96442558
2.73750,-3.334565385
2.73800,3.074517177
2.73850,7.042044477
2.73900,9.178405331
2.73950,11.61996059
2.74000,15.28229348
2.74050,18.33423756
2.74100,18.02904315
2.74150,14.36671026
2.74200,8.568016515
2.74250,4.905683623
2.74300,6.126461254
2.74350,12.53554382
2.74400,21.69137605
2.74450,29.32123624
2.74500,33.28876354
2.74550,34.50954117
2.74600,34.81473558
2.74650,35.11992999
2.74700,35.42512439
2.74750,35.11992999
2.74800,32.37318032
2.74850,27.7952642
2.74900,21.08098723
2.74950,13.45112704
2.75000,4.905683623
2.75050,-2.418982162
2.75100,-7.912481501
2.75150,-12.79559202
2.75200,-18.59428577
2.75250,-23.7825907
2.75300,-23.47739629
2.75350,-15.8475361
2.75400,-4.860537424
2.75450,1.853739546
2.75500,2.464128361
2.75550,0.02257309962
2.75600,-2.72417657
2.75650,-4.860537424
2.75700,-6.081315054
2.75750,-6.69170387
2.75800,-9.438453539
2.75850,-16.15273051
2.75900,-24.39297952
2.75950,-28.36050682
2.76000,-24.69817392
2.76050,-17.98389695
2.76100,-13.71117525
2.76150,-12.49039762
2.76200,-11.8800088
2.76250,-11.26961999
2.76300,-11.26961999
2.76350,-11.26961999
2.76400,-9.438453539
2.76450,-6.386509462
2.76500,-4.250148608
2.76550,-3.334565385
2.76600,0.3277675073
2.76650,9.178405331
2.76700,19.55501519
2.76750,25.65890335
2.76800,26.57448657
2.76850,26.26929216
2.76900,28.10045861
2.76950,29.62643065
2.77000,25.04851453
2.77050,13.14593263
2.77100,-1.503398939
2.77150,-13.10078643
2.77200,-21.34103544
2.77250,-27.750118
2.77300,-34.46439497
2.77350,-39.6526999
2.77400,-42.09425516
2.77450,-41.17867194
2.77500,-37.82153346
2.77550,-34.15920056
2.77600,-31.7176453
2.77650,-29.88647886
2.77700,-26.22414596
2.77750,-19.20467459
2.77800,-13.10078643
2.77850,-12.79559202
2.77900,-17.67870255
2.77950,-20.42545222
2.78000,-14.93195288
2.78050,-4.250148608
2.78100,5.516072438
2.78150,10.09398855
2.78200,11.31476618
2.78250,10.39918296
2.78300,7.347238884
2.78350,1.548545138
2.78400,-5.470926239
2.78450,-11.57481439
2.78500,-14.01636965
2.78550,-14.01636965
2.78600,-13.71117525
2.78650,-14.01636965
2.78700,-13.10078643
2.78750,-9.743647947
2.78800,-5.470926239
2.78850,-1.503398939
2.78900,2.769322769
2.78950,9.483599738
2.79000,17.41865434
2.79050,21.99657045
2.79100,20.16540401
2.79150,14.97709908
2.79200,10.70437737
2.79250,8.873210923
2.79300,8.262822108
2.79350,9.483599738
2.79400,12.53554382
2.79450,15.28229348
2.79500,14.06151585
2.79550,9.178405331
2.79600,4.600489215
2.79650,3.074517177
2.79700,2.464128361
2.79750,0.02257309962
2.79800,-3.029370977
2.79850,-4.250148608
2.79900,-3.639759793
2.79950,-2.72417657
2.80000,-1.808593347
2.80050,0.3277675073
2.80100,3.9901004
2.80150,7.652433292
2.80200,13.75632145
2.80250,23.21734808
2.80300,33.59395795
2.80350,37.25629084
2.80400,30.54201387
2.80450,18.63943197
2.80500,10.39918296
2.80550,8.873210923
2.80600,10.70437737
2.80650,11.31476618
2.80700,8.262822108
2.80750,3.684905992
2.80800,0.02257309962
2.80850,-1.198204531
2.80900,0.02257309962
2.80950,1.24335073
2.81000,1.548545138
2.81050,2.158933954
2.81100,4.600489215
2.81150,8.262822108
2.81200,9.788794146
2.81250,8.568016515
2.81300,5.821266846
2.81350,2.769322769
2.81400,0.632961915
2.81450,0.02257309962
2.81500,1.548545138
2.81550,4.600489215
2.81600,6.736850069
2.81650,5.516072438
2.81700,0.9381563227
2.81750,-4.555343016
2.81800,-9.438453539
2.81850,-13.10078643
2.81900,-16.76311932
2.81950,-20.73064662
2.82000,-21.95142425
2.82050,-17.67870255
2.82100,-8.828064724
2.82150,0.02257309962
2.82200,6.431655661
2.82250,10.39918296
2.82300,12.53554382
2.82350,12.23034941
2.82400,8.873210923
2.82450,5.516072438
2.82500,4.600489215
2.82550,6.736850069
2.82600,10.39918296
2.82650,15.28229348
2.82700,21.08098723
2.82750,26.57448657
2.82800,30.54201387
2.82850,31.7627915
2.82900,28.71084742
2.82950,20.16540401
2.83000,8.873210923
2.83050,0.02257309962
2.83100,-3.639759793
2.83150,-6.69170387
2.83200,-13.10078643
2.83250,-20.42545222
2.83300,-24.39297952
2.83350,-23.7825907
2.83400,-22.25661866
2.83450,-21.03584103
2.83500,-17.37350814
2.83550,-10.04884235
2.83600,-1.808593347
2.83650,3.9901004
2.83700,8.873210923
2.83750,14.36671026
2.83800,18.33423756
2.83850,16.80826552
2.83900,8.873210923
2.83950,2.158933954
2.84000,2.464128361
2.84050,6.126461254
2.84100,5.821266846
2.84150,0.9381563227
2.84200,-0.8930101235
2.84250,3.074517177
2.84300,7.347238884
2.84350,5.821266846
2.84400,1.24335073
2.84450,2.464128361
2.84500,11.61996059
2.84550,23.52254249
2.84600,31.15240269
2.84650,32.67837472
2.84700,31.15240269
2.84750,29.93162505
2.84800,27.49006979
2.84850,20.77579282
2.84900,9.178405331
2.84950,-1.503398939
2.85000,-5.776120647
2.85050,-3.029370977
2.85100,0.632961915
2.85150,1.548545138
2.85200,0.632961915
2.85250,-0.5878157158
2.85300,-3.639759793
2.85350,-9.133259131
2.85400,-16.76311932
2.85450,-23.47739629
2.85500,-28.36050682
2.85550,-30.19167326
2.85600,-30.19167326
2.85650,-30.80206208
2.85700,-35.37997819
2.85750,-42.39944957
2.85800,-46.06178246
2.85850,-43.00983839
2.85900,-36.90595023
2.85950,-30.49686767
2.86000,-22.56181307
2.86050,-12.79559202
2.86100,-5.470926239
2.86150,-6.081315054
2.86200,-13.10078643
2.86250,-19.20467459
2.86300,-22.56181307
2.86350,-25.61375715
2.86400,-29.88647886
2.86450,-33.24361734
2.86500,-33.24361734
2.86550,-31.41245089
2.86600,-28.97089563
2.86650,-23.7825907
2.86700,-14.32156406
2.86750,-3.9449542
2.86800,4.295294807
2.86850,11.61996059
2.86900,18.94462638
2.86950,25.65890335
2.87000,29.62643065
2.87050,30.54201387
2.87100,30.84720828
2.87150,31.7627915
2.87200,32.37318032
2.87250,31.15240269
2.87300,27.49006979
2.87350,19.55501519
2.87400,7.042044477
2.87450,-6.69170387
2.87500,-19.50986899
2.87550,-29.27609004
2.87600,-37.51633905
2.87650,-44.53581042
2.87700,-49.11372654
2.87750,-49.11372654
2.87800,-44.84100483
2.87850,-38.73711668
2.87900,-32.32803412
2.87950,-26.22414596
2.88000,-19.8150634
2.88050,-14.01636965
2.88100,-9.133259131
2.88150,-5.776120647
2.88200,-3.029370977
2.88250,-0.8930101235
2.88300,0.3277675073
2.88350,3.074517177
2.88400,8.873210923
2.88450,15.58748789
2.88500,18.63943197
2.88550,14.67190467
2.88600,5.516072438
2.88650,-2.418982162
2.88700,-4.860537424
2.88750,-2.113787754
2.88800,0.3277675073
2.88850,0.02257309962
2.88900,-2.72417657
2.88950,-2.72417657
2.89000,2.769322769
2.89050,10.09398855
2.89100,12.84073822
2.89150,11.61996059
2.89200,11.925155
2.89250,16.80826552
2.89300,22.60695927
2.89350,25.04851453
2.89400,25.04851453
2.89450,25.04851453
2.89500,24.74332012
2.89550,22.30176486
2.89600,19.8602096
2.89650,19.55501519
2.89700,20.77579282
2.89750,21.08098723
2.89800,20.47059842
2.89850,20.47059842
2.89900,19.8602096
2.89950,16.50307112
2.90000,11.925155
2.90050,8.262822108
2.90100,5.821266846
2.90150,3.684905992
2.90200,2.769322769
2.90250,3.074517177
2.90300,2.464128361
2.90350,-1.808593347
2.90400,-6.996898278
2.90450,-6.081315054
2.90500,0.02257309962
2.90550,4.905683623
2.90600,5.516072438
2.90650,7.652433292
2.90700,14.67190467
2.90750,22.91215368
2.90800,27.49006979
2.90850,30.23681946
2.90900,33.89915235
2.90950,35.11992999
2.91000,29.62643065
2.91050,20.16540401
2.91100,13.14593263
2.91150,10.39918296
2.91200,7.652433292
2.91250,2.769322769
2.91300,-2.72417657
2.91350,-6.386509462
2.91400,-8.217675908
2.91450,-8.217675908
2.91500,-8.217675908
2.91550,-9.438453539
2.91600,-11.8800088
2.91650,-13.71117525
2.91700,-15.23714729
2.91750,-20.12025781
2.91800,-29.27609004
2.91850,-35.99036701
2.91900,-33.24361734
2.91950,-24.69817392
2.92000,-19.20467459
2.92050,-18.28909136
2.92100,-15.54234169
2.92150,-9.133259131
2.92200,-5.776120647
2.92250,-8.217675908
2.92300,-10.65923117
2.92350,-7.302092685
2.92400,-2.72417657
