type,name,time_units,begin_time,frequency,count,units
signal,"Noraxon Ultium-RT BICEPS BR.","s",0.00000,2000,57280,"uV"

time,value
0.00000,2.434996861
0.00050,2.434996861
0.00100,2.740191269
0.00150,3.045385676
0.00200,3.9609689
0.00250,4.571357715
0.00300,4.266163307
0.00350,2.434996861
0.00400,0.6038304148
0.00450,-0.3117528083
0.00500,-0.616947216
0.00550,-0.616947216
0.00600,-0.9221416237
0.00650,-1.837724847
0.00700,-2.75330807
0.00750,-2.142919254
0.00800,-0.3117528083
0.00850,1.21421923
0.00900,1.21421923
0.00950,-0.3117528083
0.01000,-2.142919254
0.01050,-3.058502478
0.01100,-3.363696885
0.01150,-3.668891293
0.01200,-3.974085701
0.01250,-3.974085701
0.01300,-4.279280108
0.01350,-5.805252147
0.01400,-6.72083537
0.01450,-6.415640962
0.01500,-5.194863331
0.01550,-4.584474516
0.01600,-4.584474516
0.01650,-4.889668924
0.01700,-3.974085701
0.01750,-1.837724847
0.01800,-0.006558400565
0.01850,0.6038304148
0.01900,-0.006558400565
0.01950,-0.006558400565
0.02000,0.9090248225
0.02050,1.824608046
0.02100,1.21421923
0.02150,0.2986360071
0.02200,-0.006558400565
0.02250,1.21421923
0.02300,1.824608046
0.02350,1.519413638
0.02400,0.6038304148
0.02450,-0.006558400565
0.02500,-0.3117528083
0.02550,-0.9221416237
0.02600,-1.227336031
0.02650,-0.616947216
0.02700,-0.3117528083
0.02750,-1.227336031
0.02800,-1.532530439
0.02850,-0.006558400565
0.02900,1.519413638
0.02950,1.824608046
0.03000,1.824608046
0.03050,2.129802453
0.03100,3.045385676
0.03150,2.740191269
0.03200,1.21421923
0.03250,-0.006558400565
0.03300,0.9090248225
0.03350,2.129802453
0.03400,2.129802453
0.03450,1.519413638
0.03500,0.9090248225
0.03550,1.519413638
0.03600,1.824608046
0.03650,2.129802453
0.03700,2.434996861
0.03750,3.350580084
0.03800,3.655774492
0.03850,2.740191269
0.03900,1.21421923
0.03950,-0.3117528083
0.04000,-0.9221416237
0.04050,-0.3117528083
0.04100,-0.006558400565
0.04150,-0.616947216
0.04200,-1.532530439
0.04250,-2.142919254
0.04300,-1.227336031
0.04350,-0.616947216
0.04400,-1.532530439
0.04450,-2.142919254
0.04500,-0.9221416237
0.04550,0.9090248225
0.04600,1.824608046
0.04650,1.21421923
0.04700,-0.006558400565
0.04750,-0.616947216
0.04800,-0.616947216
0.04850,-0.3117528083
0.04900,0.6038304148
0.04950,1.21421923
0.05000,0.2986360071
0.05050,-1.227336031
0.05100,-1.532530439
0.05150,-0.006558400565
0.05200,1.519413638
0.05250,0.9090248225
0.05300,-0.006558400565
0.05350,1.21421923
0.05400,4.266163307
0.05450,5.792135346
0.05500,5.486940938
0.05550,4.876552123
0.05600,5.18174653
0.05650,4.876552123
0.05700,3.350580084
0.05750,2.434996861
0.05800,2.129802453
0.05850,1.21421923
0.05900,-0.006558400565
0.05950,-0.616947216
0.06000,-0.9221416237
0.06050,-2.75330807
0.06100,-5.805252147
0.06150,-6.415640962
0.06200,-4.279280108
0.06250,-2.448113662
0.06300,-3.363696885
0.06350,-4.889668924
0.06400,-3.668891293
0.06450,-0.616947216
0.06500,-0.006558400565
0.06550,-1.227336031
0.06600,-1.837724847
0.06650,-0.3117528083
0.06700,0.6038304148
0.06750,0.9090248225
0.06800,1.824608046
0.06850,4.266163307
0.06900,5.792135346
0.06950,5.486940938
0.07000,3.655774492
0.07050,3.045385676
0.07100,3.9609689
0.07150,5.18174653
0.07200,5.18174653
0.07250,4.266163307
0.07300,3.045385676
0.07350,1.519413638
0.07400,-0.006558400565
0.07450,-1.227336031
0.07500,-1.837724847
0.07550,-1.227336031
0.07600,-0.3117528083
0.07650,-0.9221416237
0.07700,-1.837724847
0.07750,-2.448113662
0.07800,-2.448113662
0.07850,-3.058502478
0.07900,-3.668891293
0.07950,-3.974085701
0.08000,-3.974085701
0.08050,-3.974085701
0.08100,-3.363696885
0.08150,-1.837724847
0.08200,-0.616947216
0.08250,-0.9221416237
0.08300,-1.837724847
0.08350,-1.227336031
0.08400,0.2986360071
0.08450,0.6038304148
0.08500,-0.616947216
0.08550,-0.3117528083
0.08600,2.434996861
0.08650,5.792135346
0.08700,6.402524161
0.08750,3.9609689
0.08800,1.519413638
0.08850,0.9090248225
0.08900,1.21421923
0.08950,1.519413638
0.09000,1.21421923
0.09050,-0.006558400565
0.09100,-1.227336031
0.09150,-1.532530439
0.09200,-1.227336031
0.09250,-1.227336031
0.09300,-2.75330807
0.09350,-4.584474516
0.09400,-4.889668924
0.09450,-3.974085701
0.09500,-3.668891293
0.09550,-3.668891293
0.09600,-3.668891293
0.09650,-3.058502478
0.09700,-1.837724847
0.09750,-1.532530439
0.09800,-1.837724847
0.09850,-2.448113662
0.09900,-1.837724847
0.09950,-0.3117528083
0.10000,0.2986360071
0.10050,-0.006558400565
0.10100,-0.616947216
0.10150,-0.616947216
0.10200,-0.006558400565
0.10250,-0.006558400565
0.10300,-0.006558400565
0.10350,-0.9221416237
0.10400,-1.532530439
0.10450,-1.227336031
0.10500,-0.006558400565
0.10550,1.824608046
0.10600,2.129802453
0.10650,0.9090248225
0.10700,0.2986360071
0.10750,0.9090248225
0.10800,2.434996861
0.10850,3.655774492
0.10900,4.266163307
0.10950,5.18174653
0.11000,6.097329753
0.11050,6.402524161
0.11100,5.792135346
0.11150,5.486940938
0.11200,4.571357715
0.11250,2.740191269
0.11300,0.6038304148
0.11350,-0.9221416237
0.11400,-1.837724847
0.11450,-3.058502478
0.11500,-4.889668924
0.11550,-6.415640962
0.11600,-7.026029778
0.11650,-6.415640962
0.11700,-4.889668924
0.11750,-3.668891293
0.11800,-3.974085701
0.11850,-3.974085701
0.11900,-2.75330807
0.11950,-0.006558400565
0.12000,1.824608046
0.12050,2.740191269
0.12100,3.045385676
0.12150,3.350580084
0.12200,3.655774492
0.12250,3.655774492
0.12300,3.045385676
0.12350,3.045385676
0.12400,3.045385676
0.12450,2.740191269
0.12500,1.824608046
0.12550,0.9090248225
0.12600,-0.006558400565
0.12650,-0.9221416237
0.12700,-1.532530439
0.12750,-2.142919254
0.12800,-2.75330807
0.12850,-3.363696885
0.12900,-3.363696885
0.12950,-2.448113662
0.13000,-2.142919254
0.13050,-3.058502478
0.13100,-3.363696885
0.13150,-1.837724847
0.13200,-0.006558400565
0.13250,0.9090248225
0.13300,0.6038304148
0.13350,0.2986360071
0.13400,0.2986360071
0.13450,-0.006558400565
0.13500,-0.616947216
0.13550,-0.3117528083
0.13600,1.519413638
0.13650,2.740191269
0.13700,1.824608046
0.13750,0.2986360071
0.13800,0.6038304148
0.13850,2.434996861
0.13900,3.655774492
0.13950,3.045385676
0.14000,1.824608046
0.14050,1.519413638
0.14100,1.21421923
0.14150,0.9090248225
0.14200,0.6038304148
0.14250,1.519413638
0.14300,2.434996861
0.14350,2.129802453
0.14400,1.21421923
0.14450,0.6038304148
0.14500,-0.006558400565
0.14550,-0.006558400565
0.14600,-0.006558400565
0.14650,0.9090248225
0.14700,1.519413638
0.14750,0.2986360071
0.14800,-0.9221416237
0.14850,-1.227336031
0.14900,0.2986360071
0.14950,2.434996861
0.15000,3.350580084
0.15050,3.655774492
0.15100,4.266163307
0.15150,5.18174653
0.15200,5.486940938
0.15250,4.876552123
0.15300,4.571357715
0.15350,4.266163307
0.15400,3.350580084
0.15450,1.519413638
0.15500,-0.006558400565
0.15550,-0.9221416237
0.15600,-1.227336031
0.15650,-1.837724847
0.15700,-2.75330807
0.15750,-3.058502478
0.15800,-3.363696885
0.15850,-3.974085701
0.15900,-4.889668924
0.15950,-4.584474516
0.16000,-1.532530439
0.16050,3.045385676
0.16100,6.097329753
0.16150,4.876552123
0.16200,1.824608046
0.16250,0.2986360071
0.16300,0.6038304148
0.16350,0.2986360071
0.16400,-0.616947216
0.16450,-1.227336031
0.16500,-1.227336031
0.16550,-1.227336031
0.16600,-2.75330807
0.16650,-3.363696885
0.16700,-2.142919254
0.16750,-0.9221416237
0.16800,-1.532530439
0.16850,-2.75330807
0.16900,-2.142919254
0.16950,-0.006558400565
0.17000,1.519413638
0.17050,1.824608046
0.17100,2.740191269
0.17150,3.9609689
0.17200,3.9609689
0.17250,2.129802453
0.17300,0.9090248225
0.17350,1.21421923
0.17400,2.129802453
0.17450,1.21421923
0.17500,-0.616947216
0.17550,-2.142919254
0.17600,-3.058502478
0.17650,-4.584474516
0.17700,-6.110446555
0.17750,-6.415640962
0.17800,-6.110446555
0.17850,-5.805252147
0.17900,-5.805252147
0.17950,-5.500057739
0.18000,-4.889668924
0.18050,-4.279280108
0.18100,-4.279280108
0.18150,-4.279280108
0.18200,-3.668891293
0.18250,-2.75330807
0.18300,-2.142919254
0.18350,-2.142919254
0.18400,-2.75330807
0.18450,-3.363696885
0.18500,-3.363696885
0.18550,-2.448113662
0.18600,-0.616947216
0.18650,1.519413638
0.18700,3.045385676
0.18750,2.740191269
0.18800,0.9090248225
0.18850,-0.006558400565
0.18900,0.2986360071
0.18950,0.6038304148
0.19000,-0.006558400565
0.19050,-0.006558400565
0.19100,0.2986360071
0.19150,1.21421923
0.19200,1.21421923
0.19250,0.9090248225
0.19300,1.21421923
0.19350,2.129802453
0.19400,2.740191269
0.19450,2.434996861
0.19500,2.129802453
0.19550,1.519413638
0.19600,0.6038304148
0.19650,-0.006558400565
0.19700,-0.3117528083
0.19750,-0.006558400565
0.19800,0.2986360071
0.19850,0.6038304148
0.19900,-0.006558400565
0.19950,-0.3117528083
0.20000,-0.616947216
0.20050,-0.006558400565
0.20100,0.6038304148
0.20150,0.6038304148
0.20200,-0.006558400565
0.20250,-0.006558400565
0.20300,0.9090248225
0.20350,0.9090248225
0.20400,-0.006558400565
0.20450,-0.3117528083
0.20500,0.2986360071
0.20550,1.519413638
0.20600,1.21421923
0.20650,-0.006558400565
0.20700,-0.006558400565
0.20750,0.2986360071
0.20800,0.6038304148
0.20850,-0.006558400565
0.20900,-0.616947216
0.20950,-0.3117528083
0.21000,0.2986360071
0.21050,0.2986360071
0.21100,-0.006558400565
0.21150,0.6038304148
0.21200,1.519413638
0.21250,2.129802453
0.21300,1.824608046
0.21350,1.21421923
0.21400,1.824608046
0.21450,1.824608046
0.21500,0.6038304148
0.21550,-1.227336031
0.21600,-1.227336031
0.21650,0.6038304148
0.21700,1.824608046
0.21750,0.2986360071
0.21800,-0.9221416237
0.21850,-0.616947216
0.21900,0.9090248225
0.21950,1.824608046
0.22000,0.2986360071
0.22050,-1.227336031
0.22100,-0.9221416237
0.22150,0.6038304148
0.22200,1.824608046
0.22250,1.824608046
0.22300,0.9090248225
0.22350,-0.006558400565
0.22400,-0.006558400565
0.22450,0.9090248225
0.22500,2.434996861
0.22550,2.740191269
0.22600,1.824608046
0.22650,0.9090248225
0.22700,0.9090248225
0.22750,0.9090248225
0.22800,-0.006558400565
0.22850,-0.9221416237
0.22900,-0.006558400565
0.22950,1.519413638
0.23000,1.824608046
0.23050,1.21421923
0.23100,1.21421923
0.23150,1.824608046
0.23200,2.129802453
0.23250,1.519413638
0.23300,1.519413638
0.23350,2.434996861
0.23400,2.740191269
0.23450,1.824608046
0.23500,0.2986360071
0.23550,-0.006558400565
0.23600,0.6038304148
0.23650,2.434996861
0.23700,5.18174653
0.23750,7.9284962
0.23800,9.14927383
0.23850,8.844079423
0.23900,7.9284962
0.23950,6.707718569
0.24000,5.18174653
0.24050,2.434996861
0.24100,-0.9221416237
0.24150,-3.974085701
0.24200,-6.72083537
0.24250,-9.467585039
0.24300,-10.99355708
0.24350,-10.99355708
0.24400,-9.467585039
0.24450,-9.467585039
0.24500,-11.29875149
0.24550,-12.21433471
0.24600,-10.68836267
0.24650,-7.331224185
0.24700,-5.194863331
0.24750,-4.584474516
0.24800,-3.974085701
0.24850,-3.058502478
0.24900,-2.448113662
0.24950,-2.75330807
0.25000,-2.75330807
0.25050,-2.142919254
0.25100,-2.142919254
0.25150,-2.75330807
0.25200,-2.75330807
0.25250,-1.532530439
0.25300,-0.3117528083
0.25350,-1.227336031
0.25400,-2.448113662
0.25450,-2.142919254
0.25500,-0.006558400565
0.25550,0.9090248225
0.25600,0.2986360071
0.25650,-0.616947216
0.25700,-0.9221416237
0.25750,-0.616947216
0.25800,-0.3117528083
0.25850,-0.006558400565
0.25900,0.9090248225
0.25950,2.129802453
0.26000,2.434996861
0.26050,2.129802453
0.26100,1.21421923
0.26150,0.9090248225
0.26200,1.519413638
0.26250,3.045385676
0.26300,4.266163307
0.26350,4.266163307
0.26400,3.350580084
0.26450,3.9609689
0.26500,5.18174653
0.26550,5.18174653
0.26600,3.045385676
0.26650,0.9090248225
0.26700,0.6038304148
0.26750,0.9090248225
0.26800,-0.006558400565
0.26850,-2.142919254
0.26900,-2.75330807
0.26950,-2.448113662
0.27000,-3.058502478
0.27050,-4.889668924
0.27100,-5.805252147
0.27150,-4.584474516
0.27200,-2.448113662
0.27250,-1.532530439
0.27300,-1.227336031
0.27350,-0.3117528083
0.27400,0.2986360071
0.27450,-0.006558400565
0.27500,-0.9221416237
0.27550,-1.837724847
0.27600,-1.837724847
0.27650,-1.532530439
0.27700,-0.9221416237
0.27750,-0.616947216
0.27800,-0.3117528083
0.27850,-0.006558400565
0.27900,-0.006558400565
0.27950,0.6038304148
0.28000,0.6038304148
0.28050,0.2986360071
0.28100,-0.006558400565
0.28150,0.6038304148
0.28200,0.6038304148
0.28250,-0.006558400565
0.28300,-0.9221416237
0.28350,-1.227336031
0.28400,-0.9221416237
0.28450,-0.616947216
0.28500,-0.3117528083
0.28550,-0.3117528083
0.28600,-0.006558400565
0.28650,-0.006558400565
0.28700,-0.006558400565
0.28750,-0.006558400565
0.28800,-0.006558400565
0.28850,0.2986360071
0.28900,0.9090248225
0.28950,1.824608046
0.29000,1.824608046
0.29050,0.2986360071
0.29100,-0.616947216
0.29150,-0.3117528083
0.29200,0.2986360071
0.29250,0.2986360071
0.29300,-0.616947216
0.29350,-0.9221416237
0.29400,-0.006558400565
0.29450,0.9090248225
0.29500,1.21421923
0.29550,1.21421923
0.29600,1.21421923
0.29650,0.2986360071
0.29700,-0.3117528083
0.29750,-0.006558400565
0.29800,0.9090248225
0.29850,1.519413638
0.29900,0.9090248225
0.29950,0.2986360071
0.30000,1.21421923
0.30050,1.519413638
0.30100,0.9090248225
0.30150,0.2986360071
0.30200,0.9090248225
0.30250,1.519413638
0.30300,1.21421923
0.30350,-0.006558400565
0.30400,-0.616947216
0.30450,-0.006558400565
0.30500,1.21421923
0.30550,2.129802453
0.30600,2.129802453
0.30650,2.129802453
0.30700,2.129802453
0.30750,2.129802453
0.30800,1.824608046
0.30850,0.9090248225
0.30900,0.6038304148
0.30950,1.519413638
0.31000,2.740191269
0.31050,2.740191269
0.31100,1.21421923
0.31150,0.2986360071
0.31200,0.6038304148
0.31250,1.21421923
0.31300,0.2986360071
0.31350,-0.9221416237
0.31400,-0.3117528083
0.31450,0.9090248225
0.31500,1.824608046
0.31550,0.6038304148
0.31600,-0.006558400565
0.31650,0.6038304148
0.31700,2.129802453
0.31750,2.129802453
0.31800,0.6038304148
0.31850,-0.616947216
0.31900,-1.227336031
0.31950,-1.837724847
0.32000,-2.448113662
0.32050,-2.75330807
0.32100,-2.75330807
0.32150,-2.75330807
0.32200,-2.448113662
0.32250,-0.9221416237
0.32300,-0.006558400565
0.32350,-0.006558400565
0.32400,0.9090248225
0.32450,3.9609689
0.32500,7.9284962
0.32550,9.14927383
0.32600,6.707718569
0.32650,3.655774492
0.32700,2.740191269
0.32750,3.045385676
0.32800,2.129802453
0.32850,-0.3117528083
0.32900,-2.75330807
0.32950,-3.363696885
0.33000,-2.75330807
0.33050,-2.448113662
0.33100,-1.837724847
0.33150,-0.9221416237
0.33200,-0.616947216
0.33250,-0.3117528083
0.33300,-0.3117528083
0.33350,-0.006558400565
0.33400,-0.006558400565
0.33450,0.2986360071
0.33500,-0.006558400565
0.33550,-0.616947216
0.33600,-1.227336031
0.33650,-1.532530439
0.33700,-2.142919254
0.33750,-2.75330807
0.33800,-3.058502478
0.33850,-2.448113662
0.33900,-1.227336031
0.33950,-0.9221416237
0.34000,-2.142919254
0.34050,-3.668891293
0.34100,-3.974085701
0.34150,-3.974085701
0.34200,-3.668891293
0.34250,-2.75330807
0.34300,-0.616947216
0.34350,0.6038304148
0.34400,-0.3117528083
0.34450,-2.448113662
0.34500,-2.75330807
0.34550,-0.9221416237
0.34600,-0.006558400565
0.34650,-0.3117528083
0.34700,-0.616947216
0.34750,-0.006558400565
0.34800,0.9090248225
0.34850,1.519413638
0.34900,2.434996861
0.34950,3.350580084
0.35000,3.655774492
0.35050,2.740191269
0.35100,1.824608046
0.35150,2.434996861
0.35200,3.045385676
0.35250,3.045385676
0.35300,2.740191269
0.35350,3.655774492
0.35400,3.9609689
0.35450,1.824608046
0.35500,-0.616947216
0.35550,-0.9221416237
0.35600,1.21421923
0.35650,2.434996861
0.35700,0.6038304148
0.35750,-1.837724847
0.35800,-2.75330807
0.35850,-2.142919254
0.35900,-1.532530439
0.35950,-0.616947216
0.36000,0.6038304148
0.36050,1.21421923
0.36100,-0.006558400565
0.36150,-1.227336031
0.36200,-0.616947216
0.36250,0.2986360071
0.36300,0.6038304148
0.36350,0.2986360071
0.36400,0.6038304148
0.36450,0.9090248225
0.36500,0.6038304148
0.36550,-0.006558400565
0.36600,0.6038304148
0.36650,1.824608046
0.36700,1.519413638
0.36750,0.9090248225
0.36800,1.519413638
0.36850,2.129802453
0.36900,0.6038304148
0.36950,-2.142919254
0.37000,-3.668891293
0.37050,-2.448113662
0.37100,-0.616947216
0.37150,-0.616947216
0.37200,-1.837724847
0.37250,-2.142919254
0.37300,-2.142919254
0.37350,-2.142919254
0.37400,-2.142919254
0.37450,-1.532530439
0.37500,-0.9221416237
0.37550,-0.616947216
0.37600,-0.9221416237
0.37650,-0.9221416237
0.37700,-0.9221416237
0.37750,-0.9221416237
0.37800,-0.9221416237
0.37850,-0.616947216
0.37900,-0.006558400565
0.37950,0.6038304148
0.38000,1.21421923
0.38050,0.9090248225
0.38100,0.6038304148
0.38150,0.9090248225
0.38200,0.9090248225
0.38250,-0.006558400565
0.38300,-1.532530439
0.38350,-2.142919254
0.38400,-0.9221416237
0.38450,0.2986360071
0.38500,0.2986360071
0.38550,-0.006558400565
0.38600,-0.3117528083
0.38650,-0.3117528083
0.38700,-0.3117528083
0.38750,-0.616947216
0.38800,-0.3117528083
0.38850,-0.006558400565
0.38900,-0.616947216
0.38950,-0.616947216
0.39000,0.6038304148
0.39050,2.129802453
0.39100,2.129802453
0.39150,0.6038304148
0.39200,-0.006558400565
0.39250,-0.006558400565
0.39300,-0.006558400565
0.39350,-0.616947216
0.39400,-0.616947216
0.39450,0.2986360071
0.39500,1.519413638
0.39550,1.21421923
0.39600,0.6038304148
0.39650,0.9090248225
0.39700,1.21421923
0.39750,0.6038304148
0.39800,-0.616947216
0.39850,-0.9221416237
0.39900,-0.616947216
0.39950,-0.006558400565
0.40000,1.21421923
0.40050,4.876552123
0.40100,8.844079423
0.40150,10.37005146
0.40200,9.454468238
0.40250,7.9284962
0.40300,6.707718569
0.40350,4.876552123
0.40400,2.129802453
0.40450,0.2986360071
0.40500,-0.3117528083
0.40550,-1.837724847
0.40600,-4.889668924
0.40650,-7.636418593
0.40700,-7.941613001
0.40750,-6.72083537
0.40800,-5.500057739
0.40850,-4.889668924
0.40900,-4.584474516
0.40950,-3.668891293
0.41000,-3.363696885
0.41050,-2.75330807
0.41100,-1.837724847
0.41150,-0.616947216
0.41200,-0.006558400565
0.41250,-0.006558400565
0.41300,0.2986360071
0.41350,0.9090248225
0.41400,0.9090248225
0.41450,-0.3117528083
0.41500,-2.142919254
0.41550,-2.75330807
0.41600,-2.142919254
0.41650,-1.837724847
0.41700,-2.75330807
0.41750,-3.363696885
0.41800,-2.75330807
0.41850,-1.227336031
0.41900,-0.616947216
0.41950,-1.227336031
0.42000,-1.227336031
0.42050,-0.3117528083
0.42100,0.6038304148
0.42150,0.9090248225
0.42200,-0.006558400565
0.42250,-0.616947216
0.42300,-0.3117528083
0.42350,-0.006558400565
0.42400,0.2986360071
0.42450,0.6038304148
0.42500,1.21421923
0.42550,0.6038304148
0.42600,-1.227336031
0.42650,-3.363696885
0.42700,-3.058502478
0.42750,-0.616947216
0.42800,0.2986360071
0.42850,-0.006558400565
0.42900,-0.006558400565
0.42950,1.519413638
0.43000,1.824608046
0.43050,-0.3117528083
0.43100,-1.532530439
0.43150,0.2986360071
0.43200,3.350580084
0.43250,2.129802453
0.43300,-0.9221416237
0.43350,-1.837724847
0.43400,-0.006558400565
0.43450,0.9090248225
0.43500,-0.3117528083
0.43550,-0.9221416237
0.43600,0.6038304148
0.43650,1.824608046
0.43700,0.6038304148
0.43750,-0.3117528083
0.43800,0.2986360071
0.43850,1.21421923
0.43900,-0.006558400565
0.43950,-0.9221416237
0.44000,-0.006558400565
0.44050,1.21421923
0.44100,1.21421923
0.44150,-0.006558400565
0.44200,0.2986360071
0.44250,1.824608046
0.44300,2.129802453
0.44350,1.21421923
0.44400,0.6038304148
0.44450,0.2986360071
0.44500,0.2986360071
0.44550,0.2986360071
0.44600,1.21421923
0.44650,1.824608046
0.44700,0.9090248225
0.44750,-0.3117528083
0.44800,-0.3117528083
0.44850,0.6038304148
0.44900,1.21421923
0.44950,0.2986360071
0.45000,-0.006558400565
0.45050,0.9090248225
0.45100,1.519413638
0.45150,0.2986360071
0.45200,-0.9221416237
0.45250,-0.616947216
0.45300,0.2986360071
0.45350,0.6038304148
0.45400,0.6038304148
0.45450,0.6038304148
0.45500,0.2986360071
0.45550,-0.616947216
0.45600,-1.532530439
0.45650,-1.227336031
0.45700,0.2986360071
0.45750,2.434996861
0.45800,3.045385676
0.45850,2.434996861
0.45900,1.21421923
0.45950,0.2986360071
0.46000,-0.006558400565
0.46050,0.2986360071
0.46100,0.6038304148
0.46150,-0.006558400565
0.46200,-0.616947216
0.46250,-0.3117528083
0.46300,0.6038304148
0.46350,1.21421923
0.46400,0.9090248225
0.46450,0.9090248225
0.46500,1.519413638
0.46550,2.740191269
0.46600,3.350580084
0.46650,3.350580084
0.46700,2.740191269
0.46750,2.434996861
0.46800,1.824608046
0.46850,0.6038304148
0.46900,-0.616947216
0.46950,-2.448113662
0.47000,-2.75330807
0.47050,-2.448113662
0.47100,-2.142919254
0.47150,-2.448113662
0.47200,-3.363696885
0.47250,-3.974085701
0.47300,-3.363696885
0.47350,-2.448113662
0.47400,-1.532530439
0.47450,-1.227336031
0.47500,-1.227336031
0.47550,-1.532530439
0.47600,-1.532530439
0.47650,-1.227336031
0.47700,-0.616947216
0.47750,-0.006558400565
0.47800,-0.006558400565
0.47850,-0.616947216
0.47900,-1.532530439
0.47950,-1.227336031
0.48000,-0.3117528083
0.48050,0.2986360071
0.48100,-0.006558400565
0.48150,-0.006558400565
0.48200,1.519413638
0.48250,3.045385676
0.48300,3.045385676
0.48350,1.21421923
0.48400,-0.006558400565
0.48450,-0.3117528083
0.48500,-0.006558400565
0.48550,1.21421923
0.48600,2.129802453
0.48650,2.740191269
0.48700,2.740191269
0.48750,2.434996861
0.48800,2.740191269
0.48850,2.740191269
0.48900,2.129802453
0.48950,1.21421923
0.49000,1.21421923
0.49050,1.519413638
0.49100,0.6038304148
0.49150,-0.616947216
0.49200,-1.532530439
0.49250,-0.9221416237
0.49300,-0.9221416237
0.49350,-2.142919254
0.49400,-3.363696885
0.49450,-3.668891293
0.49500,-3.058502478
0.49550,-3.058502478
0.49600,-3.058502478
0.49650,-1.837724847
0.49700,-0.006558400565
0.49750,1.21421923
0.49800,2.740191269
0.49850,5.486940938
0.49900,9.14927383
0.49950,10.37005146
0.50000,7.9284962
0.50050,3.9609689
0.50100,2.129802453
0.50150,1.824608046
0.50200,0.9090248225
0.50250,-1.227336031
0.50300,-3.363696885
0.50350,-3.974085701
0.50400,-3.668891293
0.50450,-3.668891293
0.50500,-3.058502478
0.50550,-0.9221416237
0.50600,0.2986360071
0.50650,0.2986360071
0.50700,-0.616947216
0.50750,-1.227336031
0.50800,-0.3117528083
0.50850,0.2986360071
0.50900,0.6038304148
0.50950,0.2986360071
0.51000,0.6038304148
0.51050,1.519413638
0.51100,2.740191269
0.51150,2.740191269
0.51200,0.9090248225
0.51250,-0.3117528083
0.51300,0.2986360071
0.51350,2.129802453
0.51400,2.129802453
0.51450,-0.006558400565
0.51500,-3.363696885
0.51550,-5.500057739
0.51600,-6.110446555
0.51650,-6.110446555
0.51700,-6.110446555
0.51750,-6.415640962
0.51800,-6.72083537
0.51850,-7.331224185
0.51900,-7.026029778
0.51950,-6.110446555
0.52000,-4.279280108
0.52050,-2.448113662
0.52100,-0.006558400565
0.52150,1.824608046
0.52200,1.824608046
0.52250,0.6038304148
0.52300,-0.006558400565
0.52350,-0.3117528083
0.52400,-1.227336031
0.52450,-3.058502478
0.52500,-3.974085701
0.52550,-3.058502478
0.52600,-2.448113662
0.52650,-3.058502478
0.52700,-3.058502478
0.52750,-1.227336031
0.52800,0.6038304148
0.52850,0.6038304148
0.52900,-0.006558400565
0.52950,0.6038304148
0.53000,2.129802453
0.53050,2.129802453
0.53100,0.9090248225
0.53150,0.2986360071
0.53200,1.519413638
0.53250,1.824608046
0.53300,1.21421923
0.53350,0.6038304148
0.53400,0.9090248225
0.53450,1.21421923
0.53500,0.2986360071
0.53550,0.6038304148
0.53600,2.129802453
0.53650,4.266163307
0.53700,4.266163307
0.53750,2.434996861
0.53800,0.6038304148
0.53850,-0.006558400565
0.53900,0.9090248225
0.53950,2.129802453
0.54000,2.129802453
0.54050,0.6038304148
0.54100,-0.3117528083
0.54150,-0.006558400565
0.54200,1.519413638
0.54250,1.21421923
0.54300,-0.006558400565
0.54350,-0.616947216
0.54400,0.2986360071
0.54450,-0.006558400565
0.54500,-2.142919254
0.54550,-3.058502478
0.54600,-0.9221416237
0.54650,0.9090248225
0.54700,0.6038304148
0.54750,-0.9221416237
0.54800,-1.532530439
0.54850,-0.3117528083
0.54900,-0.3117528083
0.54950,-0.9221416237
0.55000,-0.9221416237
0.55050,-0.006558400565
0.55100,0.9090248225
0.55150,0.6038304148
0.55200,0.2986360071
0.55250,0.9090248225
0.55300,2.129802453
0.55350,2.434996861
0.55400,2.434996861
0.55450,2.740191269
0.55500,3.045385676
0.55550,3.045385676
0.55600,2.740191269
0.55650,3.655774492
0.55700,6.402524161
0.55750,8.844079423
0.55800,8.844079423
0.55850,5.486940938
0.55900,0.9090248225
0.55950,-1.227336031
0.56000,-1.227336031
0.56050,-0.9221416237
0.56100,-1.837724847
0.56150,-3.363696885
0.56200,-4.584474516
0.56250,-4.889668924
0.56300,-4.584474516
0.56350,-3.668891293
0.56400,-2.142919254
0.56450,-0.9221416237
0.56500,-0.9221416237
0.56550,-1.532530439
0.56600,-2.142919254
0.56650,-1.532530439
0.56700,-0.3117528083
0.56750,0.2986360071
0.56800,0.2986360071
0.56850,-0.006558400565
0.56900,-0.006558400565
0.56950,0.6038304148
0.57000,2.434996861
0.57050,3.350580084
0.57100,2.740191269
0.57150,1.21421923
0.57200,0.6038304148
0.57250,0.2986360071
0.57300,-0.3117528083
0.57350,-2.142919254
0.57400,-3.363696885
0.57450,-3.363696885
0.57500,-3.058502478
0.57550,-2.75330807
0.57600,-2.142919254
0.57650,-1.227336031
0.57700,-1.532530439
0.57750,-2.448113662
0.57800,-2.142919254
0.57850,0.2986360071
0.57900,2.434996861
0.57950,2.434996861
0.58000,1.21421923
0.58050,0.9090248225
0.58100,1.21421923
0.58150,0.6038304148
0.58200,-0.006558400565
0.58250,0.2986360071
0.58300,0.2986360071
0.58350,-0.616947216
0.58400,-1.837724847
0.58450,-1.227336031
0.58500,-0.006558400565
0.58550,-0.006558400565
0.58600,-2.142919254
0.58650,-3.058502478
0.58700,-2.142919254
0.58750,-1.532530439
0.58800,-2.75330807
0.58850,-3.668891293
0.58900,-2.75330807
0.58950,-1.227336031
0.59000,-0.616947216
0.59050,-1.227336031
0.59100,-1.837724847
0.59150,-1.532530439
0.59200,-0.9221416237
0.59250,-0.3117528083
0.59300,-0.006558400565
0.59350,0.2986360071
0.59400,1.824608046
0.59450,3.045385676
0.59500,2.434996861
0.59550,0.6038304148
0.59600,-0.006558400565
0.59650,0.2986360071
0.59700,1.21421923
0.59750,0.2986360071
0.59800,-1.837724847
0.59850,-3.058502478
0.59900,-3.363696885
0.59950,-3.974085701
0.60000,-4.584474516
0.60050,-3.668891293
0.60100,-1.532530439
0.60150,-0.3117528083
0.60200,-0.3117528083
0.60250,-0.616947216
0.60300,0.2986360071
0.60350,1.824608046
0.60400,2.740191269
0.60450,2.434996861
0.60500,2.129802453
0.60550,2.129802453
0.60600,1.824608046
0.60650,2.129802453
0.60700,2.740191269
0.60750,2.434996861
0.60800,1.824608046
0.60850,0.9090248225
0.60900,0.6038304148
0.60950,-0.006558400565
0.61000,-0.616947216
0.61050,-1.837724847
0.61100,-2.448113662
0.61150,-2.142919254
0.61200,-1.837724847
0.61250,-1.837724847
0.61300,-1.837724847
0.61350,-1.532530439
0.61400,-1.227336031
0.61450,-1.837724847
0.61500,-2.142919254
0.61550,-1.837724847
0.61600,-1.227336031
0.61650,-0.616947216
0.61700,-0.006558400565
0.61750,1.21421923
0.61800,1.824608046
0.61850,1.824608046
0.61900,0.9090248225
0.61950,0.9090248225
0.62000,1.21421923
0.62050,1.21421923
0.62100,0.2986360071
0.62150,-0.006558400565
0.62200,1.21421923
0.62250,1.824608046
0.62300,0.9090248225
0.62350,0.6038304148
0.62400,2.740191269
0.62450,6.097329753
0.62500,7.318107384
0.62550,6.402524161
0.62600,5.792135346
0.62650,6.707718569
0.62700,6.707718569
0.62750,4.876552123
0.62800,1.824608046
0.62850,-0.616947216
0.62900,-2.142919254
0.62950,-3.058502478
0.63000,-3.974085701
0.63050,-4.279280108
0.63100,-3.668891293
0.63150,-1.532530439
0.63200,0.9090248225
0.63250,3.045385676
0.63300,3.045385676
0.63350,1.21421923
0.63400,-0.006558400565
0.63450,-0.006558400565
0.63500,-0.006558400565
0.63550,-0.006558400565
0.63600,-0.3117528083
0.63650,-0.9221416237
0.63700,-2.448113662
0.63750,-3.974085701
0.63800,-3.974085701
0.63850,-3.058502478
0.63900,-2.142919254
0.63950,-3.058502478
0.64000,-4.279280108
0.64050,-3.363696885
0.64100,-1.227336031
0.64150,-0.006558400565
0.64200,-0.9221416237
0.64250,-1.837724847
0.64300,-1.227336031
0.64350,0.6038304148
0.64400,1.824608046
0.64450,2.129802453
0.64500,2.434996861
0.64550,3.350580084
0.64600,4.571357715
0.64650,4.876552123
0.64700,4.571357715
0.64750,3.9609689
0.64800,3.350580084
0.64850,3.655774492
0.64900,4.571357715
0.64950,5.486940938
0.65000,5.18174653
0.65050,3.9609689
0.65100,3.9609689
0.65150,4.876552123
0.65200,5.486940938
0.65250,4.571357715
0.65300,2.740191269
0.65350,0.9090248225
0.65400,0.2986360071
0.65450,0.6038304148
0.65500,0.6038304148
0.65550,0.6038304148
0.65600,0.6038304148
0.65650,0.2986360071
0.65700,-0.006558400565
0.65750,0.2986360071
0.65800,0.6038304148
0.65850,0.2986360071
0.65900,-0.006558400565
0.65950,-0.616947216
0.66000,-0.9221416237
0.66050,-0.9221416237
0.66100,-1.227336031
0.66150,-2.142919254
0.66200,-3.974085701
0.66250,-5.500057739
0.66300,-6.110446555
0.66350,-5.805252147
0.66400,-5.500057739
0.66450,-4.889668924
0.66500,-4.889668924
0.66550,-5.194863331
0.66600,-4.889668924
0.66650,-4.279280108
0.66700,-2.75330807
0.66750,-1.837724847
0.66800,-1.837724847
0.66850,-1.837724847
0.66900,-1.837724847
0.66950,-1.532530439
0.67000,-1.227336031
0.67050,-1.227336031
0.67100,-1.227336031
0.67150,-1.227336031
0.67200,-0.006558400565
0.67250,1.824608046
0.67300,3.350580084
0.67350,3.9609689
0.67400,3.350580084
0.67450,3.350580084
0.67500,3.9609689
0.67550,4.266163307
0.67600,4.571357715
0.67650,6.097329753
0.67700,8.538885015
0.67750,9.14927383
0.67800,7.318107384
0.67850,5.18174653
0.67900,4.571357715
0.67950,4.571357715
0.68000,3.045385676
0.68050,0.2986360071
0.68100,-1.532530439
0.68150,-2.448113662
0.68200,-3.974085701
0.68250,-6.110446555
0.68300,-7.026029778
0.68350,-6.72083537
0.68400,-6.415640962
0.68450,-7.026029778
0.68500,-7.636418593
0.68550,-7.636418593
0.68600,-7.026029778
0.68650,-6.110446555
0.68700,-4.584474516
0.68750,-3.363696885
0.68800,-3.058502478
0.68850,-3.058502478
0.68900,-2.142919254
0.68950,-0.9221416237
0.69000,-0.3117528083
0.69050,-0.006558400565
0.69100,0.6038304148
0.69150,1.824608046
0.69200,2.129802453
0.69250,2.434996861
0.69300,2.129802453
0.69350,1.519413638
0.69400,-0.006558400565
0.69450,-0.3117528083
0.69500,0.2986360071
0.69550,0.9090248225
0.69600,0.6038304148
0.69650,0.2986360071
0.69700,0.9090248225
0.69750,1.519413638
0.69800,1.21421923
0.69850,0.2986360071
0.69900,-0.006558400565
0.69950,0.2986360071
0.70000,-0.006558400565
0.70050,-0.006558400565
0.70100,0.2986360071
0.70150,1.21421923
0.70200,0.9090248225
0.70250,-0.006558400565
0.70300,-0.3117528083
0.70350,-0.3117528083
0.70400,-0.006558400565
0.70450,0.2986360071
0.70500,-0.006558400565
0.70550,-0.616947216
0.70600,-0.9221416237
0.70650,-0.006558400565
0.70700,-0.006558400565
0.70750,-0.006558400565
0.70800,-0.006558400565
0.70850,2.434996861
0.70900,5.792135346
0.70950,6.707718569
0.71000,4.876552123
0.71050,2.740191269
0.71100,2.434996861
0.71150,2.434996861
0.71200,2.129802453
0.71250,1.519413638
0.71300,2.434996861
0.71350,3.350580084
0.71400,3.655774492
0.71450,3.655774492
0.71500,3.655774492
0.71550,2.740191269
0.71600,-0.3117528083
0.71650,-3.668891293
0.71700,-4.279280108
0.71750,-3.058502478
0.71800,-2.75330807
0.71850,-5.500057739
0.71900,-7.636418593
0.71950,-6.72083537
0.72000,-4.889668924
0.72050,-4.584474516
0.72100,-4.279280108
0.72150,-2.448113662
0.72200,0.9090248225
0.72250,3.350580084
0.72300,3.350580084
0.72350,3.045385676
0.72400,3.350580084
0.72450,3.655774492
0.72500,3.045385676
0.72550,2.129802453
0.72600,1.824608046
0.72650,1.21421923
0.72700,-0.3117528083
0.72750,-2.448113662
0.72800,-2.448113662
0.72850,-1.532530439
0.72900,-0.616947216
0.72950,-1.532530439
0.73000,-2.448113662
0.73050,-2.448113662
0.73100,-1.227336031
0.73150,-0.616947216
0.73200,-1.227336031
0.73250,-2.75330807
0.73300,-3.363696885
0.73350,-2.75330807
0.73400,-1.837724847
0.73450,-1.532530439
0.73500,-2.142919254
0.73550,-1.837724847
0.73600,-1.227336031
0.73650,-1.532530439
0.73700,-2.142919254
0.73750,-2.448113662
0.73800,-0.616947216
0.73850,1.519413638
0.73900,2.129802453
0.73950,1.21421923
0.74000,0.6038304148
0.74050,1.21421923
0.74100,2.129802453
0.74150,1.824608046
0.74200,1.21421923
0.74250,1.519413638
0.74300,2.129802453
0.74350,2.434996861
0.74400,2.434996861
0.74450,3.350580084
0.74500,4.876552123
0.74550,6.402524161
0.74600,7.012912977
0.74650,6.707718569
0.74700,6.707718569
0.74750,6.707718569
0.74800,5.792135346
0.74850,4.876552123
0.74900,3.655774492
0.74950,2.434996861
0.75000,0.9090248225
0.75050,-0.006558400565
0.75100,-1.227336031
0.75150,-2.448113662
0.75200,-3.668891293
0.75250,-4.889668924
0.75300,-6.415640962
0.75350,-8.552001816
0.75400,-10.68836267
0.75450,-10.99355708
0.75500,-9.162390632
0.75550,-7.026029778
0.75600,-6.110446555
0.75650,-6.72083537
0.75700,-6.415640962
0.75750,-5.194863331
0.75800,-3.974085701
0.75850,-3.668891293
0.75900,-4.279280108
0.75950,-3.974085701
0.76000,-2.142919254
0.76050,-0.616947216
0.76100,-0.006558400565
0.76150,0.2986360071
0.76200,0.9090248225
0.76250,1.519413638
0.76300,1.519413638
0.76350,0.9090248225
0.76400,1.21421923
0.76450,2.434996861
0.76500,3.045385676
0.76550,2.129802453
0.76600,1.21421923
0.76650,1.21421923
0.76700,2.740191269
0.76750,3.350580084
0.76800,2.434996861
0.76850,1.21421923
0.76900,1.519413638
0.76950,3.350580084
0.77000,5.486940938
0.77050,6.402524161
0.77100,6.097329753
0.77150,4.571357715
0.77200,2.740191269
0.77250,1.21421923
0.77300,0.2986360071
0.77350,-0.006558400565
0.77400,-0.3117528083
0.77450,-1.227336031
0.77500,-2.142919254
0.77550,-3.058502478
0.77600,-3.668891293
0.77650,-3.363696885
0.77700,-2.448113662
0.77750,-1.837724847
0.77800,-2.448113662
0.77850,-3.974085701
0.77900,-4.584474516
0.77950,-3.668891293
0.78000,-2.142919254
0.78050,-1.532530439
0.78100,-0.616947216
0.78150,-0.006558400565
0.78200,-0.006558400565
0.78250,-0.616947216
0.78300,-1.532530439
0.78350,-0.9221416237
0.78400,-0.006558400565
0.78450,0.9090248225
0.78500,0.6038304148
0.78550,0.9090248225
0.78600,1.519413638
0.78650,1.519413638
0.78700,1.824608046
0.78750,1.824608046
0.78800,2.129802453
0.78850,1.519413638
0.78900,0.6038304148
0.78950,0.2986360071
0.79000,0.6038304148
0.79050,0.9090248225
0.79100,0.6038304148
0.79150,0.9090248225
0.79200,1.21421923
0.79250,1.21421923
0.79300,0.6038304148
0.79350,0.9090248225
0.79400,1.519413638
0.79450,1.824608046
0.79500,1.519413638
0.79550,1.21421923
0.79600,2.434996861
0.79650,3.350580084
0.79700,3.045385676
0.79750,1.519413638
0.79800,0.6038304148
0.79850,-0.006558400565
0.79900,-0.616947216
0.79950,-2.448113662
0.80000,-3.363696885
0.80050,-2.75330807
0.80100,-1.227336031
0.80150,-0.616947216
0.80200,-1.227336031
0.80250,-1.532530439
0.80300,-0.616947216
0.80350,0.6038304148
0.80400,1.21421923
0.80450,0.9090248225
0.80500,0.2986360071
0.80550,-0.006558400565
0.80600,0.2986360071
0.80650,0.2986360071
0.80700,-0.006558400565
0.80750,-0.006558400565
0.80800,0.2986360071
0.80850,0.6038304148
0.80900,1.21421923
0.80950,1.21421923
0.81000,1.21421923
0.81050,2.129802453
0.81100,3.9609689
0.81150,4.876552123
0.81200,3.655774492
0.81250,2.129802453
0.81300,2.129802453
0.81350,3.9609689
0.81400,4.571357715
0.81450,3.045385676
0.81500,0.9090248225
0.81550,0.6038304148
0.81600,1.519413638
0.81650,0.9090248225
0.81700,-0.616947216
0.81750,-1.532530439
0.81800,-1.532530439
0.81850,-0.9221416237
0.81900,-1.532530439
0.81950,-2.448113662
0.82000,-2.75330807
0.82050,-2.448113662
0.82100,-1.532530439
0.82150,-0.9221416237
0.82200,-0.006558400565
0.82250,-0.006558400565
0.82300,-0.9221416237
0.82350,-2.448113662
0.82400,-3.363696885
0.82450,-3.363696885
0.82500,-2.75330807
0.82550,-2.448113662
0.82600,-2.75330807
0.82650,-3.058502478
0.82700,-3.058502478
0.82750,-2.142919254
0.82800,-1.227336031
0.82850,-1.227336031
0.82900,-1.227336031
0.82950,-1.227336031
0.83000,-1.532530439
0.83050,-1.532530439
0.83100,-0.9221416237
0.83150,-0.3117528083
0.83200,-0.616947216
0.83250,-1.532530439
0.83300,-2.142919254
0.83350,-1.837724847
0.83400,-1.227336031
0.83450,-1.227336031
0.83500,-0.616947216
0.83550,0.2986360071
0.83600,0.6038304148
0.83650,-0.006558400565
0.83700,-1.837724847
0.83750,-2.75330807
0.83800,-2.448113662
0.83850,-2.142919254
0.83900,-1.532530439
0.83950,-0.616947216
0.84000,-0.006558400565
0.84050,-0.006558400565
0.84100,-0.9221416237
0.84150,-1.532530439
0.84200,-2.142919254
0.84250,-1.837724847
0.84300,-1.227336031
0.84350,-0.006558400565
0.84400,-0.006558400565
0.84450,-0.3117528083
0.84500,-0.616947216
0.84550,0.2986360071
0.84600,1.824608046
0.84650,2.129802453
0.84700,1.519413638
0.84750,0.9090248225
0.84800,0.9090248225
0.84850,0.2986360071
0.84900,-0.006558400565
0.84950,0.2986360071
0.85000,0.9090248225
0.85050,1.21421923
0.85100,0.2986360071
0.85150,-0.006558400565
0.85200,0.6038304148
0.85250,1.519413638
0.85300,2.129802453
0.85350,1.519413638
0.85400,0.6038304148
0.85450,-0.006558400565
0.85500,0.9090248225
0.85550,1.824608046
0.85600,1.519413638
0.85650,0.6038304148
0.85700,0.2986360071
0.85750,1.21421923
0.85800,1.824608046
0.85850,1.519413638
0.85900,1.21421923
0.85950,1.824608046
0.86000,2.129802453
0.86050,1.824608046
0.86100,1.21421923
0.86150,0.6038304148
0.86200,-0.3117528083
0.86250,-0.9221416237
0.86300,-0.006558400565
0.86350,1.824608046
0.86400,2.434996861
0.86450,1.519413638
0.86500,0.9090248225
0.86550,1.824608046
0.86600,2.129802453
0.86650,1.21421923
0.86700,0.9090248225
0.86750,3.655774492
0.86800,6.707718569
0.86850,6.402524161
0.86900,3.045385676
0.86950,0.6038304148
0.87000,0.2986360071
0.87050,-0.006558400565
0.87100,-1.837724847
0.87150,-3.974085701
0.87200,-3.974085701
0.87250,-3.668891293
0.87300,-4.584474516
0.87350,-6.110446555
0.87400,-6.110446555
0.87450,-4.279280108
0.87500,-3.058502478
0.87550,-3.058502478
0.87600,-3.058502478
0.87650,-1.837724847
0.87700,-0.006558400565
0.87750,0.2986360071
0.87800,0.2986360071
0.87850,0.2986360071
0.87900,0.6038304148
0.87950,-0.006558400565
0.88000,-0.9221416237
0.88050,-1.532530439
0.88100,-0.006558400565
0.88150,1.21421923
0.88200,1.519413638
0.88250,0.6038304148
0.88300,1.21421923
0.88350,2.434996861
0.88400,2.129802453
0.88450,0.9090248225
0.88500,0.6038304148
0.88550,1.519413638
0.88600,1.21421923
0.88650,-0.3117528083
0.88700,-1.532530439
0.88750,-0.9221416237
0.88800,-0.616947216
0.88850,-2.142919254
0.88900,-3.363696885
0.88950,-1.837724847
0.89000,-0.006558400565
0.89050,-0.006558400565
0.89100,-0.9221416237
0.89150,-0.006558400565
0.89200,1.824608046
0.89250,1.824608046
0.89300,-0.006558400565
0.89350,-0.006558400565
0.89400,0.9090248225
0.89450,2.129802453
0.89500,1.21421923
0.89550,0.2986360071
0.89600,-0.006558400565
0.89650,-0.006558400565
0.89700,-0.006558400565
0.89750,-0.616947216
0.89800,-1.532530439
0.89850,-2.142919254
0.89900,-2.142919254
0.89950,-1.837724847
0.90000,-2.142919254
0.90050,-2.75330807
0.90100,-2.448113662
0.90150,-0.006558400565
0.90200,1.824608046
0.90250,1.21421923
0.90300,-0.616947216
0.90350,-0.9221416237
0.90400,0.9090248225
0.90450,2.434996861
0.90500,1.21421923
0.90550,-0.006558400565
0.90600,0.2986360071
0.90650,1.21421923
0.90700,1.21421923
0.90750,0.6038304148
0.90800,0.9090248225
0.90850,1.824608046
0.90900,2.434996861
0.90950,1.824608046
0.91000,1.21421923
0.91050,0.9090248225
0.91100,0.6038304148
0.91150,0.2986360071
0.91200,0.2986360071
0.91250,0.6038304148
0.91300,0.6038304148
0.91350,-0.006558400565
0.91400,-0.3117528083
0.91450,-1.227336031
0.91500,-1.532530439
0.91550,-1.227336031
0.91600,-0.616947216
0.91650,-0.006558400565
0.91700,0.2986360071
0.91750,0.9090248225
0.91800,0.9090248225
0.91850,0.2986360071
0.91900,-0.006558400565
0.91950,-0.006558400565
0.92000,0.6038304148
0.92050,0.6038304148
0.92100,-0.006558400565
0.92150,-0.006558400565
0.92200,0.2986360071
0.92250,0.9090248225
0.92300,0.6038304148
0.92350,-0.006558400565
0.92400,0.6038304148
0.92450,1.519413638
0.92500,1.519413638
0.92550,0.9090248225
0.92600,1.519413638
0.92650,2.740191269
0.92700,3.045385676
0.92750,1.824608046
0.92800,1.21421923
0.92850,1.824608046
0.92900,1.824608046
0.92950,-0.006558400565
0.93000,-2.142919254
0.93050,-2.75330807
0.93100,-1.837724847
0.93150,-0.9221416237
0.93200,-0.006558400565
0.93250,0.9090248225
0.93300,1.824608046
0.93350,1.519413638
0.93400,0.9090248225
0.93450,0.9090248225
0.93500,1.519413638
0.93550,1.21421923
0.93600,0.2986360071
0.93650,0.6038304148
0.93700,2.129802453
0.93750,2.129802453
0.93800,0.2986360071
0.93850,-0.616947216
0.93900,0.2986360071
0.93950,2.434996861
0.94000,2.740191269
0.94050,1.519413638
0.94100,0.2986360071
0.94150,-0.3117528083
0.94200,-0.616947216
0.94250,0.2986360071
0.94300,2.129802453
0.94350,3.045385676
0.94400,1.21421923
0.94450,-0.9221416237
0.94500,-0.9221416237
0.94550,0.6038304148
0.94600,1.824608046
0.94650,1.21421923
0.94700,0.9090248225
0.94750,2.129802453
0.94800,3.350580084
0.94850,2.434996861
0.94900,0.6038304148
0.94950,-0.006558400565
0.95000,0.2986360071
0.95050,-0.006558400565
0.95100,-2.75330807
0.95150,-5.805252147
0.95200,-7.026029778
0.95250,-7.026029778
0.95300,-6.72083537
0.95350,-7.026029778
0.95400,-7.636418593
0.95450,-7.941613001
0.95500,-8.552001816
0.95550,-8.857196224
0.95600,-8.552001816
0.95650,-6.415640962
0.95700,-3.974085701
0.95750,-2.142919254
0.95800,-1.837724847
0.95850,-1.532530439
0.95900,-0.3117528083
0.95950,0.2986360071
0.96000,-0.006558400565
0.96050,-0.616947216
0.96100,-1.532530439
0.96150,-1.227336031
0.96200,-0.9221416237
0.96250,-1.227336031
0.96300,-0.9221416237
0.96350,-0.616947216
0.96400,-0.006558400565
0.96450,0.6038304148
0.96500,1.21421923
0.96550,1.519413638
0.96600,1.21421923
0.96650,0.9090248225
0.96700,1.21421923
0.96750,1.519413638
0.96800,1.519413638
0.96850,1.519413638
0.96900,1.824608046
0.96950,2.740191269
0.97000,2.740191269
0.97050,2.129802453
0.97100,2.129802453
0.97150,1.824608046
0.97200,1.21421923
0.97250,0.6038304148
0.97300,0.9090248225
0.97350,1.824608046
0.97400,1.519413638
0.97450,0.6038304148
0.97500,0.9090248225
0.97550,2.129802453
0.97600,2.129802453
0.97650,0.6038304148
0.97700,-0.006558400565
0.97750,0.6038304148
0.97800,1.21421923
0.97850,0.2986360071
0.97900,0.2986360071
0.97950,2.740191269
0.98000,5.792135346
0.98050,6.402524161
0.98100,4.571357715
0.98150,3.350580084
0.98200,2.434996861
0.98250,1.519413638
0.98300,0.2986360071
0.98350,-0.006558400565
0.98400,-0.9221416237
0.98450,-2.75330807
0.98500,-4.584474516
0.98550,-3.974085701
0.98600,-1.837724847
0.98650,-0.9221416237
0.98700,-1.837724847
0.98750,-1.227336031
0.98800,1.519413638
0.98850,5.18174653
0.98900,5.792135346
0.98950,4.266163307
0.99000,3.350580084
0.99050,3.655774492
0.99100,3.350580084
0.99150,1.824608046
0.99200,-0.006558400565
0.99250,-0.9221416237
0.99300,-1.227336031
0.99350,-1.532530439
0.99400,-1.837724847
0.99450,-1.227336031
0.99500,-0.616947216
0.99550,-0.006558400565
0.99600,-0.616947216
0.99650,-1.532530439
0.99700,-1.837724847
0.99750,-0.9221416237
0.99800,-0.006558400565
0.99850,-0.006558400565
0.99900,-0.616947216
0.99950,-1.532530439
1.00000,-2.142919254
1.00050,-2.448113662
1.00100,-2.448113662
1.00150,-2.448113662
1.00200,-3.058502478
1.00250,-3.058502478
1.00300,-1.227336031
1.00350,1.21421923
1.00400,2.740191269
1.00450,2.129802453
1.00500,0.2986360071
1.00550,0.2986360071
1.00600,1.519413638
1.00650,2.129802453
1.00700,1.519413638
1.00750,0.6038304148
1.00800,0.6038304148
1.00850,0.6038304148
1.00900,0.2986360071
1.00950,-0.3117528083
1.01000,-1.227336031
1.01050,-2.142919254
1.01100,-3.058502478
1.01150,-3.363696885
1.01200,-2.75330807
1.01250,-2.142919254
1.01300,-2.142919254
1.01350,-2.448113662
1.01400,-3.058502478
1.01450,-3.058502478
1.01500,-2.448113662
1.01550,-1.837724847
1.01600,-0.616947216
1.01650,-0.006558400565
1.01700,-0.006558400565
1.01750,-0.006558400565
1.01800,0.6038304148
1.01850,1.519413638
1.01900,1.519413638
1.01950,-0.006558400565
1.02000,-0.9221416237
1.02050,-0.006558400565
1.02100,2.129802453
1.02150,3.350580084
1.02200,2.129802453
1.02250,0.6038304148
1.02300,0.2986360071
1.02350,1.21421923
1.02400,2.434996861
1.02450,2.434996861
1.02500,1.519413638
1.02550,0.9090248225
1.02600,1.21421923
1.02650,1.824608046
1.02700,2.129802453
1.02750,1.824608046
1.02800,2.434996861
1.02850,3.9609689
1.02900,4.571357715
1.02950,3.350580084
1.03000,2.129802453
1.03050,2.434996861
1.03100,3.350580084
1.03150,2.740191269
1.03200,0.2986360071
1.03250,-1.837724847
1.03300,-3.058502478
1.03350,-3.363696885
1.03400,-3.363696885
1.03450,-3.668891293
1.03500,-3.668891293
1.03550,-3.363696885
1.03600,-2.75330807
1.03650,-1.837724847
1.03700,-0.9221416237
1.03750,-0.9221416237
1.03800,-1.532530439
1.03850,-0.616947216
1.03900,0.9090248225
1.03950,1.519413638
1.04000,-0.006558400565
1.04050,-1.532530439
1.04100,-2.142919254
1.04150,-1.532530439
1.04200,-1.532530439
1.04250,-2.142919254
1.04300,-1.837724847
1.04350,-0.3117528083
1.04400,0.9090248225
1.04450,0.2986360071
1.04500,-0.616947216
1.04550,-1.227336031
1.04600,-0.616947216
1.04650,-0.616947216
1.04700,-1.532530439
1.04750,-2.448113662
1.04800,-1.837724847
1.04850,-0.3117528083
1.04900,-0.006558400565
1.04950,-0.616947216
1.05000,-0.9221416237
1.05050,-0.616947216
1.05100,-0.006558400565
1.05150,0.2986360071
1.05200,1.21421923
1.05250,1.519413638
1.05300,0.9090248225
1.05350,-0.006558400565
1.05400,-0.3117528083
1.05450,0.2986360071
1.05500,0.6038304148
1.05550,0.6038304148
1.05600,0.2986360071
1.05650,0.2986360071
1.05700,-0.3117528083
1.05750,-1.532530439
1.05800,-0.9221416237
1.05850,1.824608046
1.05900,4.571357715
1.05950,4.571357715
1.06000,3.045385676
1.06050,2.129802453
1.06100,1.824608046
1.06150,1.519413638
1.06200,0.6038304148
1.06250,-0.006558400565
1.06300,-0.616947216
1.06350,-2.142919254
1.06400,-4.279280108
1.06450,-4.889668924
1.06500,-3.668891293
1.06550,-2.448113662
1.06600,-2.75330807
1.06650,-3.974085701
1.06700,-4.279280108
1.06750,-2.75330807
1.06800,-0.9221416237
1.06850,0.2986360071
1.06900,0.9090248225
1.06950,0.9090248225
1.07000,-0.006558400565
1.07050,-1.227336031
1.07100,-1.227336031
1.07150,-0.006558400565
1.07200,0.6038304148
1.07250,-0.006558400565
1.07300,-0.006558400565
1.07350,1.21421923
1.07400,2.129802453
1.07450,0.9090248225
1.07500,-1.227336031
1.07550,-2.142919254
1.07600,-0.9221416237
1.07650,-0.006558400565
1.07700,0.2986360071
1.07750,0.2986360071
1.07800,0.2986360071
1.07850,0.2986360071
1.07900,0.2986360071
1.07950,0.2986360071
1.08000,0.2986360071
1.08050,-0.006558400565
1.08100,-0.006558400565
1.08150,0.2986360071
1.08200,1.519413638
1.08250,2.129802453
1.08300,2.434996861
1.08350,2.129802453
1.08400,1.519413638
1.08450,0.6038304148
1.08500,0.2986360071
1.08550,0.2986360071
1.08600,-0.006558400565
1.08650,-0.9221416237
1.08700,-1.227336031
1.08750,-0.006558400565
1.08800,2.434996861
1.08850,4.266163307
1.08900,4.876552123
1.08950,5.792135346
1.09000,7.318107384
1.09050,7.623301792
1.09100,6.097329753
1.09150,3.9609689
1.09200,2.434996861
1.09250,1.519413638
1.09300,0.2986360071
1.09350,-0.616947216
1.09400,-1.227336031
1.09450,-1.532530439
1.09500,-2.448113662
1.09550,-3.363696885
1.09600,-3.668891293
1.09650,-3.974085701
1.09700,-3.974085701
1.09750,-3.058502478
1.09800,-1.227336031
1.09850,-0.006558400565
1.09900,-0.006558400565
1.09950,-0.9221416237
1.10000,-0.9221416237
1.10050,0.6038304148
1.10100,1.519413638
1.10150,0.2986360071
1.10200,-1.227336031
1.10250,-1.532530439
1.10300,-0.616947216
1.10350,-0.3117528083
1.10400,-0.006558400565
1.10450,0.2986360071
1.10500,0.9090248225
1.10550,0.6038304148
1.10600,-0.9221416237
1.10650,-3.363696885
1.10700,-4.584474516
1.10750,-4.889668924
1.10800,-4.584474516
1.10850,-5.194863331
1.10900,-5.500057739
1.10950,-5.194863331
1.11000,-4.279280108
1.11050,-3.363696885
1.11100,-2.75330807
1.11150,-2.448113662
1.11200,-1.227336031
1.11250,-0.006558400565
1.11300,0.2986360071
1.11350,0.2986360071
1.11400,0.2986360071
1.11450,0.6038304148
1.11500,0.6038304148
1.11550,0.2986360071
1.11600,-0.006558400565
1.11650,0.6038304148
1.11700,1.21421923
1.11750,0.9090248225
1.11800,-0.006558400565
1.11850,-0.616947216
1.11900,-1.227336031
1.11950,-0.9221416237
1.12000,-0.006558400565
1.12050,0.9090248225
1.12100,1.519413638
1.12150,0.9090248225
1.12200,-0.006558400565
1.12250,0.2986360071
1.12300,1.824608046
1.12350,2.434996861
1.12400,1.824608046
1.12450,1.824608046
1.12500,2.740191269
1.12550,3.350580084
1.12600,2.129802453
1.12650,-0.006558400565
1.12700,-1.837724847
1.12750,-2.448113662
1.12800,-3.058502478
1.12850,-3.974085701
1.12900,-4.279280108
1.12950,-3.668891293
1.13000,-3.058502478
1.13050,-1.837724847
1.13100,-0.006558400565
1.13150,0.6038304148
1.13200,0.6038304148
1.13250,-0.006558400565
1.13300,0.9090248225
1.13350,2.129802453
1.13400,1.824608046
1.13450,0.9090248225
1.13500,1.21421923
1.13550,2.740191269
1.13600,3.655774492
1.13650,2.740191269
1.13700,1.21421923
1.13750,0.9090248225
1.13800,1.519413638
1.13850,1.519413638
1.13900,1.21421923
1.13950,0.9090248225
1.14000,1.519413638
1.14050,1.824608046
1.14100,1.519413638
1.14150,1.21421923
1.14200,0.6038304148
1.14250,0.2986360071
1.14300,0.2986360071
1.14350,0.2986360071
1.14400,0.2986360071
1.14450,0.2986360071
1.14500,0.6038304148
1.14550,0.9090248225
1.14600,0.6038304148
1.14650,-0.006558400565
1.14700,-0.3117528083
1.14750,-0.3117528083
1.14800,-0.616947216
1.14850,-0.9221416237
1.14900,-0.616947216
1.14950,0.2986360071
1.15000,1.21421923
1.15050,1.519413638
1.15100,1.519413638
1.15150,1.824608046
1.15200,0.9090248225
1.15250,-0.006558400565
1.15300,-0.3117528083
1.15350,-0.006558400565
1.15400,0.2986360071
1.15450,-0.006558400565
1.15500,0.6038304148
1.15550,3.045385676
1.15600,4.876552123
1.15650,3.9609689
1.15700,1.21421923
1.15750,-0.006558400565
1.15800,-0.006558400565
1.15850,-0.3117528083
1.15900,-1.227336031
1.15950,-0.9221416237
1.16000,-0.3117528083
1.16050,-0.9221416237
1.16100,-3.058502478
1.16150,-4.584474516
1.16200,-3.974085701
1.16250,-2.75330807
1.16300,-2.142919254
1.16350,-2.448113662
1.16400,-2.448113662
1.16450,-2.142919254
1.16500,-1.837724847
1.16550,-0.616947216
1.16600,0.9090248225
1.16650,2.129802453
1.16700,2.129802453
1.16750,1.519413638
1.16800,2.129802453
1.16850,2.434996861
1.16900,1.519413638
1.16950,0.2986360071
1.17000,-0.006558400565
1.17050,0.2986360071
1.17100,1.21421923
1.17150,1.519413638
1.17200,1.824608046
1.17250,2.129802453
1.17300,2.434996861
1.17350,3.655774492
1.17400,5.486940938
1.17450,6.707718569
1.17500,6.402524161
1.17550,4.876552123
1.17600,3.045385676
1.17650,1.21421923
1.17700,-0.006558400565
1.17750,-0.616947216
1.17800,-0.3117528083
1.17850,0.2986360071
1.17900,-0.006558400565
1.17950,-0.006558400565
1.18000,-0.006558400565
1.18050,0.9090248225
1.18100,1.21421923
1.18150,0.6038304148
1.18200,-0.006558400565
1.18250,-0.9221416237
1.18300,-2.142919254
1.18350,-2.75330807
1.18400,-2.75330807
1.18450,-2.142919254
1.18500,-1.837724847
1.18550,-2.142919254
1.18600,-1.532530439
1.18650,-0.3117528083
1.18700,-0.006558400565
1.18750,-0.006558400565
1.18800,-0.006558400565
1.18850,0.2986360071
1.18900,0.6038304148
1.18950,0.6038304148
1.19000,1.21421923
1.19050,2.434996861
1.19100,2.434996861
1.19150,0.9090248225
1.19200,-0.9221416237
1.19250,-1.227336031
1.19300,-0.3117528083
1.19350,-0.3117528083
1.19400,-1.227336031
1.19450,-0.9221416237
1.19500,-0.006558400565
1.19550,-0.006558400565
1.19600,-1.532530439
1.19650,-3.668891293
1.19700,-4.279280108
1.19750,-3.974085701
1.19800,-3.668891293
1.19850,-3.974085701
1.19900,-3.668891293
1.19950,-3.363696885
1.20000,-3.363696885
1.20050,-3.974085701
1.20100,-4.279280108
1.20150,-3.974085701
1.20200,-3.668891293
1.20250,-2.142919254
1.20300,-0.3117528083
1.20350,-0.006558400565
1.20400,-1.227336031
1.20450,-1.532530439
1.20500,0.2986360071
1.20550,2.740191269
1.20600,2.740191269
1.20650,1.519413638
1.20700,0.9090248225
1.20750,1.21421923
1.20800,0.6038304148
1.20850,-0.9221416237
1.20900,-1.532530439
1.20950,-0.3117528083
1.21000,0.6038304148
1.21050,-0.006558400565
1.21100,-1.532530439
1.21150,-1.227336031
1.21200,-0.006558400565
1.21250,0.6038304148
1.21300,0.6038304148
1.21350,0.9090248225
1.21400,1.519413638
1.21450,1.21421923
1.21500,0.2986360071
1.21550,-0.006558400565
1.21600,-0.006558400565
1.21650,-1.227336031
1.21700,-2.75330807
1.21750,-3.668891293
1.21800,-2.75330807
1.21850,-1.532530439
1.21900,-0.9221416237
1.21950,-0.3117528083
1.22000,0.9090248225
1.22050,2.129802453
1.22100,2.740191269
1.22150,2.740191269
1.22200,2.740191269
1.22250,2.434996861
1.22300,1.519413638
1.22350,0.2986360071
1.22400,-0.006558400565
1.22450,-0.006558400565
1.22500,0.2986360071
1.22550,1.21421923
1.22600,1.519413638
1.22650,0.9090248225
1.22700,-0.006558400565
1.22750,-0.616947216
1.22800,-0.3117528083
1.22850,-0.006558400565
1.22900,0.2986360071
1.22950,-0.006558400565
1.23000,-0.3117528083
1.23050,-1.227336031
1.23100,-0.9221416237
1.23150,-0.006558400565
1.23200,0.2986360071
1.23250,-0.006558400565
1.23300,-0.3117528083
1.23350,-0.006558400565
1.23400,0.6038304148
1.23450,0.6038304148
1.23500,-0.006558400565
1.23550,-0.3117528083
1.23600,-0.006558400565
1.23650,0.9090248225
1.23700,0.9090248225
1.23750,0.6038304148
1.23800,0.2986360071
1.23850,-0.006558400565
1.23900,-0.006558400565
1.23950,-0.006558400565
1.24000,0.2986360071
1.24050,-0.006558400565
1.24100,-0.3117528083
1.24150,0.9090248225
1.24200,3.655774492
1.24250,5.792135346
1.24300,4.876552123
1.24350,2.740191269
1.24400,1.21421923
1.24450,0.9090248225
1.24500,0.6038304148
1.24550,-0.006558400565
1.24600,-0.9221416237
1.24650,-1.532530439
1.24700,-2.142919254
1.24750,-2.448113662
1.24800,-2.75330807
1.24850,-2.142919254
1.24900,-1.227336031
1.24950,-0.9221416237
1.25000,-0.9221416237
1.25050,-0.3117528083
1.25100,1.519413638
1.25150,2.740191269
1.25200,1.824608046
1.25250,0.2986360071
1.25300,-0.006558400565
1.25350,0.9090248225
1.25400,0.2986360071
1.25450,-0.9221416237
1.25500,-1.532530439
1.25550,-0.3117528083
1.25600,0.9090248225
1.25650,0.9090248225
1.25700,-0.3117528083
1.25750,-1.227336031
1.25800,-0.9221416237
1.25850,-0.3117528083
1.25900,-0.616947216
1.25950,-1.837724847
1.26000,-2.448113662
1.26050,-0.9221416237
1.26100,1.21421923
1.26150,2.740191269
1.26200,3.045385676
1.26250,2.740191269
1.26300,3.655774492
1.26350,4.571357715
1.26400,5.18174653
1.26450,4.876552123
1.26500,4.571357715
1.26550,3.045385676
1.26600,0.2986360071
1.26650,-1.532530439
1.26700,-2.448113662
1.26750,-3.058502478
1.26800,-4.889668924
1.26850,-5.805252147
1.26900,-4.584474516
1.26950,-2.75330807
1.27000,-1.532530439
1.27050,-0.006558400565
1.27100,3.045385676
1.27150,5.792135346
1.27200,5.486940938
1.27250,3.045385676
1.27300,2.740191269
1.27350,4.266163307
1.27400,3.655774492
1.27450,-0.006558400565
1.27500,-3.668891293
1.27550,-5.194863331
1.27600,-5.500057739
1.27650,-6.110446555
1.27700,-6.72083537
1.27750,-6.110446555
1.27800,-5.194863331
1.27850,-4.889668924
1.27900,-5.500057739
1.27950,-5.194863331
1.28000,-3.668891293
1.28050,-2.142919254
1.28100,-0.9221416237
1.28150,-0.3117528083
1.28200,-0.616947216
1.28250,-1.227336031
1.28300,-1.227336031
1.28350,-0.3117528083
1.28400,-0.616947216
1.28450,-1.532530439
1.28500,-1.532530439
1.28550,-0.006558400565
1.28600,1.519413638
1.28650,0.9090248225
1.28700,-0.006558400565
1.28750,0.2986360071
1.28800,1.519413638
1.28850,0.9090248225
1.28900,-0.616947216
1.28950,-1.227336031
1.29000,-0.616947216
1.29050,-0.006558400565
1.29100,-0.3117528083
1.29150,-0.006558400565
1.29200,0.2986360071
1.29250,-0.616947216
1.29300,-3.363696885
1.29350,-4.584474516
1.29400,-2.75330807
1.29450,-0.006558400565
1.29500,0.9090248225
1.29550,0.2986360071
1.29600,0.9090248225
1.29650,2.434996861
1.29700,3.045385676
1.29750,1.519413638
1.29800,-0.006558400565
1.29850,-0.006558400565
1.29900,1.824608046
1.29950,3.350580084
1.30000,3.045385676
1.30050,1.824608046
1.30100,1.21421923
1.30150,1.519413638
1.30200,1.519413638
1.30250,1.21421923
1.30300,0.6038304148
1.30350,1.21421923
1.30400,1.519413638
1.30450,1.21421923
1.30500,0.9090248225
1.30550,1.519413638
1.30600,1.824608046
1.30650,1.21421923
1.30700,0.2986360071
1.30750,0.9090248225
1.30800,2.129802453
1.30850,2.129802453
1.30900,0.2986360071
1.30950,-0.616947216
1.31000,-0.3117528083
1.31050,-0.006558400565
1.31100,-0.006558400565
1.31150,-0.006558400565
1.31200,0.6038304148
1.31250,0.6038304148
1.31300,0.2986360071
1.31350,-0.3117528083
1.31400,-0.616947216
1.31450,-0.3117528083
1.31500,-0.006558400565
1.31550,0.6038304148
1.31600,1.21421923
1.31650,1.21421923
1.31700,0.2986360071
1.31750,-0.006558400565
1.31800,0.2986360071
1.31850,0.2986360071
1.31900,0.6038304148
1.31950,0.6038304148
1.32000,1.21421923
1.32050,1.519413638
1.32100,0.9090248225
1.32150,0.2986360071
1.32200,0.9090248225
1.32250,2.129802453
1.32300,3.045385676
1.32350,1.824608046
1.32400,-0.006558400565
1.32450,-0.9221416237
1.32500,-0.006558400565
1.32550,1.21421923
1.32600,1.21421923
1.32650,0.6038304148
1.32700,0.9090248225
1.32750,2.740191269
1.32800,4.571357715
1.32850,4.571357715
1.32900,2.740191269
1.32950,0.9090248225
1.33000,0.2986360071
1.33050,1.21421923
1.33100,1.824608046
1.33150,0.9090248225
1.33200,-0.616947216
1.33250,-0.616947216
1.33300,-0.006558400565
1.33350,0.2986360071
1.33400,-0.006558400565
1.33450,0.6038304148
1.33500,3.655774492
1.33550,5.792135346
1.33600,4.876552123
1.33650,1.824608046
1.33700,-0.006558400565
1.33750,-0.3117528083
1.33800,-1.532530439
1.33850,-3.363696885
1.33900,-4.889668924
1.33950,-4.584474516
1.34000,-2.75330807
1.34050,-0.616947216
1.34100,-0.006558400565
1.34150,-0.006558400565
1.34200,-0.9221416237
1.34250,-1.227336031
1.34300,-0.616947216
1.34350,0.2986360071
1.34400,1.21421923
1.34450,0.6038304148
1.34500,-0.3117528083
1.34550,-1.227336031
1.34600,-1.837724847
1.34650,-2.75330807
1.34700,-3.974085701
1.34750,-4.584474516
1.34800,-4.584474516
1.34850,-4.279280108
1.34900,-4.584474516
1.34950,-5.805252147
1.35000,-6.415640962
1.35050,-5.194863331
1.35100,-3.058502478
1.35150,-1.837724847
1.35200,-1.532530439
1.35250,-2.142919254
1.35300,-2.75330807
1.35350,-3.058502478
1.35400,-3.058502478
1.35450,-2.448113662
1.35500,-1.227336031
1.35550,-0.9221416237
1.35600,-0.9221416237
1.35650,-0.3117528083
1.35700,0.9090248225
1.35750,2.129802453
1.35800,1.824608046
1.35850,-0.006558400565
1.35900,-1.227336031
1.35950,-0.9221416237
1.36000,-0.006558400565
1.36050,-0.006558400565
1.36100,-0.9221416237
1.36150,-2.448113662
1.36200,-2.75330807
1.36250,-1.227336031
1.36300,-0.9221416237
1.36350,-1.837724847
1.36400,-3.974085701
1.36450,-4.279280108
1.36500,-2.75330807
1.36550,-0.616947216
1.36600,0.2986360071
1.36650,0.6038304148
1.36700,0.2986360071
1.36750,-0.3117528083
1.36800,-1.532530439
1.36850,-1.532530439
1.36900,-0.006558400565
1.36950,0.9090248225
1.37000,0.2986360071
1.37050,-0.616947216
1.37100,-0.3117528083
1.37150,1.519413638
1.37200,2.129802453
1.37250,0.9090248225
1.37300,-0.006558400565
1.37350,1.519413638
1.37400,3.045385676
1.37450,2.434996861
1.37500,0.6038304148
1.37550,0.2986360071
1.37600,1.519413638
1.37650,2.434996861
1.37700,2.434996861
1.37750,3.045385676
1.37800,4.571357715
1.37850,5.486940938
1.37900,4.266163307
1.37950,2.434996861
1.38000,1.519413638
1.38050,1.824608046
1.38100,2.129802453
1.38150,2.740191269
1.38200,2.434996861
1.38250,1.519413638
1.38300,0.9090248225
1.38350,0.9090248225
1.38400,1.21421923
1.38450,0.9090248225
1.38500,-0.006558400565
1.38550,-0.006558400565
1.38600,1.519413638
1.38650,2.129802453
1.38700,1.824608046
1.38750,1.519413638
1.38800,2.129802453
1.38850,2.434996861
1.38900,1.519413638
1.38950,0.6038304148
1.39000,0.2986360071
1.39050,-0.006558400565
1.39100,-0.9221416237
1.39150,-3.058502478
1.39200,-4.279280108
1.39250,-4.584474516
1.39300,-4.584474516
1.39350,-4.584474516
1.39400,-4.889668924
1.39450,-5.194863331
1.39500,-5.194863331
1.39550,-3.974085701
1.39600,-2.142919254
1.39650,-1.227336031
1.39700,-1.532530439
1.39750,-2.142919254
1.39800,-1.227336031
1.39850,0.2986360071
1.39900,0.9090248225
1.39950,0.2986360071
1.40000,-0.3117528083
1.40050,0.9090248225
1.40100,5.486940938
1.40150,9.454468238
1.40200,10.06485705
1.40250,7.9284962
1.40300,6.097329753
1.40350,6.097329753
1.40400,6.402524161
1.40450,6.097329753
1.40500,5.486940938
1.40550,4.876552123
1.40600,4.266163307
1.40650,3.045385676
1.40700,1.519413638
1.40750,0.9090248225
1.40800,0.2986360071
1.40850,-0.616947216
1.40900,-2.142919254
1.40950,-3.974085701
1.41000,-6.110446555
1.41050,-8.246807409
1.41100,-8.246807409
1.41150,-6.110446555
1.41200,-4.279280108
1.41250,-4.889668924
1.41300,-6.110446555
1.41350,-6.110446555
1.41400,-4.584474516
1.41450,-3.974085701
1.41500,-3.363696885
1.41550,-1.227336031
1.41600,0.2986360071
1.41650,-0.006558400565
1.41700,-1.532530439
1.41750,-2.448113662
1.41800,-1.837724847
1.41850,-0.9221416237
1.41900,-0.616947216
1.41950,-0.006558400565
1.42000,1.21421923
1.42050,0.2986360071
1.42100,-1.532530439
1.42150,-2.448113662
1.42200,-0.616947216
1.42250,0.9090248225
1.42300,0.9090248225
1.42350,-0.006558400565
1.42400,-0.9221416237
1.42450,-0.616947216
1.42500,-0.006558400565
1.42550,0.9090248225
1.42600,1.21421923
1.42650,1.21421923
1.42700,0.9090248225
1.42750,1.519413638
1.42800,2.740191269
1.42850,2.129802453
1.42900,-0.006558400565
1.42950,-2.142919254
1.43000,-1.532530439
1.43050,0.2986360071
1.43100,0.9090248225
1.43150,0.2986360071
1.43200,-0.006558400565
1.43250,0.2986360071
1.43300,0.2986360071
1.43350,-0.9221416237
1.43400,-1.837724847
1.43450,-1.532530439
1.43500,-0.006558400565
1.43550,0.6038304148
1.43600,0.6038304148
1.43650,0.6038304148
1.43700,1.21421923
1.43750,1.519413638
1.43800,1.519413638
1.43850,1.519413638
1.43900,2.129802453
1.43950,1.824608046
1.44000,0.9090248225
1.44050,-0.006558400565
1.44100,-0.006558400565
1.44150,0.9090248225
1.44200,2.740191269
1.44250,4.571357715
1.44300,5.792135346
1.44350,6.402524161
1.44400,6.402524161
1.44450,6.097329753
1.44500,5.486940938
1.44550,5.18174653
1.44600,4.876552123
1.44650,4.571357715
1.44700,4.571357715
1.44750,4.571357715
1.44800,3.655774492
1.44850,2.129802453
1.44900,1.21421923
1.44950,1.519413638
1.45000,2.434996861
1.45050,2.434996861
1.45100,0.9090248225
1.45150,-0.616947216
1.45200,-2.142919254
1.45250,-3.668891293
1.45300,-5.500057739
1.45350,-6.72083537
1.45400,-6.72083537
1.45450,-6.110446555
1.45500,-6.415640962
1.45550,-7.331224185
1.45600,-7.026029778
1.45650,-5.500057739
1.45700,-3.668891293
1.45750,-2.448113662
1.45800,-2.448113662
1.45850,-3.668891293
1.45900,-4.584474516
1.45950,-3.668891293
1.46000,-0.616947216
1.46050,1.519413638
1.46100,0.6038304148
1.46150,-1.227336031
1.46200,-1.532530439
1.46250,0.9090248225
1.46300,3.045385676
1.46350,1.519413638
1.46400,-1.532530439
1.46450,-3.058502478
1.46500,-2.448113662
1.46550,-1.227336031
1.46600,-1.837724847
1.46650,-3.363696885
1.46700,-4.584474516
1.46750,-5.194863331
1.46800,-6.110446555
1.46850,-6.415640962
1.46900,-4.889668924
1.46950,-2.75330807
1.47000,-2.448113662
1.47050,-3.668891293
1.47100,-4.279280108
1.47150,-2.75330807
1.47200,-0.616947216
1.47250,0.9090248225
1.47300,1.21421923
1.47350,0.6038304148
1.47400,-0.006558400565
1.47450,0.2986360071
1.47500,2.434996861
1.47550,5.486940938
1.47600,6.707718569
1.47650,4.876552123
1.47700,3.045385676
1.47750,3.045385676
1.47800,3.350580084
1.47850,2.434996861
1.47900,0.6038304148
1.47950,-0.006558400565
1.48000,0.6038304148
1.48050,0.9090248225
1.48100,-0.006558400565
1.48150,-1.227336031
1.48200,-1.837724847
1.48250,-2.142919254
1.48300,-2.448113662
1.48350,-2.142919254
1.48400,-1.227336031
1.48450,-0.9221416237
1.48500,-0.9221416237
1.48550,-0.9221416237
1.48600,-0.006558400565
1.48650,0.2986360071
1.48700,0.2986360071
1.48750,-0.006558400565
1.48800,-0.006558400565
1.48850,-0.006558400565
1.48900,0.9090248225
1.48950,1.824608046
1.49000,1.519413638
1.49050,0.9090248225
1.49100,-0.006558400565
1.49150,-0.006558400565
1.49200,-0.9221416237
1.49250,-1.837724847
1.49300,-1.837724847
1.49350,-0.3117528083
1.49400,0.6038304148
1.49450,0.6038304148
1.49500,0.2986360071
1.49550,0.6038304148
1.49600,0.9090248225
1.49650,0.2986360071
1.49700,-0.3117528083
1.49750,-0.3117528083
1.49800,-0.006558400565
1.49850,0.6038304148
1.49900,0.9090248225
1.49950,0.6038304148
1.50000,-0.006558400565
1.50050,-0.006558400565
1.50100,0.2986360071
1.50150,1.519413638
1.50200,1.824608046
1.50250,1.21421923
1.50300,0.6038304148
1.50350,0.9090248225
1.50400,1.21421923
1.50450,0.2986360071
1.50500,-0.006558400565
1.50550,0.6038304148
1.50600,1.824608046
1.50650,1.519413638
1.50700,0.2986360071
1.50750,-0.006558400565
1.50800,0.6038304148
1.50850,1.824608046
1.50900,1.519413638
1.50950,0.6038304148
1.51000,0.6038304148
1.51050,1.21421923
1.51100,1.21421923
1.51150,0.2986360071
1.51200,-0.3117528083
1.51250,-0.006558400565
1.51300,0.6038304148
1.51350,1.21421923
1.51400,1.519413638
1.51450,2.129802453
1.51500,3.045385676
1.51550,3.9609689
1.51600,4.266163307
1.51650,4.876552123
1.51700,5.792135346
1.51750,6.707718569
1.51800,6.402524161
1.51850,6.402524161
1.51900,6.707718569
1.51950,6.097329753
1.52000,3.045385676
1.52050,-0.616947216
1.52100,-3.363696885
1.52150,-4.889668924
1.52200,-5.805252147
1.52250,-6.72083537
1.52300,-6.72083537
1.52350,-6.110446555
1.52400,-5.805252147
1.52450,-6.110446555
1.52500,-5.194863331
1.52550,-3.058502478
1.52600,-0.616947216
1.52650,0.9090248225
1.52700,2.129802453
1.52750,3.045385676
1.52800,3.045385676
1.52850,1.824608046
1.52900,1.519413638
1.52950,2.129802453
1.53000,2.434996861
1.53050,1.21421923
1.53100,-0.006558400565
1.53150,-0.006558400565
1.53200,-0.006558400565
1.53250,-0.3117528083
1.53300,-1.227336031
1.53350,-0.616947216
1.53400,0.6038304148
1.53450,0.9090248225
1.53500,0.6038304148
1.53550,0.6038304148
1.53600,1.21421923
1.53650,1.21421923
1.53700,-0.006558400565
1.53750,-0.3117528083
1.53800,-0.006558400565
1.53850,0.6038304148
1.53900,1.21421923
1.53950,1.519413638
1.54000,2.434996861
1.54050,3.045385676
1.54100,3.045385676
1.54150,2.129802453
1.54200,0.6038304148
1.54250,-0.006558400565
1.54300,-1.227336031
1.54350,-2.75330807
1.54400,-4.279280108
1.54450,-4.279280108
1.54500,-3.668891293
1.54550,-3.363696885
1.54600,-4.279280108
1.54650,-5.805252147
1.54700,-7.026029778
1.54750,-6.72083537
1.54800,-5.194863331
1.54850,-3.668891293
1.54900,-2.448113662
1.54950,-1.837724847
1.55000,-1.532530439
1.55050,-1.837724847
1.55100,-2.448113662
1.55150,-2.448113662
1.55200,-1.837724847
1.55250,-0.3117528083
1.55300,-0.006558400565
1.55350,-0.3117528083
1.55400,-1.227336031
1.55450,-1.227336031
1.55500,-0.616947216
1.55550,-0.006558400565
1.55600,0.6038304148
1.55650,1.21421923
1.55700,1.519413638
1.55750,1.519413638
1.55800,0.9090248225
1.55850,0.2986360071
1.55900,0.2986360071
1.55950,0.2986360071
1.56000,0.2986360071
1.56050,-0.006558400565
1.56100,-0.006558400565
1.56150,0.6038304148
1.56200,2.129802453
1.56250,2.740191269
1.56300,2.434996861
1.56350,0.9090248225
1.56400,-0.006558400565
1.56450,-0.006558400565
1.56500,-0.006558400565
1.56550,-0.3117528083
1.56600,-0.616947216
1.56650,-0.616947216
1.56700,-0.3117528083
1.56750,-0.3117528083
1.56800,-0.9221416237
1.56850,-0.616947216
1.56900,0.9090248225
1.56950,2.434996861
1.57000,1.519413638
1.57050,0.2986360071
1.57100,0.2986360071
1.57150,2.129802453
1.57200,2.434996861
1.57250,1.21421923
1.57300,0.6038304148
1.57350,1.21421923
1.57400,1.824608046
1.57450,0.6038304148
1.57500,-0.3117528083
1.57550,-0.006558400565
1.57600,1.519413638
1.57650,1.519413638
1.57700,-0.006558400565
1.57750,-0.616947216
1.57800,-0.3117528083
1.57850,-0.006558400565
1.57900,-0.006558400565
1.57950,-0.3117528083
1.58000,-0.3117528083
1.58050,-0.3117528083
1.58100,-0.006558400565
1.58150,1.21421923
1.58200,1.519413638
1.58250,0.9090248225
1.58300,-0.006558400565
1.58350,-0.006558400565
1.58400,0.9090248225
1.58450,1.21421923
1.58500,0.9090248225
1.58550,0.6038304148
1.58600,0.2986360071
1.58650,-0.006558400565
1.58700,1.824608046
1.58750,5.18174653
1.58800,7.623301792
1.58850,6.707718569
1.58900,4.266163307
1.58950,3.045385676
1.59000,3.655774492
1.59050,3.655774492
1.59100,1.824608046
1.59150,-0.006558400565
1.59200,-0.9221416237
1.59250,-1.532530439
1.59300,-2.448113662
1.59350,-3.058502478
1.59400,-2.448113662
1.59450,-1.532530439
1.59500,-0.616947216
1.59550,0.6038304148
1.59600,1.824608046
1.59650,2.740191269
1.59700,3.045385676
1.59750,3.350580084
1.59800,3.350580084
1.59850,3.350580084
1.59900,3.350580084
1.59950,3.655774492
1.60000,3.350580084
1.60050,0.9090248225
1.60100,-1.837724847
1.60150,-3.363696885
1.60200,-2.75330807
1.60250,-1.227336031
1.60300,-0.616947216
1.60350,-1.532530439
1.60400,-2.75330807
1.60450,-3.668891293
1.60500,-3.668891293
1.60550,-2.75330807
1.60600,-1.532530439
1.60650,-0.9221416237
1.60700,-1.227336031
1.60750,-2.448113662
1.60800,-3.363696885
1.60850,-4.584474516
1.60900,-5.194863331
1.60950,-4.889668924
1.61000,-4.584474516
1.61050,-4.584474516
1.61100,-4.889668924
1.61150,-3.363696885
1.61200,-0.006558400565
1.61250,3.9609689
1.61300,7.012912977
1.61350,7.012912977
1.61400,5.18174653
1.61450,3.9609689
1.61500,3.655774492
1.61550,3.655774492
1.61600,2.434996861
1.61650,0.6038304148
1.61700,-0.616947216
1.61750,-1.837724847
1.61800,-2.448113662
1.61850,-2.448113662
1.61900,-2.448113662
1.61950,-3.974085701
1.62000,-7.331224185
1.62050,-9.162390632
1.62100,-7.636418593
1.62150,-3.668891293
1.62200,-0.9221416237
1.62250,-0.9221416237
1.62300,-0.9221416237
1.62350,-0.006558400565
1.62400,1.519413638
1.62450,2.129802453
1.62500,2.129802453
1.62550,1.519413638
1.62600,0.6038304148
1.62650,-0.3117528083
1.62700,-0.616947216
1.62750,-0.006558400565
1.62800,0.2986360071
1.62850,-0.3117528083
1.62900,-1.227336031
1.62950,-1.227336031
1.63000,-0.9221416237
1.63050,-1.227336031
1.63100,-2.75330807
1.63150,-3.668891293
1.63200,-3.974085701
1.63250,-3.974085701
1.63300,-3.974085701
1.63350,-3.668891293
1.63400,-2.448113662
1.63450,-1.227336031
1.63500,-1.532530439
1.63550,-2.142919254
1.63600,-1.227336031
1.63650,0.6038304148
1.63700,1.824608046
1.63750,-0.006558400565
1.63800,-1.837724847
1.63850,-1.227336031
1.63900,1.519413638
1.63950,3.350580084
1.64000,2.740191269
1.64050,1.519413638
1.64100,1.824608046
1.64150,2.129802453
1.64200,1.519413638
1.64250,0.6038304148
1.64300,0.9090248225
1.64350,1.21421923
1.64400,0.6038304148
1.64450,-0.3117528083
1.64500,-0.3117528083
1.64550,0.6038304148
1.64600,1.824608046
1.64650,2.129802453
1.64700,1.21421923
1.64750,-0.006558400565
1.64800,0.2986360071
1.64850,1.21421923
1.64900,2.129802453
1.64950,2.129802453
1.65000,1.519413638
1.65050,1.824608046
1.65100,1.824608046
1.65150,0.6038304148
1.65200,-0.006558400565
1.65250,0.2986360071
1.65300,1.519413638
1.65350,1.824608046
1.65400,0.6038304148
1.65450,-0.006558400565
1.65500,0.6038304148
1.65550,1.21421923
1.65600,0.6038304148
1.65650,-0.616947216
1.65700,-0.9221416237
1.65750,-0.006558400565
1.65800,0.6038304148
1.65850,0.2986360071
1.65900,0.2986360071
1.65950,0.6038304148
1.66000,0.9090248225
1.66050,1.21421923
1.66100,1.21421923
1.66150,1.519413638
1.66200,1.824608046
1.66250,1.824608046
1.66300,1.824608046
1.66350,2.129802453
1.66400,2.129802453
1.66450,2.129802453
1.66500,1.519413638
1.66550,0.6038304148
1.66600,0.2986360071
1.66650,1.824608046
1.66700,4.876552123
1.66750,7.012912977
1.66800,7.012912977
1.66850,5.18174653
1.66900,3.655774492
1.66950,2.434996861
1.67000,0.2986360071
1.67050,-1.837724847
1.67100,-2.448113662
1.67150,-0.9221416237
1.67200,-0.3117528083
1.67250,-1.837724847
1.67300,-2.75330807
1.67350,-1.532530439
1.67400,-0.3117528083
1.67450,-0.9221416237
1.67500,-2.75330807
1.67550,-2.75330807
1.67600,-1.837724847
1.67650,-1.227336031
1.67700,-1.227336031
1.67750,-0.9221416237
1.67800,-0.616947216
1.67850,-1.532530439
1.67900,-2.75330807
1.67950,-2.75330807
1.68000,-1.227336031
1.68050,-0.3117528083
1.68100,-0.616947216
1.68150,-0.3117528083
1.68200,0.6038304148
1.68250,1.824608046
1.68300,3.350580084
1.68350,6.402524161
1.68400,9.759662646
1.68450,10.37005146
1.68500,6.707718569
1.68550,2.434996861
1.68600,0.9090248225
1.68650,1.21421923
1.68700,0.2986360071
1.68750,-2.142919254
1.68800,-4.889668924
1.68850,-6.415640962
1.68900,-6.72083537
1.68950,-6.72083537
1.69000,-7.636418593
1.69050,-10.07797385
1.69100,-13.12991793
1.69150,-14.35069556
1.69200,-12.21433471
1.69250,-9.162390632
1.69300,-7.941613001
1.69350,-8.246807409
1.69400,-7.941613001
1.69450,-6.415640962
1.69500,-5.805252147
1.69550,-6.72083537
1.69600,-7.331224185
1.69650,-5.805252147
1.69700,-3.058502478
1.69750,-0.9221416237
1.69800,-0.006558400565
1.69850,1.519413638
1.69900,3.350580084
1.69950,4.266163307
1.70000,3.9609689
1.70050,2.740191269
1.70100,1.21421923
1.70150,0.2986360071
1.70200,1.21421923
1.70250,3.350580084
1.70300,3.9609689
1.70350,1.824608046
1.70400,-0.006558400565
1.70450,-0.3117528083
1.70500,1.21421923
1.70550,2.434996861
1.70600,2.129802453
1.70650,0.9090248225
1.70700,-0.006558400565
1.70750,-0.616947216
1.70800,-0.3117528083
1.70850,0.2986360071
1.70900,1.519413638
1.70950,1.824608046
1.71000,1.519413638
1.71050,1.21421923
1.71100,0.9090248225
1.71150,-0.006558400565
1.71200,-0.3117528083
1.71250,0.6038304148
1.71300,2.740191269
1.71350,3.350580084
1.71400,2.129802453
1.71450,0.9090248225
1.71500,1.824608046
1.71550,3.655774492
1.71600,4.266163307
1.71650,3.655774492
1.71700,2.740191269
1.71750,2.129802453
1.71800,1.824608046
1.71850,1.21421923
1.71900,1.21421923
1.71950,1.824608046
1.72000,2.434996861
1.72050,1.824608046
1.72100,1.824608046
1.72150,2.740191269
1.72200,4.876552123
1.72250,5.792135346
1.72300,5.792135346
1.72350,5.18174653
1.72400,5.18174653
1.72450,5.792135346
1.72500,5.792135346
1.72550,4.876552123
1.72600,3.9609689
1.72650,3.045385676
1.72700,2.434996861
1.72750,0.9090248225
1.72800,-0.9221416237
1.72850,-2.448113662
1.72900,-3.058502478
1.72950,-3.058502478
1.73000,-4.279280108
1.73050,-5.500057739
1.73100,-5.805252147
1.73150,-5.194863331
1.73200,-4.584474516
1.73250,-5.500057739
1.73300,-6.415640962
1.73350,-5.805252147
1.73400,-3.363696885
1.73450,-0.3117528083
1.73500,2.434996861
1.73550,5.486940938
1.73600,7.623301792
1.73650,7.9284962
1.73700,7.012912977
1.73750,6.097329753
1.73800,5.792135346
1.73850,5.486940938
1.73900,4.571357715
1.73950,2.434996861
1.74000,-0.9221416237
1.74050,-4.584474516
1.74100,-7.636418593
1.74150,-8.857196224
1.74200,-8.857196224
1.74250,-8.552001816
1.74300,-7.941613001
1.74350,-7.026029778
1.74400,-5.194863331
1.74450,-2.75330807
1.74500,-0.616947216
1.74550,-0.006558400565
1.74600,-0.006558400565
1.74650,-0.3117528083
1.74700,-0.006558400565
1.74750,0.6038304148
1.74800,-0.006558400565
1.74850,-0.9221416237
1.74900,-0.006558400565
1.74950,2.129802453
1.75000,3.655774492
1.75050,3.045385676
1.75100,2.434996861
1.75150,2.740191269
1.75200,3.045385676
1.75250,1.824608046
1.75300,0.9090248225
1.75350,0.9090248225
1.75400,1.21421923
1.75450,-0.006558400565
1.75500,-1.227336031
1.75550,-1.227336031
1.75600,-0.9221416237
1.75650,-1.837724847
1.75700,-3.058502478
1.75750,-2.448113662
1.75800,-0.3117528083
1.75850,0.9090248225
1.75900,0.6038304148
1.75950,-0.006558400565
1.76000,0.2986360071
1.76050,0.9090248225
1.76100,1.519413638
1.76150,2.434996861
1.76200,3.655774492
1.76250,3.350580084
1.76300,1.824608046
1.76350,0.6038304148
1.76400,0.9090248225
1.76450,1.824608046
1.76500,2.740191269
1.76550,2.434996861
1.76600,1.519413638
1.76650,0.6038304148
1.76700,1.21421923
1.76750,3.045385676
1.76800,4.571357715
1.76850,3.9609689
1.76900,3.045385676
1.76950,3.045385676
1.77000,4.266163307
1.77050,4.571357715
1.77100,4.571357715
1.77150,4.876552123
1.77200,5.18174653
1.77250,3.9609689
1.77300,2.740191269
1.77350,2.740191269
1.77400,3.350580084
1.77450,2.129802453
1.77500,-0.3117528083
1.77550,-1.837724847
1.77600,-1.227336031
1.77650,-0.9221416237
1.77700,-2.448113662
1.77750,-4.279280108
1.77800,-5.805252147
1.77850,-6.415640962
1.77900,-6.110446555
1.77950,-4.279280108
1.78000,-2.142919254
1.78050,-2.448113662
1.78100,-5.500057739
1.78150,-8.246807409
1.78200,-9.162390632
1.78250,-8.857196224
1.78300,-9.162390632
1.78350,-9.162390632
1.78400,-7.636418593
1.78450,-6.72083537
1.78500,-6.415640962
1.78550,-5.805252147
1.78600,-4.279280108
1.78650,-3.668891293
1.78700,-4.889668924
1.78750,-6.415640962
1.78800,-5.500057739
1.78850,-3.668891293
1.78900,-2.75330807
1.78950,-3.058502478
1.79000,-2.75330807
1.79050,-1.532530439
1.79100,-0.616947216
1.79150,-0.3117528083
1.79200,-0.3117528083
1.79250,-0.3117528083
1.79300,-0.3117528083
1.79350,0.2986360071
1.79400,1.824608046
1.79450,3.045385676
1.79500,3.350580084
1.79550,3.045385676
1.79600,3.045385676
1.79650,2.740191269
1.79700,2.129802453
1.79750,1.21421923
1.79800,0.6038304148
1.79850,1.21421923
1.79900,3.655774492
1.79950,7.9284962
1.80000,12.20121791
1.80050,14.03238435
1.80100,14.33757876
1.80150,14.33757876
1.80200,14.94796758
1.80250,14.94796758
1.80300,13.11680113
1.80350,10.37005146
1.80400,7.9284962
1.80450,4.876552123
1.80500,1.519413638
1.80550,-2.142919254
1.80600,-5.500057739
1.80650,-9.467585039
1.80700,-13.43511234
1.80750,-15.26627879
1.80800,-13.12991793
1.80850,-9.162390632
1.80900,-5.805252147
1.80950,-3.974085701
1.81000,-3.058502478
1.81050,-2.75330807
1.81100,-3.058502478
1.81150,-3.668891293
1.81200,-3.668891293
1.81250,-2.142919254
1.81300,-1.227336031
1.81350,-1.227336031
1.81400,-1.532530439
1.81450,-2.142919254
1.81500,-2.75330807
1.81550,-3.668891293
1.81600,-4.889668924
1.81650,-5.500057739
1.81700,-5.805252147
1.81750,-4.889668924
1.81800,-2.75330807
1.81850,-0.3117528083
1.81900,0.2986360071
1.81950,0.6038304148
1.82000,1.519413638
1.82050,2.434996861
1.82100,3.045385676
1.82150,3.350580084
1.82200,3.655774492
1.82250,4.266163307
1.82300,4.571357715
1.82350,3.9609689
1.82400,3.350580084
1.82450,2.129802453
1.82500,0.6038304148
1.82550,-0.616947216
1.82600,-1.227336031
1.82650,-1.532530439
1.82700,-1.837724847
1.82750,-2.142919254
1.82800,-1.227336031
1.82850,-0.616947216
1.82900,-1.532530439
1.82950,-2.448113662
1.83000,-1.837724847
1.83050,-0.006558400565
1.83100,0.2986360071
1.83150,0.2986360071
1.83200,-0.006558400565
1.83250,0.9090248225
1.83300,0.9090248225
1.83350,0.2986360071
1.83400,-0.006558400565
1.83450,1.21421923
1.83500,3.045385676
1.83550,3.655774492
1.83600,3.045385676
1.83650,1.519413638
1.83700,-0.006558400565
1.83750,-1.227336031
1.83800,-1.837724847
1.83850,-2.142919254
1.83900,-2.75330807
1.83950,-3.363696885
1.84000,-3.668891293
1.84050,-3.974085701
1.84100,-4.584474516
1.84150,-4.889668924
1.84200,-3.974085701
1.84250,-2.142919254
1.84300,-1.532530439
1.84350,-0.9221416237
1.84400,0.2986360071
1.84450,3.045385676
1.84500,4.876552123
1.84550,3.9609689
1.84600,2.434996861
1.84650,2.740191269
1.84700,4.571357715
1.84750,6.097329753
1.84800,5.792135346
1.84850,4.571357715
1.84900,3.350580084
1.84950,2.740191269
1.85000,3.045385676
1.85050,3.350580084
1.85100,3.045385676
1.85150,2.129802453
1.85200,1.21421923
1.85250,0.6038304148
1.85300,0.2986360071
1.85350,0.2986360071
1.85400,1.824608046
1.85450,5.18174653
1.85500,8.233690607
1.85550,7.9284962
1.85600,5.18174653
1.85650,2.434996861
1.85700,2.434996861
1.85750,3.655774492
1.85800,4.571357715
1.85850,3.9609689
1.85900,2.129802453
1.85950,0.6038304148
1.86000,0.2986360071
1.86050,1.21421923
1.86100,1.519413638
1.86150,-0.006558400565
1.86200,-1.837724847
1.86250,-2.448113662
1.86300,-1.837724847
1.86350,-2.448113662
1.86400,-3.974085701
1.86450,-4.279280108
1.86500,-2.448113662
1.86550,-1.532530439
1.86600,-3.363696885
1.86650,-5.805252147
1.86700,-5.805252147
1.86750,-4.584474516
1.86800,-4.584474516
1.86850,-6.415640962
1.86900,-7.636418593
1.86950,-7.026029778
1.87000,-5.805252147
1.87050,-5.805252147
1.87100,-5.194863331
1.87150,-2.75330807
1.87200,-0.006558400565
1.87250,1.824608046
1.87300,1.824608046
1.87350,1.21421923
1.87400,0.6038304148
1.87450,0.6038304148
1.87500,0.9090248225
1.87550,1.519413638
1.87600,1.21421923
1.87650,-0.006558400565
1.87700,-0.616947216
1.87750,-0.006558400565
1.87800,2.129802453
1.87850,3.350580084
1.87900,2.434996861
1.87950,0.6038304148
1.88000,-0.006558400565
1.88050,0.2986360071
1.88100,0.2986360071
1.88150,-0.3117528083
1.88200,-2.142919254
1.88250,-3.058502478
1.88300,-2.75330807
1.88350,-2.448113662
1.88400,-2.448113662
1.88450,-2.448113662
1.88500,-1.227336031
1.88550,-0.616947216
1.88600,-1.227336031
1.88650,-1.837724847
1.88700,-1.227336031
1.88750,-0.006558400565
1.88800,-0.616947216
1.88850,-3.058502478
1.88900,-4.279280108
1.88950,-3.363696885
1.89000,-2.142919254
1.89050,-2.142919254
1.89100,-1.227336031
1.89150,0.6038304148
1.89200,2.740191269
1.89250,3.045385676
1.89300,2.434996861
1.89350,2.129802453
1.89400,2.434996861
1.89450,2.129802453
1.89500,1.824608046
1.89550,2.434996861
1.89600,3.045385676
1.89650,2.129802453
1.89700,1.21421923
1.89750,1.21421923
1.89800,2.129802453
1.89850,1.824608046
1.89900,0.9090248225
1.89950,0.6038304148
1.90000,1.21421923
1.90050,1.21421923
1.90100,0.2986360071
1.90150,-0.006558400565
1.90200,0.2986360071
1.90250,0.6038304148
1.90300,-0.006558400565
1.90350,-0.006558400565
1.90400,1.824608046
1.90450,3.045385676
1.90500,1.824608046
1.90550,-0.006558400565
1.90600,1.21421923
1.90650,4.266163307
1.90700,5.792135346
1.90750,4.876552123
1.90800,3.350580084
1.90850,3.045385676
1.90900,2.434996861
1.90950,1.21421923
1.91000,0.9090248225
1.91050,2.434996861
1.91100,3.350580084
1.91150,2.129802453
1.91200,0.6038304148
1.91250,1.21421923
1.91300,4.571357715
1.91350,7.012912977
1.91400,7.012912977
1.91450,6.707718569
1.91500,7.623301792
1.91550,9.14927383
1.91600,8.233690607
1.91650,4.876552123
1.91700,2.129802453
1.91750,1.824608046
1.91800,1.519413638
1.91850,-1.227336031
1.91900,-5.500057739
1.91950,-6.110446555
1.92000,-2.142919254
1.92050,2.129802453
1.92100,3.9609689
1.92150,3.655774492
1.92200,3.350580084
1.92250,3.350580084
1.92300,2.434996861
1.92350,1.21421923
1.92400,0.2986360071
1.92450,-0.9221416237
1.92500,-3.058502478
1.92550,-4.279280108
1.92600,-4.279280108
1.92650,-5.500057739
1.92700,-8.246807409
1.92750,-9.772779447
1.92800,-8.246807409
1.92850,-6.72083537
1.92900,-7.026029778
1.92950,-7.331224185
1.93000,-5.805252147
1.93050,-4.889668924
1.93100,-5.194863331
1.93150,-5.194863331
1.93200,-2.448113662
1.93250,0.6038304148
1.93300,1.21421923
1.93350,-0.006558400565
1.93400,-1.532530439
1.93450,-2.75330807
1.93500,-3.974085701
1.93550,-4.584474516
1.93600,-2.75330807
1.93650,-0.006558400565
1.93700,0.2986360071
1.93750,-0.9221416237
1.93800,-1.837724847
1.93850,-1.227336031
1.93900,-0.006558400565
1.93950,0.6038304148
1.94000,0.6038304148
1.94050,-0.006558400565
1.94100,-2.142919254
1.94150,-3.974085701
1.94200,-5.194863331
1.94250,-6.110446555
1.94300,-8.246807409
1.94350,-10.07797385
1.94400,-9.772779447
1.94450,-8.246807409
1.94500,-6.72083537
1.94550,-5.805252147
1.94600,-4.584474516
1.94650,-2.75330807
1.94700,-1.532530439
1.94750,-0.9221416237
1.94800,1.21421923
1.94850,5.486940938
1.94900,8.538885015
1.94950,7.623301792
1.95000,4.571357715
1.95050,3.655774492
1.95100,4.876552123
1.95150,4.571357715
1.95200,2.740191269
1.95250,3.045385676
1.95300,5.792135346
1.95350,7.9284962
1.95400,7.9284962
1.95450,9.454468238
1.95500,14.64277317
1.95550,19.8310781
1.95600,19.52588369
1.95650,15.25316198
1.95700,11.59082909
1.95750,10.67524587
1.95800,10.06485705
1.95850,7.9284962
1.95900,5.18174653
1.95950,2.434996861
1.96000,0.9090248225
1.96050,2.129802453
1.96100,7.623301792
1.96150,11.8960235
1.96200,10.37005146
1.96250,3.655774492
1.96300,-2.75330807
1.96350,-7.026029778
1.96400,-10.99355708
1.96450,-15.8766676
1.96500,-19.8441949
1.96550,-21.37016694
1.96600,-22.59094457
1.96650,-25.64288865
1.96700,-28.38963832
1.96750,-29.00002713
1.96800,-27.47405509
1.96850,-24.42211102
1.96900,-21.06497253
1.96950,-17.09744523
1.97000,-14.35069556
1.97050,-12.51952912
1.97100,-10.38316826
1.97150,-7.331224185
1.97200,-3.974085701
1.97250,-1.532530439
1.97300,0.6038304148
1.97350,2.129802453
1.97400,2.434996861
1.97450,2.129802453
1.97500,2.434996861
1.97550,3.350580084
1.97600,3.350580084
1.97650,3.045385676
1.97700,3.655774492
1.97750,5.486940938
1.97800,7.9284962
1.97850,8.844079423
1.97900,9.454468238
1.97950,9.759662646
1.98000,10.06485705
1.98050,8.844079423
1.98100,6.707718569
1.98150,5.486940938
1.98200,5.18174653
1.98250,3.9609689
1.98300,1.21421923
1.98350,-0.9221416237
1.98400,-1.837724847
1.98450,-1.532530439
1.98500,-0.006558400565
1.98550,2.129802453
1.98600,3.9609689
1.98650,4.266163307
1.98700,3.350580084
1.98750,3.655774492
1.98800,6.402524161
1.98850,8.538885015
1.98900,7.623301792
1.98950,5.486940938
1.99000,4.571357715
1.99050,4.266163307
1.99100,2.129802453
1.99150,-0.006558400565
1.99200,-0.006558400565
1.99250,1.824608046
1.99300,1.519413638
1.99350,-1.532530439
1.99400,-3.058502478
1.99450,-1.227336031
1.99500,0.6038304148
1.99550,0.2986360071
1.99600,1.21421923
1.99650,5.486940938
1.99700,9.759662646
1.99750,9.759662646
1.99800,6.707718569
1.99850,5.486940938
1.99900,6.707718569
1.99950,7.623301792
2.00000,5.486940938
2.00050,2.434996861
2.00100,-0.006558400565
2.00150,-2.75330807
2.00200,-6.110446555
2.00250,-8.246807409
2.00300,-8.857196224
2.00350,-9.162390632
2.00400,-10.68836267
2.00450,-12.51952912
2.00500,-13.12991793
2.00550,-12.21433471
2.00600,-10.38316826
2.00650,-7.026029778
2.00700,-2.142919254
2.00750,1.824608046
2.00800,4.266163307
2.00850,5.18174653
2.00900,6.097329753
2.00950,7.9284962
2.01000,9.759662646
2.01050,9.454468238
2.01100,7.012912977
2.01150,6.097329753
2.01200,10.98044028
2.01250,18.91549488
2.01300,22.57782777
2.01350,19.22068928
2.01400,13.11680113
2.01450,10.67524587
2.01500,11.59082909
2.01550,11.8960235
2.01600,10.06485705
2.01650,8.233690607
2.01700,7.9284962
2.01750,6.707718569
2.01800,3.655774492
2.01850,-0.3117528083
2.01900,-4.889668924
2.01950,-9.772779447
2.02000,-14.04550115
2.02050,-16.48705642
2.02100,-16.79225082
2.02150,-17.09744523
2.02200,-17.70783405
2.02250,-18.01302845
2.02300,-17.40263964
2.02350,-17.40263964
2.02400,-18.62341727
2.02450,-17.40263964
2.02500,-12.51952912
2.02550,-5.805252147
2.02600,-0.616947216
2.02650,1.21421923
2.02700,2.129802453
2.02750,2.129802453
2.02800,0.9090248225
2.02850,-0.006558400565
2.02900,0.6038304148
2.02950,3.350580084
2.03000,4.571357715
2.03050,3.655774492
2.03100,1.21421923
2.03150,-0.006558400565
2.03200,-1.227336031
2.03250,-2.448113662
2.03300,-2.75330807
2.03350,-0.616947216
2.03400,1.824608046
2.03450,4.266163307
2.03500,6.097329753
2.03550,7.623301792
2.03600,8.844079423
2.03650,8.844079423
2.03700,8.844079423
2.03750,9.454468238
2.03800,9.14927383
2.03850,5.486940938
2.03900,1.824608046
2.03950,1.824608046
2.04000,4.571357715
2.04050,3.655774492
2.04100,-0.9221416237
2.04150,-4.889668924
2.04200,-6.110446555
2.04250,-6.72083537
2.04300,-8.857196224
2.04350,-10.68836267
2.04400,-11.60394589
2.04450,-13.74030675
2.04500,-15.57147319
2.04550,-10.38316826
2.04600,2.434996861
2.04650,13.72718995
2.04700,15.25316198
2.04750,11.28563468
2.04800,11.59082909
2.04850,16.47393962
2.04900,17.99991165
2.04950,13.72718995
2.05000,7.623301792
2.05050,2.129802453
2.05100,-4.279280108
2.05150,-11.29875149
2.05200,-14.35069556
2.05250,-13.12991793
2.05300,-12.51952912
2.05350,-14.96108438
2.05400,-16.79225082
2.05450,-15.26627879
2.05500,-12.51952912
2.05550,-11.9091403
2.05600,-11.60394589
2.05650,-9.162390632
2.05700,-4.889668924
2.05750,-0.9221416237
2.05800,1.824608046
2.05850,3.655774492
2.05900,5.18174653
2.05950,7.318107384
2.06000,11.59082909
2.06050,17.69471725
2.06100,22.88302218
2.06150,24.40899422
2.06200,23.49341099
2.06250,20.13627251
2.06300,14.94796758
2.06350,8.538885015
2.06400,4.266163307
2.06450,1.519413638
2.06500,-2.142919254
2.06550,-8.246807409
2.06600,-12.21433471
2.06650,-12.21433471
2.06700,-10.38316826
2.06750,-10.68836267
2.06800,-12.21433471
2.06850,-12.21433471
2.06900,-11.29875149
2.06950,-11.9091403
2.07000,-13.43511234
2.07050,-13.12991793
2.07100,-10.68836267
2.07150,-8.246807409
2.07200,-6.415640962
2.07250,-3.974085701
2.07300,-0.9221416237
2.07350,0.2986360071
2.07400,0.2986360071
2.07450,3.045385676
2.07500,9.454468238
2.07550,14.03238435
2.07600,12.50641232
2.07650,6.097329753
2.07700,0.2986360071
2.07750,-1.837724847
2.07800,-2.75330807
2.07850,-3.974085701
2.07900,-5.500057739
2.07950,-6.72083537
2.08000,-6.72083537
2.08050,-5.194863331
2.08100,-3.363696885
2.08150,-3.058502478
2.08200,-4.584474516
2.08250,-6.72083537
2.08300,-7.636418593
2.08350,-7.331224185
2.08400,-6.110446555
2.08450,-5.500057739
2.08500,-4.889668924
2.08550,-3.974085701
2.08600,-2.75330807
2.08650,-0.9221416237
2.08700,-0.3117528083
2.08750,-0.9221416237
2.08800,-2.142919254
2.08850,-1.837724847
2.08900,-0.006558400565
2.08950,1.519413638
2.09000,2.434996861
2.09050,3.655774492
2.09100,5.18174653
2.09150,4.571357715
2.09200,2.740191269
2.09250,2.129802453
2.09300,4.571357715
2.09350,7.318107384
2.09400,7.318107384
2.09450,5.486940938
2.09500,4.876552123
2.09550,5.792135346
2.09600,7.318107384
2.09650,8.538885015
2.09700,10.37005146
2.09750,11.59082909
2.09800,11.8960235
2.09850,12.81160672
2.09900,14.94796758
2.09950,15.8635508
2.10000,13.72718995
2.10050,10.06485705
2.10100,7.9284962
2.10150,6.707718569
2.10200,4.266163307
2.10250,2.129802453
2.10300,2.129802453
2.10350,2.740191269
2.10400,-0.006558400565
2.10450,-5.500057739
2.10500,-8.246807409
2.10550,-6.415640962
2.10600,-5.194863331
2.10650,-7.026029778
2.10700,-7.941613001
2.10750,-2.75330807
2.10800,6.097329753
2.10850,12.50641232
2.10900,14.33757876
2.10950,14.94796758
2.11000,16.16874521
2.11050,15.25316198
2.11100,10.06485705
2.11150,3.350580084
2.11200,-0.3117528083
2.11250,-0.9221416237
2.11300,-0.9221416237
2.11350,-2.142919254
2.11400,-3.974085701
2.11450,-6.110446555
2.11500,-8.857196224
2.11550,-12.21433471
2.11600,-11.9091403
2.11650,-4.889668924
2.11700,3.9609689
2.11750,7.9284962
2.11800,3.655774492
2.11850,-1.532530439
2.11900,-1.837724847
2.11950,2.434996861
2.12000,4.876552123
2.12050,2.740191269
2.12100,-0.9221416237
2.12150,-4.584474516
2.12200,-8.246807409
2.12250,-12.82472352
2.12300,-17.70783405
2.12350,-21.37016694
2.12400,-23.50652779
2.12450,-24.42211102
2.12500,-25.03249983
2.12550,-24.11691661
2.12600,-19.8441949
2.12650,-14.04550115
2.12700,-9.772779447
2.12750,-7.941613001
2.12800,-3.974085701
2.12850,3.9609689
2.12900,10.06485705
2.12950,6.402524161
2.13000,-2.142919254
2.13050,-2.142919254
2.13100,10.37005146
2.13150,23.18821658
2.13200,25.93496625
2.13250,25.32457744
2.13300,32.64924322
2.13350,45.16221394
2.13400,49.12974124
2.13450,42.11026986
2.13500,32.95443763
2.13550,26.85054948
2.13600,19.8310781
2.13650,7.318107384
2.13700,-6.110446555
2.13750,-16.18186201
2.13800,-23.8117222
2.13850,-31.7467768
2.13900,-37.85066496
2.13950,-39.98702581
2.14000,-38.15585936
2.14050,-34.79872088
2.14100,-29.91561036
2.14150,-24.42211102
2.14200,-19.8441949
2.14250,-16.79225082
2.14300,-13.43511234
2.14350,-10.07797385
2.14400,-8.857196224
2.14450,-10.07797385
2.14500,-10.38316826
2.14550,-8.246807409
2.14600,-6.72083537
2.14650,-7.941613001
2.14700,-9.162390632
2.14750,-7.941613001
2.14800,-5.194863331
2.14850,-2.448113662
2.14900,0.2986360071
2.14950,3.655774492
2.15000,5.18174653
2.15050,4.876552123
2.15100,6.402524161
2.15150,11.28563468
2.15200,16.77913402
2.15250,17.99991165
2.15300,15.8635508
2.15350,14.64277317
2.15400,15.55835639
2.15450,16.16874521
2.15500,14.94796758
2.15550,12.81160672
2.15600,11.59082909
2.15650,10.06485705
2.15700,7.9284962
2.15750,6.707718569
2.15800,5.792135346
2.15850,2.434996861
2.15900,-2.142919254
2.15950,-6.72083537
2.16000,-9.162390632
2.16050,-11.9091403
2.16100,-16.18186201
2.16150,-18.62341727
2.16200,-17.40263964
2.16250,-15.8766676
2.16300,-17.09744523
2.16350,-17.70783405
2.16400,-12.21433471
2.16450,-3.058502478
2.16500,2.129802453
2.16550,2.740191269
2.16600,3.350580084
2.16650,8.233690607
2.16700,14.33757876
2.16750,16.47393962
2.16800,14.33757876
2.16850,10.98044028
2.16900,11.59082909
2.16950,17.99991165
2.17000,25.93496625
2.17050,27.7661327
2.17100,22.57782777
2.17150,17.08432843
2.17200,16.47393962
2.17250,16.77913402
2.17300,11.59082909
2.17350,5.792135346
2.17400,6.097329753
2.17450,7.9284962
2.17500,3.655774492
2.17550,-3.363696885
2.17600,-0.616947216
2.17650,14.03238435
2.17700,25.93496625
2.17750,22.88302218
2.17800,11.8960235
2.17850,5.486940938
2.17900,5.18174653
2.17950,2.740191269
2.18000,-3.058502478
2.18050,-8.552001816
2.18100,-10.99355708
2.18150,-14.35069556
2.18200,-21.67536135
2.18250,-31.13638799
2.18300,-38.15585936
2.18350,-41.20780344
2.18400,-41.20780344
2.18450,-39.07144259
2.18500,-36.01949851
2.18550,-32.35716562
2.18600,-27.7792495
2.18650,-20.75977812
2.18700,-12.21433471
2.18750,-4.584474516
2.18800,-1.532530439
2.18850,-1.532530439
2.18900,0.6038304148
2.18950,6.707718569
2.19000,12.20121791
2.19050,11.59082909
2.19100,7.318107384
2.19150,4.876552123
2.19200,6.097329753
2.19250,7.9284962
2.19300,7.9284962
2.19350,8.233690607
2.19400,8.233690607
2.19450,6.402524161
2.19500,3.9609689
2.19550,5.18174653
2.19600,8.538885015
2.19650,9.454468238
2.19700,7.318107384
2.19750,7.623301792
2.19800,14.03238435
2.19850,21.66224455
2.19900,24.10379981
2.19950,21.96743895
2.20000,20.13627251
2.20050,18.91549488
2.20100,16.77913402
2.20150,13.11680113
2.20200,9.454468238
2.20250,5.486940938
2.20300,0.2986360071
2.20350,-6.110446555
2.20400,-14.04550115
2.20450,-21.06497253
2.20500,-25.64288865
2.20550,-27.47405509
2.20600,-27.7792495
2.20650,-28.69483272
2.20700,-30.22080476
2.20750,-30.52599917
2.20800,-27.7792495
2.20850,-23.8117222
2.20900,-21.06497253
2.20950,-19.53900049
2.21000,-16.18186201
2.21050,-7.026029778
2.21100,3.655774492
2.21150,9.759662646
2.21200,8.233690607
2.21250,4.266163307
2.21300,3.9609689
2.21350,6.402524161
2.21400,7.012912977
2.21450,5.486940938
2.21500,4.876552123
2.21550,4.876552123
2.21600,3.045385676
2.21650,1.824608046
2.21700,4.266163307
2.21750,9.454468238
2.21800,11.8960235
2.21850,10.06485705
2.21900,7.9284962
2.21950,7.318107384
2.22000,5.792135346
2.22050,2.740191269
2.22100,2.129802453
2.22150,6.097329753
2.22200,12.81160672
2.22250,20.74666132
2.22300,29.59729915
2.22350,39.05832579
2.22400,46.68818598
2.22450,52.79207413
2.22500,57.98037906
2.22550,60.11673992
2.22600,54.31804617
2.22650,40.27910342
2.22700,22.88302218
2.22750,7.012912977
2.22800,-7.026029778
2.22850,-23.20133339
2.22900,-41.51299785
2.22950,-58.29869027
2.23000,-68.06491132
2.23050,-68.67530013
2.23100,-63.4869952
2.23150,-57.68830146
2.23200,-51.5844133
2.23250,-43.34416429
2.23300,-33.27274884
2.23350,-23.50652779
2.23400,-12.82472352
2.23450,1.519413638
2.23500,17.38952284
2.23550,25.62977185
2.23600,22.27263336
2.23650,15.25316198
2.23700,13.72718995
2.23750,18.30510606
2.23800,21.35705014
2.23850,21.05185573
2.23900,20.74666132
2.23950,21.96743895
2.24000,20.13627251
2.24050,12.20121791
2.24100,-0.006558400565
2.24150,-10.99355708
2.24200,-19.23380609
2.24250,-25.03249983
2.24300,-29.00002713
2.24350,-30.83119358
2.24400,-30.52599917
2.24450,-30.22080476
2.24500,-29.61041595
2.24550,-26.55847187
2.24600,-21.06497253
2.24650,-16.18186201
2.24700,-14.96108438
2.24750,-13.12991793
2.24800,-7.026029778
2.24850,0.2986360071
2.24900,3.350580084
2.24950,2.434996861
2.25000,4.266163307
2.25050,9.759662646
2.25100,12.81160672
2.25150,11.28563468
2.25200,13.11680113
2.25250,24.40899422
2.25300,37.53235375
2.25350,41.80507545
2.25400,36.92196493
2.25450,32.03885441
2.25500,32.64924322
2.25550,33.87002085
2.25600,29.90249355
2.25650,20.74666132
2.25700,10.06485705
2.25750,0.6038304148
2.25800,-7.026029778
2.25850,-13.43511234
2.25900,-17.70783405
2.25950,-18.62341727
2.26000,-17.40263964
2.26050,-16.48705642
2.26100,-15.8766676
2.26150,-11.9091403
2.26200,-0.616947216
2.26250,14.33757876
2.26300,25.93496625
2.26350,30.51288237
2.26400,32.34404882
2.26450,36.31157612
2.26500,42.11026986
2.26550,45.77260275
2.26600,44.85701953
2.26650,39.36352019
2.26700,31.73366
2.26750,23.7986054
2.26800,14.94796758
2.26850,2.740191269
2.26900,-13.43511234
2.26950,-28.69483272
2.27000,-35.10391529
2.27050,-34.18833206
2.27100,-35.40910969
2.27150,-42.12338666
2.27200,-48.22727482
2.27250,-46.09091396
2.27300,-39.07144259
2.27350,-33.57794325
2.27400,-28.38963832
2.27450,-20.75977812
2.27500,-12.82472352
2.27550,-9.772779447
2.27600,-7.636418593
2.27650,0.9090248225
2.27700,14.64277317
2.27750,21.05185573
2.27800,15.55835639
2.27850,6.707718569
2.27900,4.876552123
2.27950,7.012912977
2.28000,3.9609689
2.28050,-3.058502478
2.28100,-6.415640962
2.28150,-4.279280108
2.28200,-4.279280108
2.28250,-10.68836267
2.28300,-18.01302845
2.28350,-20.75977812
2.28400,-20.45458372
2.28450,-21.06497253
2.28500,-23.20133339
2.28550,-24.72730542
2.28600,-24.42211102
2.28650,-23.50652779
2.28700,-21.37016694
2.28750,-16.18186201
2.28800,-9.772779447
2.28850,-3.668891293
2.28900,1.519413638
2.28950,7.318107384
2.29000,12.20121791
2.29050,14.03238435
2.29100,14.03238435
2.29150,16.16874521
2.29200,22.88302218
2.29250,30.20768796
2.29300,32.95443763
2.29350,28.07132711
2.29400,20.44146692
2.29450,18.30510606
2.29500,24.71418862
2.29550,32.03885441
2.29600,31.12327118
2.29650,21.96743895
2.29700,13.11680113
2.29750,7.012912977
2.29800,-1.227336031
2.29850,-12.82472352
2.29900,-18.62341727
2.29950,-14.35069556
2.30000,-7.636418593
2.30050,-5.194863331
2.30100,-3.974085701
2.30150,1.519413638
2.30200,7.623301792
2.30250,7.012912977
2.30300,-0.006558400565
2.30350,-5.805252147
2.30400,-10.38316826
2.30450,-14.65588997
2.30500,-14.96108438
2.30550,-7.636418593
2.30600,-0.3117528083
2.30650,-3.058502478
2.30700,-13.74030675
2.30750,-19.53900049
2.30800,-14.65588997
2.30850,-6.415640962
2.30900,-3.974085701
2.30950,-6.110446555
2.31000,-9.162390632
2.31050,-12.21433471
2.31100,-16.79225082
2.31150,-21.06497253
2.31200,-21.67536135
2.31250,-17.40263964
2.31300,-9.772779447
2.31350,-1.227336031
2.31400,6.707718569
2.31450,15.55835639
2.31500,25.62977185
2.31550,36.92196493
2.31600,47.29857479
2.31650,53.70765735
2.31700,53.70765735
2.31750,49.12974124
2.31800,43.33104749
2.31850,37.83754815
2.31900,29.90249355
2.31950,15.8635508
2.32000,-0.006558400565
2.32050,-11.60394589
2.32100,-17.40263964
2.32150,-21.98055576
2.32200,-25.94808306
2.32250,-25.94808306
2.32300,-24.72730542
2.32350,-28.38963832
2.32400,-36.32469292
2.32450,-38.46105377
2.32500,-31.44158239
2.32550,-25.03249983
2.32600,-22.89613898
2.32650,-14.35069556
2.32700,8.538885015
2.32750,35.09079849
2.32800,48.51935242
2.32850,50.04532446
2.32900,51.87649091
2.32950,57.06479584
2.33000,56.75960143
2.33050,46.68818598
2.33100,30.81807678
2.33150,12.50641232
2.33200,-5.500057739
2.33250,-20.75977812
2.33300,-32.05197121
2.33350,-44.25974752
2.33400,-58.60388468
2.33450,-67.4545225
2.33500,-64.70777283
2.33550,-57.68830146
2.33600,-56.46752383
2.33650,-58.60388468
2.33700,-53.11038534
2.33750,-40.59741462
2.33800,-30.22080476
2.33850,-24.11691661
2.33900,-14.65588997
2.33950,-0.006558400565
2.34000,11.28563468
2.34050,12.81160672
2.34100,9.14927383
2.34150,6.707718569
2.34200,4.571357715
2.34250,0.2986360071
2.34300,-4.279280108
2.34350,-7.331224185
2.34400,-8.857196224
2.34450,-10.07797385
2.34500,-11.60394589
2.34550,-12.21433471
2.34600,-12.21433471
2.34650,-10.07797385
2.34700,-4.889668924
2.34750,2.434996861
2.34800,7.9284962
2.34850,9.759662646
2.34900,11.28563468
2.34950,15.25316198
2.35000,20.74666132
2.35050,25.32457744
2.35100,26.85054948
2.35150,25.32457744
2.35200,21.05185573
2.35250,16.16874521
2.35300,13.11680113
2.35350,11.8960235
2.35400,10.37005146
2.35450,8.538885015
2.35500,9.454468238
2.35550,13.42199554
2.35600,16.47393962
2.35650,15.25316198
2.35700,12.20121791
2.35750,12.20121791
2.35800,16.16874521
2.35850,20.13627251
2.35900,20.74666132
2.35950,17.08432843
2.36000,11.28563468
2.36050,5.18174653
2.36100,-0.006558400565
2.36150,-3.668891293
2.36200,-4.279280108
2.36250,-0.9221416237
2.36300,1.824608046
2.36350,-1.532530439
2.36400,-10.38316826
2.36450,-12.51952912
2.36500,-1.227336031
2.36550,14.03238435
2.36600,20.44146692
2.36650,18.61030047
2.36700,21.96743895
2.36750,35.39599289
2.36800,48.82454683
2.36850,51.5712965
2.36900,46.38299157
2.36950,40.88949223
2.37000,36.92196493
2.37050,32.34404882
2.37100,25.32457744
2.37150,14.03238435
2.37200,-0.9221416237
2.37250,-13.74030675
2.37300,-16.79225082
2.37350,-11.9091403
2.37400,-8.552001816
2.37450,-11.9091403
2.37500,-14.35069556
2.37550,-11.60394589
2.37600,-8.857196224
2.37650,-13.12991793
2.37700,-21.37016694
2.37750,-26.25327746
2.37800,-26.55847187
2.37850,-27.16886069
2.37900,-31.44158239
2.37950,-39.98702581
2.38000,-49.14285804
2.38050,-51.27921889
2.38100,-39.98702581
2.38150,-21.06497253
2.38200,-8.857196224
2.38250,-7.941613001
2.38300,-6.415640962
2.38350,3.655774492
2.38400,14.64277317
2.38450,12.50641232
2.38500,0.2986360071
2.38550,-7.636418593
2.38600,-6.110446555
2.38650,-5.500057739
2.38700,-13.74030675
2.38750,-25.94808306
2.38800,-34.18833206
2.38850,-38.15585936
2.38900,-41.20780344
2.38950,-43.6493587
2.39000,-43.95455311
2.39050,-42.73377548
2.39100,-39.98702581
2.39150,-33.57794325
2.39200,-22.59094457
2.39250,-11.60394589
2.39300,-4.889668924
2.39350,-0.006558400565
2.39400,6.707718569
2.39450,14.64277317
2.39500,18.61030047
2.39550,17.38952284
2.39600,15.55835639
2.39650,15.55835639
2.39700,17.38952284
2.39750,19.8310781
2.39800,22.27263336
2.39850,23.7986054
2.39900,23.18821658
2.39950,23.49341099
2.40000,29.59729915
2.40050,39.6687146
2.40100,48.82454683
2.40150,53.70765735
2.40200,57.06479584
2.40250,58.89596229
2.40300,54.31804617
2.40350,42.11026986
2.40400,28.07132711
2.40450,19.22068928
2.40500,14.03238435
2.40550,6.402524161
2.40600,-5.805252147
2.40650,-19.23380609
2.40700,-30.52599917
2.40750,-40.29222022
2.40800,-49.14285804
2.40850,-54.02596856
2.40900,-52.19480212
2.40950,-45.78571956
2.41000,-38.15585936
2.41050,-28.69483272
2.41100,-16.18186201
2.41150,-2.75330807
2.41200,6.707718569
2.41250,13.11680113
2.41300,21.66224455
2.41350,34.17521526
2.41400,45.46740835
2.41450,51.26610209
2.41500,54.01285176
2.41550,56.75960143
2.41600,56.14921262
2.41650,46.99338039
2.41700,31.42846559
2.41750,16.16874521
2.41800,3.045385676
2.41850,-11.29875149
2.41900,-27.47405509
2.41950,-39.07144259
2.42000,-41.81819226
2.42050,-39.6818314
2.42100,-40.29222022
2.42150,-44.25974752
2.42200,-47.616886
2.42250,-46.39610837
2.42300,-41.81819226
2.42350,-36.93508173
2.42400,-31.44158239
2.42450,-22.89613898
2.42500,-12.21433471
2.42550,-6.415640962
2.42600,-9.162390632
2.42650,-14.35069556
2.42700,-13.74030675
2.42750,-7.636418593
2.42800,-1.532530439
2.42850,3.655774492
2.42900,12.81160672
2.42950,23.49341099
2.43000,26.54535507
2.43050,20.44146692
2.43100,14.03238435
2.43150,14.64277317
2.43200,17.38952284
2.43250,15.8635508
2.43300,10.98044028
2.43350,9.14927383
2.43400,9.454468238
2.43450,8.844079423
2.43500,7.9284962
2.43550,9.454468238
2.43600,12.81160672
2.43650,14.33757876
2.43700,13.72718995
2.43750,13.11680113
2.43800,13.42199554
2.43850,10.98044028
2.43900,6.097329753
2.43950,2.434996861
2.44000,6.097329753
2.44050,17.38952284
2.44100,28.98691033
2.44150,34.78560408
2.44200,36.00638171
2.44250,39.05832579
2.44300,42.11026986
2.44350,36.31157612
2.44400,21.35705014
2.44450,9.14927383
2.44500,7.318107384
2.44550,7.318107384
2.44600,-2.75330807
2.44650,-19.23380609
2.44700,-29.91561036
2.44750,-32.96755443
2.44800,-37.85066496
2.44850,-46.39610837
2.44900,-50.66883008
2.44950,-47.92208041
2.45000,-42.73377548
2.45050,-37.85066496
2.45100,-29.61041595
2.45150,-17.70783405
2.45200,-6.110446555
2.45250,1.824608046
2.45300,6.707718569
2.45350,4.876552123
2.45400,-3.058502478
2.45450,-8.857196224
2.45500,-3.058502478
2.45550,8.538885015
2.45600,13.11680113
2.45650,7.623301792
2.45700,1.519413638
2.45750,-0.3117528083
2.45800,-3.058502478
2.45850,-9.162390632
2.45900,-12.51952912
2.45950,-9.162390632
2.46000,-1.227336031
2.46050,8.844079423
2.46100,22.57782777
2.46150,37.22715934
2.46200,49.43493565
2.46250,59.81154551
2.46300,69.88296096
2.46350,72.93490504
2.46400,61.94790636
2.46450,43.33104749
2.46500,30.81807678
2.46550,25.01938303
2.46600,13.11680113
2.46650,-9.467585039
2.46700,-32.05197121
2.46750,-43.6493587
2.46800,-48.83766363
2.46850,-55.85713501
2.46900,-61.96102316
2.46950,-61.04543994
2.47000,-55.5519406
2.47050,-53.41557975
2.47100,-54.33116297
2.47150,-52.49999653
2.47200,-45.48052515
2.47250,-36.62988732
2.47300,-28.08444391
2.47350,-17.70783405
2.47400,-6.415640962
2.47450,2.129802453
2.47500,5.18174653
2.47550,2.740191269
2.47600,-2.75330807
2.47650,-10.38316826
2.47700,-14.96108438
2.47750,-12.82472352
2.47800,-5.194863331
2.47850,1.519413638
2.47900,3.045385676
2.47950,1.21421923
2.48000,2.129802453
2.48050,6.707718569
2.48100,12.50641232
2.48150,18.30510606
2.48200,26.24016066
2.48250,36.31157612
2.48300,45.46740835
2.48350,49.43493565
2.48400,49.43493565
2.48450,46.68818598
2.48500,40.88949223
2.48550,30.81807678
2.48600,19.8310781
2.48650,11.59082909
2.48700,3.655774492
2.48750,-9.162390632
2.48800,-27.16886069
2.48850,-41.51299785
2.48900,-42.42858107
2.48950,-29.91561036
2.49000,-14.65588997
2.49050,-6.72083537
2.49100,-7.026029778
2.49150,-6.110446555
2.49200,3.9609689
2.49250,21.35705014
2.49300,36.31157612
2.49350,41.49988105
2.49400,38.14274256
2.49450,31.12327118
2.49500,21.05185573
2.49550,8.538885015
2.49600,-1.837724847
2.49650,-6.72083537
2.49700,-8.246807409
2.49750,-13.12991793
2.49800,-22.89613898
2.49850,-28.08444391
2.49900,-21.37016694
2.49950,-6.415640962
2.50000,3.350580084
2.50050,2.740191269
2.50100,-1.532530439
2.50150,-0.616947216
2.50200,3.350580084
2.50250,0.9090248225
2.50300,-9.772779447
2.50350,-21.37016694
2.50400,-26.55847187
2.50450,-27.47405509
2.50500,-27.16886069
2.50550,-24.11691661
2.50600,-19.53900049
2.50650,-20.14938931
2.50700,-28.08444391
2.50750,-30.83119358
2.50800,-15.57147319
2.50850,9.454468238
2.50900,26.85054948
2.50950,34.17521526
2.51000,44.24663072
2.51050,56.14921262
2.51100,52.79207413
2.51150,31.73366
2.51200,11.8960235
2.51250,4.266163307
2.51300,-5.194863331
2.51350,-28.38963832
2.51400,-46.09091396
2.51450,-34.49352647
2.51500,-3.668891293
2.51550,16.16874521
2.51600,18.30510606
2.51650,22.27263336
2.51700,38.14274256
2.51750,50.35051887
2.51800,46.38299157
2.51850,35.09079849
2.51900,27.15574388
2.51950,16.16874521
2.52000,-4.889668924
2.52050,-28.69483272
2.52100,-44.25974752
2.52150,-54.02596856
2.52200,-65.92855046
2.52250,-77.22074355
2.52300,-80.27268763
2.52350,-75.99996592
2.52400,-71.1168554
2.52450,-65.01296724
2.52500,-53.41557975
2.52550,-39.37663699
2.52600,-29.30522154
2.52650,-21.06497253
2.52700,-9.467585039
2.52750,2.434996861
2.52800,7.012912977
2.52850,5.792135346
2.52900,6.707718569
2.52950,9.454468238
2.53000,9.759662646
2.53050,12.20121791
2.53100,25.93496625
2.53150,46.68818598
2.53200,56.75960143
2.53250,50.35051887
2.53300,40.88949223
2.53350,39.97390901
2.53400,42.11026986
2.53450,37.53235375
2.53500,28.37652152
2.53550,21.35705014
2.53600,13.72718995
2.53650,0.2986360071
2.53700,-12.51952912
2.53750,-14.65588997
2.53800,-7.026029778
2.53850,-0.616947216
2.53900,1.519413638
2.53950,6.707718569
2.54000,17.99991165
2.54050,31.12327118
2.54100,40.27910342
2.54150,45.16221394
2.54200,46.68818598
2.54250,43.33104749
2.54300,36.31157612
2.54350,28.37652152
2.54400,19.8310781
2.54450,8.844079423
2.54500,-4.584474516
2.54550,-14.96108438
2.54600,-20.14938931
2.54650,-25.64288865
2.54700,-35.7143041
2.54750,-44.25974752
2.54800,-42.12338666
2.54850,-31.13638799
2.54900,-23.8117222
2.54950,-25.64288865
2.55000,-24.42211102
2.55050,-9.162390632
2.55100,12.50641232
2.55150,24.71418862
2.55200,25.01938303
2.55250,26.85054948
2.55300,37.83754815
2.55350,46.68818598
2.55400,41.80507545
2.55450,28.07132711
2.55500,16.77913402
2.55550,7.623301792
2.55600,-5.500057739
2.55650,-21.98055576
2.55700,-32.05197121
2.55750,-33.57794325
2.55800,-34.18833206
2.55850,-38.46105377
2.55900,-44.25974752
2.55950,-47.616886
2.56000,-45.78571956
2.56050,-37.24027614
2.56100,-21.98055576
2.56150,-6.110446555
2.56200,3.9609689
2.56250,11.28563468
2.56300,22.27263336
2.56350,37.22715934
2.56400,46.99338039
2.56450,46.68818598
2.56500,41.49988105
2.56550,36.31157612
2.56600,26.85054948
2.56650,7.318107384
2.56700,-19.8441949
2.56750,-45.48052515
2.56800,-61.04543994
2.56850,-64.40257843
2.56900,-58.90907909
2.56950,-48.83766363
2.57000,-36.62988732
2.57050,-19.8441949
2.57100,2.434996861
2.57150,23.7986054
2.57200,35.7011873
2.57250,36.00638171
2.57300,31.73366
2.57350,30.20768796
2.57400,32.34404882
2.57450,36.61677052
2.57500,40.27910342
2.57550,38.14274256
2.57600,25.93496625
2.57650,7.012912977
2.57700,-6.72083537
2.57750,-10.38316826
2.57800,-8.552001816
2.57850,-10.07797385
2.57900,-16.48705642
2.57950,-23.20133339
2.58000,-28.69483272
2.58050,-33.57794325
2.58100,-35.7143041
2.58150,-34.79872088
2.58200,-32.96755443
2.58250,-32.05197121
2.58300,-29.91561036
2.58350,-24.72730542
2.58400,-17.09744523
2.58450,-9.467585039
2.58500,-1.227336031
2.58550,7.623301792
2.58600,15.8635508
2.58650,20.44146692
2.58700,21.05185573
2.58750,17.99991165
2.58800,12.81160672
2.58850,8.538885015
2.58900,10.37005146
2.58950,17.69471725
2.59000,24.71418862
2.59050,25.62977185
2.59100,25.01938303
2.59150,28.68171592
2.59200,34.17521526
2.59250,32.95443763
2.59300,24.71418862
2.59350,17.99991165
2.59400,16.77913402
2.59450,14.64277317
2.59500,6.097329753
2.59550,-5.805252147
2.59600,-13.43511234
2.59650,-14.65588997
2.59700,-12.51952912
2.59750,-8.246807409
2.59800,-0.9221416237
2.59850,10.37005146
2.59900,25.32457744
2.59950,43.94143631
2.60000,61.94790636
2.60050,73.24009945
2.60100,75.68165471
2.60150,76.59723793
2.60200,79.3439876
2.60250,75.3764603
2.60300,53.40246295
2.60350,17.99991165
2.60400,-14.04550115
2.60450,-36.01949851
2.60500,-55.5519406
2.60550,-79.05191
2.60600,-99.49993531
2.60650,-108.9609619
2.60700,-108.6557675
2.60750,-105.9090179
2.60800,-101.9414906
2.60850,-93.39604716
2.60900,-79.66229881
2.60950,-62.57141198
2.61000,-44.87013633
2.61050,-30.22080476
2.61100,-23.50652779
2.61150,-21.98055576
2.61200,-17.40263964
2.61250,-5.805252147
2.61300,5.486940938
2.61350,9.14927383
2.61400,6.097329753
2.61450,4.266163307
2.61500,9.454468238
2.61550,24.71418862
2.61600,49.12974124
2.61650,74.76607149
2.61700,88.80501424
2.61750,84.83748694
2.61800,72.93490504
2.61850,65.91543366
2.61900,63.77907281
2.61950,59.5063511
2.62000,50.35051887
2.62050,41.80507545
2.62100,35.7011873
2.62150,27.15574388
2.62200,12.50641232
2.62250,-2.75330807
2.62300,-13.74030675
2.62350,-20.75977812
2.62400,-25.94808306
2.62450,-29.61041595
2.62500,-31.7467768
2.62550,-34.18833206
2.62600,-38.46105377
2.62650,-40.90260903
2.62700,-38.46105377
2.62750,-35.7143041
2.62800,-38.46105377
2.62850,-44.87013633
2.62900,-45.48052515
2.62950,-36.93508173
2.63000,-25.94808306
2.63050,-20.75977812
2.63100,-19.53900049
2.63150,-15.8766676
2.63200,-9.162390632
2.63250,-2.75330807
2.63300,3.350580084
2.63350,10.06485705
2.63400,13.42199554
2.63450,10.67524587
2.63500,6.402524161
2.63550,7.012912977
2.63600,11.59082909
2.63650,12.81160672
2.63700,7.9284962
2.63750,2.129802453
2.63800,-0.006558400565
2.63850,2.434996861
2.63900,6.707718569
2.63950,8.844079423
2.64000,6.707718569
2.64050,5.486940938
2.64100,11.59082909
2.64150,21.96743895
2.64200,25.32457744
2.64250,18.30510606
2.64300,12.20121791
2.64350,16.16874521
2.64400,21.35705014
2.64450,17.08432843
2.64500,9.14927383
2.64550,10.37005146
2.64600,19.8310781
2.64650,25.62977185
2.64700,22.57782777
2.64750,15.25316198
2.64800,6.402524161
2.64850,-1.837724847
2.64900,-3.974085701
2.64950,2.740191269
2.65000,7.623301792
2.65050,-0.616947216
2.65100,-16.48705642
2.65150,-25.64288865
2.65200,-26.86366628
2.65250,-29.30522154
2.65300,-36.62988732
2.65350,-43.03896989
2.65400,-47.616886
2.65450,-54.94155179
2.65500,-62.87660639
2.65550,-64.09738402
2.65600,-57.68830146
2.65650,-48.53246923
2.65700,-38.76624818
2.65750,-27.7792495
2.65800,-16.18186201
2.65850,-3.974085701
2.65900,9.454468238
2.65950,22.27263336
2.66000,25.01938303
2.66050,16.77913402
2.66100,10.37005146
2.66150,12.81160672
2.66200,13.72718995
2.66250,1.21421923
2.66300,-16.79225082
2.66350,-25.64288865
2.66400,-24.72730542
2.66450,-24.72730542
2.66500,-27.47405509
2.66550,-25.64288865
2.66600,-17.40263964
2.66650,-7.636418593
2.66700,2.129802453
2.66750,14.94796758
2.66800,28.07132711
2.66850,40.27910342
2.66900,56.75960143
2.66950,77.81801556
2.67000,89.11020865
2.67050,77.51282116
2.67100,54.01285176
2.67150,40.88949223
2.67200,42.72065868
2.67250,45.46740835
2.67300,39.97390901
2.67350,31.73366
2.67400,24.40899422
2.67450,14.94796758
2.67500,2.129802453
2.67550,-7.331224185
2.67600,-11.9091403
2.67650,-18.31822286
2.67700,-30.52599917
2.67750,-41.81819226
2.67800,-44.87013633
2.67850,-42.12338666
2.67900,-39.6818314
2.67950,-39.6818314
2.68000,-39.6818314
2.68050,-39.37663699
2.68100,-37.54547055
2.68150,-28.69483272
2.68200,-12.82472352
2.68250,0.9090248225
2.68300,4.876552123
2.68350,4.266163307
2.68400,11.28563468
2.68450,27.46093829
2.68500,41.19468664
2.68550,44.24663072
2.68600,42.11026986
2.68650,43.6362419
2.68700,49.74013005
2.68750,54.92843499
2.68800,56.45440702
2.68850,55.23362939
2.68900,51.26610209
2.68950,42.11026986
2.69000,26.85054948
2.69050,6.097329753
2.69100,-18.92861168
2.69150,-44.25974752
2.69200,-61.96102316
2.69250,-68.98049454
2.69300,-70.50646658
2.69350,-72.03243862
2.69400,-68.06491132
2.69450,-51.27921889
2.69500,-22.89613898
2.69550,5.18174653
2.69600,23.49341099
2.69650,30.81807678
2.69700,30.81807678
2.69750,27.7661327
2.69800,25.62977185
2.69850,25.32457744
2.69900,23.49341099
2.69950,17.69471725
2.70000,9.454468238
2.70050,4.571357715
2.70100,7.9284962
2.70150,20.13627251
2.70200,35.39599289
2.70250,45.16221394
2.70300,44.55182512
2.70350,36.61677052
2.70400,30.51288237
2.70450,26.54535507
2.70500,17.99991165
2.70550,-0.006558400565
2.70600,-21.67536135
2.70650,-39.98702581
2.70700,-51.27921889
2.70750,-57.07791264
2.70800,-60.43505113
2.70850,-63.79218961
2.70900,-67.4545225
2.70950,-67.14932809
2.71000,-59.21427349
2.71050,-46.09091396
2.71100,-34.18833206
2.71150,-23.8117222
2.71200,-11.9091403
2.71250,-0.616947216
2.71300,3.045385676
2.71350,1.519413638
2.71400,2.434996861
2.71450,7.623301792
2.71500,11.28563468
2.71550,12.20121791
2.71600,18.91549488
2.71650,33.87002085
2.71700,49.74013005
2.71750,59.5063511
2.71800,65.91543366
2.71850,71.71412741
2.71900,71.10373859
2.71950,59.20115669
2.72000,42.11026986
2.72050,25.32457744
2.72100,5.486940938
2.72150,-20.14938931
2.72200,-44.56494192
2.72250,-58.90907909
2.72300,-67.14932809
2.72350,-77.52593796
2.72400,-86.07138137
2.72450,-78.13632677
2.72500,-51.5844133
2.72550,-25.33769424
2.72600,-13.12991793
2.72650,-8.857196224
2.72700,0.6038304148
2.72750,16.16874521
2.72800,25.32457744
2.72850,26.24016066
2.72900,28.37652152
2.72950,36.92196493
2.73000,44.24663072
2.73050,43.33104749
2.73100,39.36352019
2.73150,39.36352019
2.73200,38.44793697
2.73250,27.46093829
2.73300,10.98044028
2.73350,1.21421923
2.73400,0.6038304148
2.73450,-2.448113662
2.73500,-14.96108438
2.73550,-27.7792495
2.73600,-32.66236002
2.73650,-31.7467768
2.73700,-31.13638799
2.73750,-28.08444391
2.73800,-17.70783405
2.73850,-3.974085701
2.73900,5.486940938
2.73950,13.11680113
2.74000,22.27263336
2.74050,29.29210474
2.74100,26.85054948
2.74150,15.25316198
2.74200,2.129802453
2.74250,-7.636418593
2.74300,-14.96108438
2.74350,-19.8441949
2.74400,-21.06497253
2.74450,-19.23380609
2.74500,-16.18186201
2.74550,-13.12991793
2.74600,-10.07797385
2.74650,-9.162390632
2.74700,-8.552001816
2.74750,-4.584474516
2.74800,3.655774492
2.74850,9.14927383
2.74900,6.707718569
2.74950,1.21421923
2.75000,1.519413638
2.75050,7.623301792
2.75100,11.59082909
2.75150,9.454468238
2.75200,5.792135346
2.75250,6.402524161
2.75300,11.28563468
2.75350,16.77913402
2.75400,20.74666132
2.75450,21.96743895
2.75500,20.13627251
2.75550,14.33757876
2.75600,3.9609689
2.75650,-5.500057739
2.75700,-6.415640962
2.75750,4.571357715
2.75800,19.22068928
2.75850,24.10379981
2.75900,18.61030047
2.75950,17.08432843
2.76000,28.37652152
2.76050,43.6362419
2.76100,46.38299157
2.76150,32.95443763
2.76200,13.11680113
2.76250,-3.363696885
2.76300,-17.09744523
2.76350,-30.52599917
2.76400,-45.48052515
2.76450,-59.82466231
2.76500,-71.1168554
2.76550,-75.0843827
2.76600,-70.50646658
2.76650,-60.12985672
2.76700,-47.92208041
2.76750,-35.40910969
2.76800,-21.67536135
2.76850,-7.026029778
2.76900,5.18174653
2.76950,12.81160672
2.77000,14.64277317
2.77050,10.98044028
2.77100,7.9284962
2.77150,10.06485705
2.77200,15.8635508
2.77250,16.47393962
2.77300,8.844079423
2.77350,0.2986360071
2.77400,-1.227336031
2.77450,2.434996861
2.77500,3.045385676
2.77550,-2.448113662
2.77600,-11.29875149
2.77650,-18.01302845
2.77700,-20.45458372
2.77750,-18.62341727
2.77800,-14.65588997
2.77850,-12.21433471
2.77900,-11.9091403
2.77950,-11.29875149
2.78000,-9.772779447
2.78050,-8.857196224
2.78100,-4.584474516
2.78150,9.759662646
2.78200,32.64924322
2.78250,47.90896361
2.78300,47.6037692
2.78350,41.49988105
2.78400,41.80507545
2.78450,44.24663072
2.78500,37.83754815
2.78550,25.32457744
2.78600,20.13627251
2.78650,20.44146692
2.78700,14.03238435
2.78750,-0.616947216
2.78800,-13.12991793
2.78850,-18.31822286
2.78900,-24.11691661
2.78950,-33.57794325
2.79000,-39.37663699
2.79050,-37.54547055
2.79100,-34.49352647
2.79150,-33.57794325
2.79200,-29.00002713
2.79250,-18.62341727
2.79300,-10.07797385
2.79350,-7.941613001
2.79400,-3.363696885
2.79450,9.454468238
2.79500,24.10379981
2.79550,30.20768796
2.79600,28.98691033
2.79650,28.37652152
2.79700,28.07132711
2.79750,24.40899422
2.79800,17.08432843
2.79850,10.67524587
2.79900,5.792135346
2.79950,0.2986360071
2.80000,-4.889668924
2.80050,-8.552001816
2.80100,-10.68836267
2.80150,-13.12991793
2.80200,-13.74030675
2.80250,-11.60394589
2.80300,-7.026029778
2.80350,-1.227336031
2.80400,6.097329753
2.80450,15.25316198
2.80500,21.96743895
2.80550,24.71418862
2.80600,25.62977185
2.80650,28.98691033
2.80700,32.95443763
2.80750,32.03885441
2.80800,22.27263336
2.80850,5.18174653
2.80900,-11.60394589
2.80950,-19.53900049
2.81000,-15.26627879
2.81050,-4.279280108
2.81100,3.350580084
2.81150,6.402524161
2.81200,11.59082909
2.81250,25.32457744
2.81300,43.02585309
2.81350,52.79207413
2.81400,46.38299157
2.81450,28.68171592
2.81500,11.8960235
2.81550,2.434996861
2.81600,-5.194863331
2.81650,-17.70783405
2.81700,-32.66236002
2.81750,-43.6493587
2.81800,-49.14285804
2.81850,-53.41557975
2.81900,-56.77271823
2.81950,-56.16232942
2.82000,-51.88960771
2.82050,-46.70130278
2.82100,-40.29222022
2.82150,-29.61041595
2.82200,-18.01302845
2.82250,-12.21433471
2.82300,-10.07797385
2.82350,-4.889668924
2.82400,3.9609689
2.82450,10.37005146
2.82500,12.81160672
2.82550,17.69471725
2.82600,25.32457744
2.82650,27.15574388
2.82700,22.88302218
2.82750,25.01938303
2.82800,38.75313138
2.82850,50.96090769
2.82900,50.04532446
2.82950,42.11026986
2.83000,36.92196493
2.83050,32.03885441
2.83100,20.44146692
2.83150,5.486940938
2.83200,-3.668891293
2.83250,-10.99355708
2.83300,-22.89613898
2.83350,-34.18833206
2.83400,-35.10391529
2.83450,-31.7467768
2.83500,-36.93508173
2.83550,-46.09091396
2.83600,-40.90260903
2.83650,-16.79225082
2.83700,7.012912977
2.83750,17.69471725
2.83800,24.71418862
2.83850,42.41546427
2.83900,65.30504485
2.83950,75.3764603
2.84000,67.74660011
2.84050,53.09726854
2.84100,39.36352019
2.84150,24.10379981
2.84200,1.824608046
2.84250,-27.16886069
2.84300,-56.46752383
2.84350,-79.05191
2.84400,-91.87007512
2.84450,-96.14279683
2.84500,-93.39604716
2.84550,-81.49346526
2.84600,-58.90907909
2.84650,-30.52599917
2.84700,-4.889668924
2.84750,14.03238435
2.84800,28.68171592
2.84850,39.6687146
2.84900,44.85701953
2.84950,42.11026986
2.85000,35.39599289
2.85050,29.90249355
2.85100,24.71418862
2.85150,16.16874521
2.85200,4.876552123
2.85250,-4.584474516
2.85300,-10.68836267
2.85350,-14.96108438
2.85400,-19.23380609
2.85450,-21.67536135
2.85500,-23.50652779
2.85550,-28.08444391
2.85600,-36.01949851
2.85650,-40.90260903
2.85700,-39.6818314
2.85750,-38.76624818
2.85800,-44.56494192
2.85850,-50.66883008
2.85900,-44.25974752
2.85950,-24.72730542
2.86000,-4.279280108
2.86050,10.67524587
2.86100,26.24016066
2.86150,45.46740835
2.86200,61.03232314
2.86250,66.52582248
2.86300,67.13621129
2.86350,70.18815537
2.86400,72.01932182
2.86450,65.30504485
2.86500,52.48687972
2.86550,41.19468664
2.86600,31.73366
2.86650,15.55835639
2.86700,-8.552001816
2.86750,-31.7467768
2.86800,-46.39610837
2.86850,-53.11038534
2.86900,-58.29869027
2.86950,-62.87660639
2.87000,-62.57141198
2.87050,-56.16232942
2.87100,-47.31169159
2.87150,-38.46105377
2.87200,-27.7792495
2.87250,-14.04550115
2.87300,-1.532530439
2.87350,4.266163307
2.87400,6.402524161
2.87450,11.28563468
2.87500,19.8310781
2.87550,24.10379981
2.87600,21.35705014
2.87650,17.38952284
2.87700,19.8310781
2.87750,25.62977185
2.87800,28.68171592
2.87850,29.59729915
2.87900,33.87002085
2.87950,41.49988105
2.88000,44.55182512
2.88050,36.61677052
2.88100,21.05185573
2.88150,6.707718569
2.88200,-0.9221416237
2.88250,-5.805252147
2.88300,-14.04550115
2.88350,-29.30522154
2.88400,-46.70130278
2.88450,-58.29869027
2.88500,-61.65582876
2.88550,-60.43505113
2.88600,-57.07791264
