type,name,time_units,begin_time,frequency,count,units
signal,"Noraxon MyoMotion-Segments-Upper arm RT-Pitch","s",0.0000,200,5184,"deg"

time,value
0.0000,5.285749657
0.0050,5.286545048
0.0100,5.287340497
0.0150,5.288136006
0.0200,5.289066288
0.0250,5.290141838
0.0300,5.291373388
0.0350,5.292772179
0.0400,5.294350853
0.0450,5.296123746
0.0500,5.298105821
0.0550,5.300310825
0.0600,5.302749312
0.0650,5.305426773
0.0700,5.308341997
0.0750,5.311485606
0.0800,5.31483886
0.0850,5.31837327
0.0900,5.322051387
0.0950,5.325828724
0.1000,5.329655839
0.1050,5.333479513
0.1100,5.337243898
0.1150,5.340892195
0.1200,5.344367645
0.1250,5.347613933
0.1300,5.350576213
0.1350,5.353202833
0.1400,5.355447558
0.1450,5.357272438
0.1500,5.358650693
0.1550,5.367427479
0.1600,5.376205015
0.1650,5.384905382
0.1700,5.393585466
0.1750,5.402363425
0.1800,5.411307012
0.1850,5.420300262
0.1900,5.42934145
0.1950,5.438644287
0.2000,5.448306232
0.2050,5.458227431
0.2100,5.468549889
0.2150,5.479194057
0.2200,5.490420899
0.2250,5.502271547
0.2300,5.514662648
0.2350,5.527604276
0.2400,5.54131397
0.2450,5.555558838
0.2500,5.570656551
0.2550,5.586633464
0.2600,5.603209097
0.2650,5.620779164
0.2700,5.639314948
0.2750,5.658642176
0.2800,5.678886206
0.2850,5.6998632
0.2900,5.721648964
0.2950,5.744063048
0.3000,5.767289328
0.3050,5.79116738
0.3100,5.815718562
0.3150,5.840667724
0.3200,5.866091424
0.3250,5.891971564
0.3300,5.9182484
0.3350,5.944810737
0.3400,5.971729646
0.3450,5.998797647
0.3500,6.025894013
0.3550,6.053028168
0.3600,6.080112873
0.3650,6.1071485
0.3700,6.134091844
0.3750,6.160914951
0.3800,6.187736454
0.3850,6.214221031
0.3900,6.24041318
0.3950,6.26610922
0.4000,6.291506046
0.4050,6.316359917
0.4100,6.340680799
0.4150,6.36434896
0.4200,6.387453302
0.4250,6.409834461
0.4300,6.431566513
0.4350,6.452816983
0.4400,6.473542178
0.4450,6.49349037
0.4500,6.512736608
0.4550,6.531364633
0.4600,6.549364543
0.4650,6.566886226
0.4700,6.583868592
0.4750,6.600564459
0.4800,6.616765844
0.4850,6.632598755
0.4900,6.648099209
0.4950,6.663208628
0.5000,6.678011871
0.5050,6.692460813
0.5100,6.706603751
0.5150,6.720399792
0.5200,6.73372493
0.5250,6.746611295
0.5300,6.759185024
0.5350,6.771510711
0.5400,6.783338015
0.5450,6.794819605
0.5500,6.806043129
0.5550,6.816953112
0.5600,6.827690213
0.5650,6.838201464
0.5700,6.848415174
0.5750,6.858445353
0.5800,6.868412677
0.5850,6.878303236
0.5900,6.888173483
0.5950,6.898061912
0.6000,6.907929394
0.6050,6.917836171
0.6100,6.927697215
0.6150,6.937455335
0.6200,6.947227912
0.6250,6.956836274
0.6300,6.966190984
0.6350,6.975333535
0.6400,6.984076026
0.6450,6.992529111
0.6500,7.000727635
0.6550,7.008469599
0.6600,7.015843
0.6650,7.022990415
0.6700,7.029932289
0.6750,7.036606884
0.6800,7.04309843
0.6850,7.049373535
0.6900,7.055508465
0.6950,7.061567635
0.7000,7.067429323
0.7050,7.073229775
0.7100,7.07894041
0.7150,7.08466956
0.7200,7.09031276
0.7250,7.09588613
0.7300,7.101311741
0.7350,7.106702158
0.7400,7.111866183
0.7450,7.117123091
0.7500,7.122315852
0.7550,7.12740996
0.7600,7.132411522
0.7650,7.13723183
0.7700,7.141824712
0.7750,7.146076822
0.7800,7.15006752
0.7850,7.153946093
0.7900,7.157718507
0.7950,7.161376831
0.8000,7.164828632
0.8050,7.16824082
0.8100,7.171614244
0.8150,7.175049678
0.8200,7.178459491
0.8250,7.181912114
0.8300,7.185390623
0.8350,7.188903628
0.8400,7.19246892
0.8450,7.196191377
0.8500,7.199904508
0.8550,7.203763166
0.8600,7.207629039
0.8650,7.211375149
0.8700,7.215191829
0.8750,7.218987212
0.8800,7.222654123
0.8850,7.226153142
0.8900,7.22954462
0.8950,7.232736349
0.9000,7.235799574
0.9050,7.238745099
0.9100,7.241692277
0.9150,7.244689026
0.9200,7.247497126
0.9250,7.250292857
0.9300,7.253001488
0.9350,7.255599465
0.9400,7.258073874
0.9450,7.260424347
0.9500,7.262630078
0.9550,7.264806984
0.9600,7.267022543
0.9650,7.269128385
0.9700,7.271034416
0.9750,7.272843809
0.9800,7.27431654
0.9850,7.275777132
0.9900,7.276986053
0.9950,7.278019195
1.0000,7.278946936
1.0050,7.279833088
1.0100,7.280628579
1.0150,7.281265536
1.0200,7.281632873
1.0250,7.281999456
1.0300,7.282169273
1.0350,7.28196312
1.0400,7.281465649
1.0450,7.280443733
1.0500,7.278899483
1.0550,7.276781014
1.0600,7.274070236
1.0650,7.270858413
1.0700,7.267211577
1.0750,7.263054347
1.0800,7.258426538
1.0850,7.253404127
1.0900,7.247853948
1.0950,7.241922611
1.1000,7.235585615
1.1050,7.228857436
1.1100,7.221748894
1.1150,7.214145807
1.1200,7.20606902
1.1250,7.197488094
1.1300,7.188342228
1.1350,7.178503343
1.1400,7.168119476
1.1450,7.157050841
1.1500,7.14531032
1.1550,7.132811012
1.1600,7.119753949
1.1650,7.105987806
1.1700,7.091679241
1.1750,7.076622471
1.1800,7.060825493
1.1850,7.044431494
1.1900,7.027234924
1.1950,7.009282433
1.2000,6.990426884
1.2050,6.970789032
1.2100,6.950335585
1.2150,6.92920691
1.2200,6.907642701
1.2250,6.885413177
1.2300,6.862958918
1.2350,6.839970548
1.2400,6.816714919
1.2450,6.793270432
1.2500,6.769666596
1.2550,6.745807125
1.2600,6.721727968
1.2650,6.697514984
1.2700,6.673301691
1.2750,6.649214893
1.2800,6.625425914
1.2850,6.60180277
1.2900,6.578555512
1.2950,6.555839843
1.3000,6.533773605
1.3050,6.512288886
1.3100,6.49141149
1.3150,6.471280505
1.3200,6.451918687
1.3250,6.433311465
1.3300,6.415685263
1.3350,6.399033165
1.3400,6.383474639
1.3450,6.369209701
1.3500,6.356158698
1.3550,6.34443964
1.3600,6.334012711
1.3650,6.324848905
1.3700,6.316917518
1.3750,6.310344136
1.3800,6.305040425
1.3850,6.300718902
1.3900,6.297711633
1.3950,6.295689758
1.4000,6.294722164
1.4050,6.294671823
1.4100,6.295628283
1.4150,6.297567524
1.4200,6.300378669
1.4250,6.304078054
1.4300,6.308665674
1.4350,6.3141828
1.4400,6.320607791
1.4450,6.327896046
1.4500,6.335979999
1.4550,6.344581015
1.4600,6.353772724
1.4650,6.36342833
1.4700,6.373316135
1.4750,6.383662019
1.4800,6.394415608
1.4850,6.405599667
1.4900,6.417194518
1.4950,6.42924558
1.5000,6.441755832
1.5050,6.454693247
1.5100,6.468010708
1.5150,6.481651415
1.5200,6.495483097
1.5250,6.509452199
1.5300,6.523461522
1.5350,6.537669374
1.5400,6.551967641
1.5450,6.566193752
1.5500,6.580344865
1.5550,6.59451335
1.5600,6.608434345
1.5650,6.622142082
1.5700,6.63548443
1.5750,6.648400276
1.5800,6.660843305
1.5850,6.672985917
1.5900,6.684582154
1.5950,6.695502881
1.6000,6.705756956
1.6050,6.715334544
1.6100,6.724161276
1.6150,6.732380183
1.6200,6.740070913
1.6250,6.747227799
1.6300,6.753859828
1.6350,6.760123093
1.6400,6.765903994
1.6450,6.771281871
1.6500,6.776351269
1.6550,6.780995516
1.6600,6.785437303
1.6650,6.789535813
1.6700,6.793241452
1.6750,6.796449165
1.6800,6.799308117
1.6850,6.801781734
1.6900,6.803660194
1.6950,6.805125337
1.7000,6.80617045
1.7050,6.80668631
1.7100,6.806604247
1.7150,6.805904781
1.7200,6.804817845
1.7250,6.803234674
1.7300,6.801368838
1.7350,6.799116869
1.7400,6.796637618
1.7450,6.793728773
1.7500,6.790530119
1.7550,6.787226507
1.7600,6.783548923
1.7650,6.779885027
1.7700,6.77626447
1.7750,6.772664622
1.7800,6.768991152
1.7850,6.765377401
1.7900,6.761909553
1.7950,6.758630821
1.8000,6.755684432
1.8050,6.752966842
1.8100,6.750473693
1.8150,6.74816195
1.8200,6.745877653
1.8250,6.743918284
1.8300,6.742015141
1.8350,6.740193912
1.8400,6.738366255
1.8450,6.736548264
1.8500,6.734746316
1.8550,6.732850435
1.8600,6.73097387
1.8650,6.729105673
1.8700,6.727221847
1.8750,6.725166237
1.8800,6.72289957
1.8850,6.720237239
1.8900,6.717324153
1.8950,6.714257214
1.9000,6.710963114
1.9050,6.707487128
1.9100,6.703974858
1.9150,6.700248407
1.9200,6.696436553
1.9250,6.692530635
1.9300,6.688596902
1.9350,6.684570491
1.9400,6.680612913
1.9450,6.676682321
1.9500,6.672653848
1.9550,6.668750885
1.9600,6.664740107
1.9650,6.660722855
1.9700,6.656888372
1.9750,6.653201744
1.9800,6.649458525
1.9850,6.645907768
1.9900,6.642525282
1.9950,6.639266912
2.0000,6.635925532
2.0050,6.632723908
2.0100,6.629402158
2.0150,6.626215564
2.0200,6.6229433
2.0250,6.619518844
2.0300,6.615847872
2.0350,6.611925912
2.0400,6.607660088
2.0450,6.603202024
2.0500,6.598337333
2.0550,6.593239319
2.0600,6.588037565
2.0650,6.582624419
2.0700,6.576965123
2.0750,6.571241237
2.0800,6.565570729
2.0850,6.559782196
2.0900,6.553801203
2.0950,6.547527017
2.1000,6.540873764
2.1050,6.533627373
2.1100,6.525881041
2.1150,6.517698953
2.1200,6.509140023
2.1250,6.500011385
2.1300,6.490328859
2.1350,6.480096685
2.1400,6.469502684
2.1450,6.458338725
2.1500,6.446517939
2.1550,6.434373233
2.1600,6.421655569
2.1650,6.40845748
2.1700,6.39474134
2.1750,6.380530622
2.1800,6.366028409
2.1850,6.351054886
2.1900,6.335895667
2.1950,6.32041544
2.2000,6.304706911
2.2050,6.288977788
2.2100,6.273048358
2.2150,6.257120906
2.2200,6.241277763
2.2250,6.225601784
2.2300,6.210217126
2.2350,6.195155249
2.2400,6.180368513
2.2450,6.165936451
2.2500,6.152057135
2.2550,6.138628515
2.2600,6.125924016
2.2650,6.11405845
2.2700,6.102865667
2.2750,6.092456799
2.2800,6.083033278
2.2850,6.074398337
2.2900,6.066617467
2.2950,6.059642953
2.3000,6.053551009
2.3050,6.048155746
2.3100,6.043575113
2.3150,6.039511806
2.3200,6.035985223
2.3250,6.032907063
2.3300,6.030111451
2.3350,6.027605811
2.3400,6.025213655
2.3450,6.022903998
2.3500,6.020811281
2.3550,6.01891785
2.3600,6.017167911
2.3650,6.015662688
2.3700,6.014483436
2.3750,6.013268009
2.3800,6.01204146
2.3850,6.010895856
2.3900,6.009704536
2.3950,6.008668835
2.4000,6.007622913
2.4050,6.006951331
2.4100,6.006536889
2.4150,6.006534573
2.4200,6.006746065
2.4250,6.007294702
2.4300,6.008092535
2.4350,6.009093291
2.4400,6.009893676
2.4450,6.010730915
2.4500,6.011483543
2.4550,6.012010014
2.4600,6.01244901
2.4650,6.012735094
2.4700,6.012989713
2.4750,6.01343667
2.4800,6.013986805
2.4850,6.014951947
2.4900,6.016353532
2.4950,6.01813342
2.5000,6.020488849
2.5050,6.023120409
2.5100,6.026318263
2.5150,6.03002589
2.5200,6.034086997
2.5250,6.038566925
2.5300,6.042995116
2.5350,6.047518848
2.5400,6.052133004
2.5450,6.05692557
2.5500,6.061834323
2.5550,6.067046755
2.5600,6.072288253
2.5650,6.07764978
2.5700,6.083252396
2.5750,6.089093411
2.5800,6.095003752
2.5850,6.10112457
2.5900,6.10755245
2.5950,6.114287433
2.6000,6.121540144
2.6050,6.129248455
2.6100,6.13763096
2.6150,6.146673067
2.6200,6.156395715
2.6250,6.1668248
2.6300,6.178064924
2.6350,6.189978649
2.6400,6.20278402
2.6450,6.21636594
2.6500,6.230637039
2.6550,6.24545427
2.6600,6.260710911
2.6650,6.276336384
2.6700,6.292157166
2.6750,6.308460233
2.6800,6.32501406
2.6850,6.341789327
2.6900,6.358918278
2.6950,6.376300476
2.7000,6.394161412
2.7050,6.412393486
2.7100,6.430979404
2.7150,6.449823625
2.7200,6.468989916
2.7250,6.488578664
2.7300,6.508452033
2.7350,6.528823409
2.7400,6.549768975
2.7450,6.571087582
2.7500,6.592889338
2.7550,6.615124604
2.7600,6.637676699
2.7650,6.660523299
2.7700,6.683714701
2.7750,6.707039906
2.7800,6.730383307
2.7850,6.753634794
2.7900,6.77661584
2.7950,6.799337407
2.8000,6.821643783
2.8050,6.843729902
2.8100,6.865330912
2.8150,6.886561951
2.8200,6.907468103
2.8250,6.927752743
2.8300,6.947886975
2.8350,6.967785945
2.8400,6.987466171
2.8450,7.006782424
2.8500,7.025830048
2.8550,7.044373803
2.8600,7.06263596
2.8650,7.080493396
2.8700,7.097891818
2.8750,7.115062877
2.8800,7.132043202
2.8850,7.148926056
2.8900,7.165858883
2.8950,7.182672355
2.9000,7.199145783
2.9050,7.215407554
2.9100,7.231245781
2.9150,7.246681554
2.9200,7.261762348
2.9250,7.276453524
2.9300,7.290599458
2.9350,7.304422844
2.9400,7.31768014
2.9450,7.330459056
2.9500,7.342913564
2.9550,7.354856029
2.9600,7.366439418
2.9650,7.377570062
2.9700,7.38852337
2.9750,7.399132002
2.9800,7.409464946
2.9850,7.419496736
2.9900,7.429276334
2.9950,7.438807033
3.0000,7.447886714
3.0050,7.456445923
3.0100,7.464615881
3.0150,7.472198554
3.0200,7.479558269
3.0250,7.486417536
3.0300,7.492787619
3.0350,7.498605339
3.0400,7.503821437
3.0450,7.508717979
3.0500,7.513227309
3.0550,7.517261196
3.0600,7.520974733
3.0650,7.524365081
3.0700,7.527414851
3.0750,7.530145678
3.0800,7.532759643
3.0850,7.53517632
3.0900,7.537498189
3.0950,7.539759838
3.1000,7.541906249
3.1050,7.5438988
3.1100,7.545908975
3.1150,7.547707928
3.1200,7.549186587
3.1250,7.550456015
3.1300,7.551320684
3.1350,7.551666168
3.1400,7.551397759
3.1450,7.550320697
3.1500,7.548560544
3.1550,7.546031863
3.1600,7.542742838
3.1650,7.538832813
3.1700,7.534461228
3.1750,7.529346958
3.1800,7.523808566
3.1850,7.517703955
3.1900,7.511023984
3.1950,7.504046046
3.2000,7.497023524
3.2050,7.490021425
3.2100,7.48305821
3.2150,7.476347341
3.2200,7.469747973
3.2250,7.463272372
3.2300,7.457135551
3.2350,7.451129818
3.2400,7.445271157
3.2450,7.439506852
3.2500,7.433660203
3.2550,7.42795789
3.2600,7.422344384
3.2650,7.416836377
3.2700,7.411209926
3.2750,7.405484933
3.2800,7.399756463
3.2850,7.394013565
3.2900,7.388316134
3.2950,7.382563681
3.3000,7.377003081
3.3050,7.371674993
3.3100,7.366661319
3.3150,7.362111435
3.3200,7.357883537
3.3250,7.354164597
3.3300,7.351224968
3.3350,7.348834994
3.3400,7.34704652
3.3450,7.345771094
3.3500,7.345061275
3.3550,7.344927168
3.3600,7.345277818
3.3650,7.346006784
3.3700,7.347185799
3.3750,7.34869513
3.3800,7.350528899
3.3850,7.352764915
3.3900,7.355260516
3.3950,7.358171308
3.4000,7.361361579
3.4050,7.364911943
3.4100,7.368650816
3.4150,7.372727459
3.4200,7.37709721
3.4250,7.381627759
3.4300,7.386444866
3.4350,7.391417674
3.4400,7.396629206
3.4450,7.402169663
3.4500,7.40790814
3.4550,7.413913212
3.4600,7.420203166
3.4650,7.426662451
3.4700,7.433124984
3.4750,7.439785225
3.4800,7.446464966
3.4850,7.453219317
3.4900,7.460066465
3.4950,7.466949866
3.5000,7.473880061
3.5050,7.480724349
3.5100,7.487504234
3.5150,7.494170008
3.5200,7.500746896
3.5250,7.507260032
3.5300,7.513445891
3.5350,7.519407674
3.5400,7.525222431
3.5450,7.530925463
3.5500,7.536460323
3.5550,7.541893135
3.5600,7.547115719
3.5650,7.552101808
3.5700,7.55682438
3.5750,7.561325707
3.5800,7.565652948
3.5850,7.569738739
3.5900,7.573608298
3.5950,7.577242889
3.6000,7.580610308
3.6050,7.583888642
3.6100,7.587042917
3.6150,7.589990638
3.6200,7.592743034
3.6250,7.595404299
3.6300,7.59774385
3.6350,7.600164598
3.6400,7.60268939
3.6450,7.605252757
3.6500,7.607950617
3.6550,7.610689801
3.6600,7.613435531
3.6650,7.616280432
3.6700,7.61913219
3.6750,7.622117234
3.6800,7.625268872
3.6850,7.62856331
3.6900,7.632149178
3.6950,7.635900069
3.7000,7.639944767
3.7050,7.64414865
3.7100,7.648622285
3.7150,7.653397312
3.7200,7.658348682
3.7250,7.663613941
3.7300,7.668879048
3.7350,7.674349813
3.7400,7.680018045
3.7450,7.685684825
3.7500,7.69135036
3.7550,7.697238772
3.7600,7.703253594
3.7650,7.709370801
3.7700,7.715630011
3.7750,7.721738613
3.7800,7.727841097
3.7850,7.733943003
3.7900,7.73996188
3.7950,7.745780324
3.8000,7.751432181
3.8050,7.756781329
3.8100,7.761984332
3.8150,7.766789856
3.8200,7.771181123
3.8250,7.775333457
3.8300,7.779308242
3.8350,7.783020495
3.8400,7.78643148
3.8450,7.789706309
3.8500,7.792846287
3.8550,7.795740652
3.8600,7.79856211
3.8650,7.801211071
3.8700,7.803824488
3.8750,7.806416419
3.8800,7.809044588
3.8850,7.811666561
3.8900,7.814190164
3.8950,7.816767924
3.9000,7.819423996
3.9050,7.822081298
3.9100,7.824628621
3.9150,7.827264632
3.9200,7.830060254
3.9250,7.832818458
3.9300,7.835874844
3.9350,7.838969267
3.9400,7.841981951
3.9450,7.8449542
3.9500,7.847738788
3.9550,7.850269738
3.9600,7.852923649
3.9650,7.85547901
3.9700,7.857866573
3.9750,7.860084754
3.9800,7.86200695
3.9850,7.863839393
3.9900,7.865399129
3.9950,7.866723624
4.0000,7.867761564
4.0050,7.86872195
4.0100,7.869472782
4.0150,7.869902189
4.0200,7.870273648
4.0250,7.870386481
4.0300,7.870389136
4.0350,7.870215498
4.0400,7.86973147
4.0450,7.869086418
4.0500,7.868357637
4.0550,7.867361758
4.0600,7.866212403
4.0650,7.865001557
4.0700,7.863666294
4.0750,7.862417814
4.0800,7.861179441
4.0850,7.859929505
4.0900,7.85859895
4.0950,7.857364823
4.1000,7.85585695
4.1050,7.854364136
4.1100,7.852795088
4.1150,7.851240821
4.1200,7.849796525
4.1250,7.848265727
4.1300,7.846768725
4.1350,7.845521588
4.1400,7.844319593
4.1450,7.843093113
4.1500,7.84209587
4.1550,7.84118178
4.1600,7.840192307
4.1650,7.839315549
4.1700,7.838319405
4.1750,7.837192035
4.1800,7.835982756
4.1850,7.834596044
4.1900,7.833216886
4.1950,7.831800791
4.2000,7.830538173
4.2050,7.829384216
4.2100,7.828455028
4.2150,7.827767609
4.2200,7.827229785
4.2250,7.826998029
4.2300,7.826963843
4.2350,7.827069673
4.2400,7.827544708
4.2450,7.828218186
4.2500,7.829318775
4.2550,7.83103054
4.2600,7.833095594
4.2650,7.83573236
4.2700,7.839191289
4.2750,7.843463261
4.2800,7.848653237
4.2850,7.854691522
4.2900,7.861622383
4.2950,7.86939157
4.3000,7.87798753
4.3050,7.887191225
4.3100,7.897244274
4.3150,7.907885287
4.3200,7.919033963
4.3250,7.93078948
4.3300,7.943384776
4.3350,7.95667756
4.3400,7.970897432
4.3450,7.985947262
4.3500,8.001649118
4.3550,8.018188147
4.3600,8.035408557
4.3650,8.053278009
4.3700,8.071665756
4.3750,8.090541944
4.3800,8.109733467
4.3850,8.129129181
4.3900,8.148739463
4.3950,8.1683711
4.4000,8.188158567
4.4050,8.20800336
4.4100,8.227790711
4.4150,8.247461467
4.4200,8.266994455
4.4250,8.286300475
4.4300,8.305298418
4.4350,8.323822973
4.4400,8.341957813
4.4450,8.359522122
4.4500,8.376427266
4.4550,8.392852841
4.4600,8.408803863
4.4650,8.424350244
4.4700,8.43965629
4.4750,8.454777667
4.4800,8.469665193
4.4850,8.484410753
4.4900,8.498815626
4.4950,8.512892585
4.5000,8.526524625
4.5050,8.539684019
4.5100,8.552318696
4.5150,8.564435929
4.5200,8.576052813
4.5250,8.587179817
4.5300,8.597799338
4.5350,8.60798282
4.5400,8.617682341
4.5450,8.626968379
4.5500,8.635718014
4.5550,8.643942717
4.5600,8.651727565
4.5650,8.658902697
4.5700,8.665536822
4.5750,8.671730876
4.5800,8.677442243
4.5850,8.682767771
4.5900,8.687832971
4.5950,8.692678565
4.6000,8.697374799
4.6050,8.70220557
4.6100,8.707001265
4.6150,8.711950514
4.6200,8.717007865
4.6250,8.722123094
4.6300,8.727230412
4.6350,8.732188228
4.6400,8.736852788
4.6450,8.741362191
4.6500,8.745719805
4.6550,8.749699377
4.6600,8.753402724
4.6650,8.756769635
4.6700,8.759831574
4.6750,8.762665502
4.6800,8.765144383
4.6850,8.767592948
4.6900,8.769891467
4.6950,8.772149271
4.7000,8.774319517
4.7050,8.776449137
4.7100,8.778420327
4.7150,8.780543371
4.7200,8.782575141
4.7250,8.78474657
4.7300,8.787111307
4.7350,8.789650277
4.7400,8.792354039
4.7450,8.795537504
4.7500,8.798994064
4.7550,8.802578705
4.7600,8.806495605
4.7650,8.810389296
4.7700,8.814270417
4.7750,8.817861905
4.7800,8.820980453
4.7850,8.823659683
4.7900,8.826110286
4.7950,8.828274029
4.8000,8.830268733
4.8050,8.832084403
4.8100,8.833672706
4.8150,8.835142497
4.8200,8.836405804
4.8250,8.837418376
4.8300,8.838262965
4.8350,8.838956327
4.8400,8.83958516
4.8450,8.840134631
4.8500,8.840643084
4.8550,8.841298521
4.8600,8.842000365
4.8650,8.842948077
4.8700,8.843864037
4.8750,8.844849642
4.8800,8.845898825
4.8850,8.846889115
4.8900,8.847823186
4.8950,8.848828226
4.9000,8.849840005
4.9050,8.850856193
4.9100,8.851654003
4.9150,8.852415019
4.9200,8.853128839
4.9250,8.853838011
4.9300,8.854363405
4.9350,8.854952356
4.9400,8.855530407
4.9450,8.856255536
4.9500,8.857134426
4.9550,8.858263381
4.9600,8.859536675
4.9650,8.860887354
4.9700,8.862546376
4.9750,8.864472471
4.9800,8.866841245
4.9850,8.869248417
4.9900,8.8717907
4.9950,8.874256302
5.0000,8.876836539
5.0050,8.879374487
5.0100,8.881885412
5.0150,8.884405093
5.0200,8.887072279
5.0250,8.889717794
5.0300,8.892297617
5.0350,8.894768662
5.0400,8.89707686
5.0450,8.899109355
5.0500,8.900940505
5.0550,8.902922358
5.0600,8.904732008
5.0650,8.906252943
5.0700,8.907366459
5.0750,8.908488369
5.0800,8.90968092
5.0850,8.910903793
5.0900,8.912186254
5.0950,8.913582186
5.1000,8.914877178
5.1050,8.916132125
5.1100,8.917345945
5.1150,8.918370291
5.1200,8.919422188
5.1250,8.920399479
5.1300,8.921291403
5.1350,8.922103452
5.1400,8.922833148
5.1450,8.923479438
5.1500,8.924241895
5.1550,8.924861132
5.1600,8.925385742
5.1650,8.926001524
5.1700,8.926687018
5.1750,8.927398981
5.1800,8.92812387
5.1850,8.928913452
5.1900,8.929838443
5.1950,8.930842872
5.2000,8.931964574
5.2050,8.932969242
5.2100,8.93422991
5.2150,8.935535078
5.2200,8.937020664
5.2250,8.93861961
5.2300,8.940535421
5.2350,8.942685848
5.2400,8.94514514
5.2450,8.947708828
5.2500,8.950361611
