type,name,time_units,begin_time,frequency,count,units
signal,"Noraxon MyoMotion-Segments-Forearm RT-Roll","s",0.0000,200,5320,"deg"

time,value
0.0000,2.077779593
0.0050,2.08497278
0.0100,2.092167459
0.0150,2.09936363
0.0200,2.106954212
0.0250,2.114863522
0.0300,2.123011412
0.0350,2.131316617
0.0400,2.139698782
0.0450,2.148079708
0.0500,2.156384665
0.0550,2.164543661
0.0600,2.172492034
0.0650,2.180170504
0.0700,2.187525194
0.0750,2.194507926
0.0800,2.201076731
0.0850,2.207196196
0.0900,2.212837167
0.0950,2.217975478
0.1000,2.222590532
0.1050,2.226664763
0.1100,2.230184041
0.1150,2.233138515
0.1200,2.235523611
0.1250,2.237340778
0.1300,2.238597841
0.1350,2.239309226
0.1400,2.239496282
0.1450,2.239187415
0.1500,2.238417752
0.1550,2.242120062
0.1600,2.24528194
0.1650,2.24807385
0.1700,2.250507614
0.1750,2.252629313
0.1800,2.25444299
0.1850,2.256048607
0.1900,2.257590161
0.1950,2.258924638
0.2000,2.260191333
0.2050,2.261425448
0.2100,2.262820376
0.2150,2.264373262
0.2200,2.266013097
0.2250,2.267790019
0.2300,2.269791639
0.2350,2.271861364
0.2400,2.27427989
0.2450,2.27701764
0.2500,2.280109503
0.2550,2.283466927
0.2600,2.287270462
0.2650,2.291446996
0.2700,2.296034674
0.2750,2.301019998
0.2800,2.306518041
0.2850,2.312355233
0.2900,2.318575924
0.2950,2.325229356
0.3000,2.332221166
0.3050,2.339583979
0.3100,2.347338785
0.3150,2.355411699
0.3200,2.363614367
0.3250,2.371999173
0.3300,2.380542568
0.3350,2.389189924
0.3400,2.397845125
0.3450,2.406619767
0.3500,2.41538375
0.3550,2.424159572
0.3600,2.433101794
0.3650,2.442165812
0.3700,2.451303391
0.3750,2.460781978
0.3800,2.470407961
0.3850,2.48011236
0.3900,2.489967193
0.3950,2.500005494
0.4000,2.510137497
0.4050,2.520520606
0.4100,2.531178193
0.4150,2.541979667
0.4200,2.552945465
0.4250,2.564063986
0.4300,2.575357626
0.4350,2.586795984
0.4400,2.59825759
0.4450,2.609819667
0.4500,2.621422103
0.4550,2.632965556
0.4600,2.644695649
0.4650,2.656415678
0.4700,2.668095484
0.4750,2.679844314
0.4800,2.691592973
0.4850,2.703526598
0.4900,2.715517103
0.4950,2.727714367
0.5000,2.740115338
0.5050,2.752837916
0.5100,2.76560724
0.5150,2.778565252
0.5200,2.791689867
0.5250,2.805071041
0.5300,2.818680074
0.5350,2.832553209
0.5400,2.846511377
0.5450,2.860593814
0.5500,2.874822254
0.5550,2.889144787
0.5600,2.903457444
0.5650,2.917770621
0.5700,2.931951387
0.5750,2.946107105
0.5800,2.959958638
0.5850,2.973748148
0.5900,2.987250928
0.5950,3.000603678
0.6000,3.013554225
0.6050,3.026166476
0.6100,3.038403759
0.6150,3.050099943
0.6200,3.061369806
0.6250,3.07205724
0.6300,3.082265368
0.6350,3.091898409
0.6400,3.101005261
0.6450,3.109540445
0.6500,3.117480988
0.6550,3.124824274
0.6600,3.131483322
0.6650,3.137678638
0.6700,3.143114485
0.6750,3.147810674
0.6800,3.151929278
0.6850,3.155511085
0.6900,3.15842984
0.6950,3.160876207
0.7000,3.162950863
0.7050,3.1645845
0.7100,3.165628411
0.7150,3.166293991
0.7200,3.1666604
0.7250,3.166750855
0.7300,3.166420893
0.7350,3.166077437
0.7400,3.165562699
0.7450,3.16499109
0.7500,3.164373881
0.7550,3.163683778
0.7600,3.163004626
0.7650,3.162349644
0.7700,3.161767804
0.7750,3.161251221
0.7800,3.160978194
0.7850,3.160656705
0.7900,3.160493074
0.7950,3.16053251
0.8000,3.160622218
0.8050,3.160745855
0.8100,3.160928857
0.8150,3.161255037
0.8200,3.161567843
0.8250,3.161706969
0.8300,3.161798677
0.8350,3.161997043
0.8400,3.162275232
0.8450,3.162629886
0.8500,3.162917335
0.8550,3.163176634
0.8600,3.163351936
0.8650,3.16346509
0.8700,3.163721199
0.8750,3.163962041
0.8800,3.164415522
0.8850,3.164887432
0.8900,3.165512335
0.8950,3.166121057
0.9000,3.167000983
0.9050,3.168043276
0.9100,3.169288731
0.9150,3.170738568
0.9200,3.172303792
0.9250,3.17422688
0.9300,3.176324969
0.9350,3.178687434
0.9400,3.18139751
0.9450,3.184284841
0.9500,3.187497212
0.9550,3.190929868
0.9600,3.194592268
0.9650,3.198494005
0.9700,3.20266906
0.9750,3.207087856
0.9800,3.211656356
0.9850,3.216473679
0.9900,3.221693093
0.9950,3.227078657
1.0000,3.232522994
1.0050,3.238151342
1.0100,3.244028682
1.0150,3.24999718
1.0200,3.256088857
1.0250,3.262273066
1.0300,3.268617756
1.0350,3.274874531
1.0400,3.281114013
1.0450,3.287245026
1.0500,3.293252304
1.0550,3.299170677
1.0600,3.304805365
1.0650,3.3102906
1.0700,3.315582773
1.0750,3.320547919
1.0800,3.325175716
1.0850,3.32950145
1.0900,3.333480831
1.0950,3.337050884
1.1000,3.340233186
1.1050,3.342968587
1.1100,3.345300236
1.1150,3.347069939
1.1200,3.348500316
1.1250,3.349648423
1.1300,3.350259019
1.1350,3.350227861
1.1400,3.349728268
1.1450,3.348686554
1.1500,3.347207473
1.1550,3.345287477
1.1600,3.342997807
1.1650,3.340244232
1.1700,3.337024714
1.1750,3.33336671
1.1800,3.329372596
1.1850,3.325140387
1.1900,3.320523801
1.1950,3.315799562
1.2000,3.310885927
1.2050,3.305863202
1.2100,3.300737688
1.2150,3.295532135
1.2200,3.29046093
1.2250,3.285392459
1.2300,3.280356219
1.2350,3.275512158
1.2400,3.270629952
1.2450,3.266083957
1.2500,3.261598633
1.2550,3.2574578
1.2600,3.253631679
1.2650,3.249881588
1.2700,3.246503048
1.2750,3.243261286
1.2800,3.240300926
1.2850,3.237392012
1.2900,3.234716745
1.2950,3.232185336
1.3000,3.229873094
1.3050,3.227673742
1.3100,3.225479463
1.3150,3.223393539
1.3200,3.221387804
1.3250,3.219402761
1.3300,3.217534812
1.3350,3.215747209
1.3400,3.214071739
1.3450,3.212459243
1.3500,3.210954742
1.3550,3.209518139
1.3600,3.208221771
1.3650,3.206951531
1.3700,3.205718054
1.3750,3.204677066
1.3800,3.203672181
1.3850,3.20293052
1.3900,3.202302928
1.3950,3.201843482
1.4000,3.201450392
1.4050,3.201099185
1.4100,3.200904469
1.4150,3.200802218
1.4200,3.20068229
1.4250,3.200559299
1.4300,3.200614078
1.4350,3.200763927
1.4400,3.200893031
1.4450,3.200983567
1.4500,3.201061907
1.4550,3.20127839
1.4600,3.201492203
1.4650,3.201855248
1.4700,3.202217808
1.4750,3.202581302
1.4800,3.20278077
1.4850,3.202882333
1.4900,3.203098519
1.4950,3.203129328
1.5000,3.203197606
1.5050,3.203336525
1.5100,3.203488519
1.5150,3.203716703
1.5200,3.203848143
1.5250,3.203856821
1.5300,3.203872462
1.5350,3.203619658
1.5400,3.203458333
1.5450,3.203037521
1.5500,3.202664056
1.5550,3.20201613
1.5600,3.200917391
1.5650,3.199732365
1.5700,3.198071141
1.5750,3.196325296
1.5800,3.194024734
1.5850,3.191329245
1.5900,3.188044169
1.5950,3.184136688
1.6000,3.179555916
1.6050,3.174356895
1.6100,3.168656851
1.6150,3.162139118
1.6200,3.154896248
1.6250,3.14688429
1.6300,3.138081979
1.6350,3.128567631
1.6400,3.118435909
1.6450,3.107674772
1.6500,3.096347136
1.6550,3.084592197
1.6600,3.072463253
1.6650,3.060133495
1.6700,3.04761671
1.6750,3.035036528
1.6800,3.022495864
1.6850,3.009897538
1.6900,2.997495342
1.6950,2.98519012
1.7000,2.97314663
1.7050,2.961479465
1.7100,2.949950553
1.7150,2.938691117
1.7200,2.927763706
1.7250,2.916980993
1.7300,2.906260485
1.7350,2.89575306
1.7400,2.885486544
1.7450,2.87543171
1.7500,2.86556905
1.7550,2.855841959
1.7600,2.846374743
1.7650,2.837019965
1.7700,2.827947581
1.7750,2.819021357
1.7800,2.810315455
1.7850,2.801983341
1.7900,2.79385853
1.7950,2.785953893
1.8000,2.778135634
1.8050,2.770133285
1.8100,2.761863113
1.8150,2.753277071
1.8200,2.744360969
1.8250,2.735016549
1.8300,2.725038443
1.8350,2.714428098
1.8400,2.70272841
1.8450,2.689980388
1.8500,2.675767904
1.8550,2.660064787
1.8600,2.643049316
1.8650,2.624284927
1.8700,2.603881246
1.8750,2.581605858
1.8800,2.557775829
1.8850,2.532247134
1.8900,2.504802527
1.8950,2.475657633
1.9000,2.444782836
1.9050,2.412180492
1.9100,2.377623121
1.9150,2.341480781
1.9200,2.303576461
1.9250,2.264205443
1.9300,2.223386772
1.9350,2.181248044
1.9400,2.137484534
1.9450,2.092414476
1.9500,2.046151612
1.9550,1.998603385
1.9600,1.949736845
1.9650,1.899818881
1.9700,1.848652015
1.9750,1.796361914
1.9800,1.743111683
1.9850,1.68884304
1.9900,1.633474933
1.9950,1.577213035
2.0000,1.520041519
2.0050,1.461858043
2.0100,1.402911609
2.0150,1.343012263
2.0200,1.282237074
2.0250,1.220618626
2.0300,1.158101733
2.0350,1.094516271
2.0400,1.029764316
2.0450,0.9636983361
2.0500,0.8963908766
2.0550,0.8275960477
2.0600,0.7572623253
2.0650,0.6854130717
2.0700,0.6119619698
2.0750,0.5369194168
2.0800,0.4601825872
2.0850,0.3815527865
2.0900,0.3008849113
2.0950,0.2182645862
2.1000,0.1334466135
2.1050,0.04647063755
2.1100,-0.04249496749
2.1150,-0.1336336357
2.1200,-0.2271409065
2.1250,-0.3229208177
2.1300,-0.4210840815
2.1350,-0.5216624577
2.1400,-0.6244766208
2.1450,-0.7296194448
2.1500,-0.8371449414
2.1550,-0.9469339986
2.1600,-1.059062376
2.1650,-1.173419835
2.1700,-1.289998423
2.1750,-1.408801969
2.1800,-1.529922422
2.1850,-1.653185352
2.1900,-1.778592166
2.1950,-1.906139666
2.2000,-2.035824951
2.2050,-2.167670782
2.2100,-2.301206942
2.2150,-2.436715757
2.2200,-2.574086962
2.2250,-2.713534888
2.2300,-2.854904022
2.2350,-2.99840526
2.2400,-3.14369312
2.2450,-3.290940805
2.2500,-3.440180511
2.2550,-3.591300039
2.2600,-3.744137513
2.2650,-3.898772968
2.2700,-4.054885949
2.2750,-4.212483841
2.2800,-4.371523206
2.2850,-4.531669948
2.2900,-4.69272624
2.2950,-4.854643694
2.3000,-5.017325303
2.3050,-5.180458118
2.3100,-5.344191769
2.3150,-5.50830814
2.3200,-5.672681778
2.3250,-5.837264362
2.3300,-6.002020695
2.3350,-6.166765412
2.3400,-6.33152838
2.3450,-6.496196162
2.3500,-6.660896425
2.3550,-6.825847858
2.3600,-6.99084076
2.3650,-7.156255299
2.3700,-7.322151686
2.3750,-7.488465569
2.3800,-7.655463512
2.3850,-7.823311788
2.3900,-7.991947454
2.3950,-8.161594015
2.4000,-8.332358871
2.4050,-8.504262449
2.4100,-8.677548344
2.4150,-8.852487352
2.4200,-9.028907176
2.4250,-9.207092019
2.4300,-9.387061235
2.4350,-9.569111221
2.4400,-9.753484103
2.4450,-9.940241663
2.4500,-10.12943254
2.4550,-10.32125755
2.4600,-10.51605761
2.4650,-10.71372539
2.4700,-10.91447497
2.4750,-11.11837757
2.4800,-11.3254188
2.4850,-11.53580846
2.4900,-11.74955559
2.4950,-11.96678382
2.5000,-12.18743606
2.5050,-12.41161749
2.5100,-12.63951236
2.5150,-12.8710189
2.5200,-13.10637416
2.5250,-13.34547921
2.5300,-13.58856549
2.5350,-13.83546398
2.5400,-14.08615532
2.5450,-14.34050303
2.5500,-14.59851066
2.5550,-14.86028254
2.5600,-15.12570369
2.5650,-15.39477973
2.5700,-15.66738116
2.5750,-15.94364198
2.5800,-16.22341444
2.5850,-16.50668618
2.5900,-16.79326711
2.5950,-17.08318327
2.6000,-17.37630757
2.6050,-17.67242786
2.6100,-17.97140369
2.6150,-18.27309353
2.6200,-18.57744062
2.6250,-18.88427739
2.6300,-19.19330326
2.6350,-19.50469089
2.6400,-19.81825131
2.6450,-20.13377949
2.6500,-20.45131027
2.6550,-20.7704578
2.6600,-21.09133069
2.6650,-21.41361336
2.6700,-21.73720676
2.6750,-22.06224212
2.6800,-22.38831441
2.6850,-22.71529329
2.6900,-23.04297878
2.6950,-23.37137463
2.7000,-23.69996373
2.7050,-24.02879704
2.7100,-24.35789043
2.7150,-24.68690529
2.7200,-25.01587073
2.7250,-25.34459208
2.7300,-25.67311916
2.7350,-26.00115383
2.7400,-26.32857695
2.7450,-26.65547649
2.7500,-26.98162981
2.7550,-27.30695918
2.7600,-27.63132493
2.7650,-27.95480761
2.7700,-28.27732771
2.7750,-28.5988174
2.7800,-28.91929047
2.7850,-29.23863645
2.7900,-29.55667541
2.7950,-29.87355746
2.8000,-30.18924059
2.8050,-30.50385741
2.8100,-30.81743101
2.8150,-31.12995795
2.8200,-31.44123502
2.8250,-31.75142333
2.8300,-32.06025271
2.8350,-32.36775376
2.8400,-32.67410174
2.8450,-32.9793652
2.8500,-33.28342425
2.8550,-33.58627662
2.8600,-33.88810963
2.8650,-34.18897873
2.8700,-34.48893374
2.8750,-34.78780216
2.8800,-35.08575486
2.8850,-35.38289907
2.8900,-35.67933106
2.8950,-35.97497949
2.9000,-36.2698678
2.9050,-36.56429972
2.9100,-36.85815185
2.9150,-37.15153601
2.9200,-37.44462726
2.9250,-37.73724114
2.9300,-38.02960377
2.9350,-38.32166612
2.9400,-38.61339971
2.9450,-38.90499221
2.9500,-39.19639822
2.9550,-39.48776123
2.9600,-39.77907413
2.9650,-40.07047883
2.9700,-40.36192534
2.9750,-40.65329039
2.9800,-40.94467142
2.9850,-41.23612584
2.9900,-41.52783271
2.9950,-41.81947757
3.0000,-42.11135466
3.0050,-42.40352115
3.0100,-42.69586359
3.0150,-42.98834276
3.0200,-43.28109326
3.0250,-43.57403562
3.0300,-43.86712751
3.0350,-44.16048315
3.0400,-44.45392983
3.0450,-44.74755743
3.0500,-45.04125295
3.0550,-45.3351617
3.0600,-45.62922114
3.0650,-45.9235376
3.0700,-46.21804161
3.0750,-46.5128917
3.0800,-46.80811074
3.0850,-47.10375286
3.0900,-47.399978
3.0950,-47.69651508
3.1000,-47.99346303
3.1050,-48.29055004
3.1100,-48.58781727
3.1150,-48.88521128
3.1200,-49.18261862
3.1250,-49.48008521
3.1300,-49.7774166
3.1350,-50.07486662
3.1400,-50.3722574
3.1450,-50.66951789
3.1500,-50.9668936
3.1550,-51.26411258
3.1600,-51.56130287
3.1650,-51.85837942
3.1700,-52.1555239
3.1750,-52.45281249
3.1800,-52.75014597
3.1850,-53.0477213
3.1900,-53.34564905
3.1950,-53.64408771
3.2000,-53.94297734
3.2050,-54.24232239
3.2100,-54.54225916
3.2150,-54.84273857
3.2200,-55.14395144
3.2250,-55.44587946
3.2300,-55.74881443
3.2350,-56.05255939
3.2400,-56.35721841
3.2450,-56.66282365
3.2500,-56.96951674
3.2550,-57.2770485
3.2600,-57.58547983
3.2650,-57.89483004
3.2700,-58.20515196
3.2750,-58.51616719
3.2800,-58.82803309
3.2850,-59.14085866
3.2900,-59.45427693
3.2950,-59.7686555
3.3000,-60.08392485
3.3050,-60.40004384
3.3100,-60.71716038
3.3150,-61.03518202
3.3200,-61.35409325
3.3250,-61.6739639
3.3300,-61.99485177
3.3350,-62.31682932
3.3400,-62.63979712
3.3450,-62.96361005
3.3500,-63.28837093
3.3550,-63.61385435
3.3600,-63.94022701
3.3650,-64.26728723
3.3700,-64.59518306
3.3750,-64.92362456
3.3800,-65.25260419
3.3850,-65.58196589
3.3900,-65.91175084
3.3950,-66.24192787
3.4000,-66.57233186
3.4050,-66.90301356
3.4100,-67.23388947
3.4150,-67.56488263
3.4200,-67.89570358
3.4250,-68.2262667
3.4300,-68.55673189
3.4350,-68.88699596
3.4400,-69.21702242
3.4450,-69.54681772
3.4500,-69.87628333
3.4550,-70.20552728
3.4600,-70.53437088
3.4650,-70.86306563
3.4700,-71.19140203
3.4750,-71.51940263
3.4800,-71.84742281
3.4850,-72.17520563
3.4900,-72.50286279
3.4950,-72.83066326
3.5000,-73.15873204
3.5050,-73.487076
3.5100,-73.81586384
3.5150,-74.14512894
3.5200,-74.47498369
3.5250,-74.80575513
3.5300,-75.13734892
3.5350,-75.47001346
3.5400,-75.80394399
3.5450,-76.13910523
3.5500,-76.47539678
3.5550,-76.81322864
3.5600,-77.15254994
3.5650,-77.49323235
3.5700,-77.83543792
3.5750,-78.17944974
3.5800,-78.52513672
3.5850,-78.87230151
3.5900,-79.22130503
3.5950,-79.57199127
3.6000,-79.92436006
3.6050,-80.27856545
3.6100,-80.63438878
3.6150,-80.9919469
3.6200,-81.35118441
3.6250,-81.71212125
3.6300,-82.07474208
3.6350,-82.43888543
3.6400,-82.80439758
3.6450,-83.17134112
3.6500,-83.53955392
3.6550,-83.90906402
3.6600,-84.2794324
3.6650,-84.6505966
3.6700,-85.02213106
3.6750,-85.39381952
3.6800,-85.76551482
3.6850,-86.13707128
3.6900,-86.5084074
3.6950,-86.87926638
3.7000,-87.24956041
3.7050,-87.61922901
3.7100,-87.98805907
3.7150,-88.35566243
3.7200,-88.72209993
3.7250,-89.08710088
3.7300,-89.45063012
3.7350,-89.81238368
3.7400,-90.17225459
3.7450,-90.53033232
3.7500,-90.88640501
3.7550,-91.24059697
3.7600,-91.59304973
3.7650,-91.94379196
3.7700,-92.29288023
3.7750,-92.64048833
3.7800,-92.98657732
3.7850,-93.33130656
3.7900,-93.67460391
3.7950,-94.01626049
3.8000,-94.35629336
3.8050,-94.69485413
3.8100,-95.03201412
3.8150,-95.3680105
3.8200,-95.7028183
3.8250,-96.03690805
3.8300,-96.37052284
3.8350,-96.70411439
3.8400,-97.0377368
3.8450,-97.37183957
3.8500,-97.70645467
3.8550,-98.04182645
3.8600,-98.37815457
3.8650,-98.71555748
3.8700,-99.05422902
3.8750,-99.39427796
3.8800,-99.73605214
3.8850,-100.0796794
3.8900,-100.4253823
3.8950,-100.7731286
3.9000,-101.1229211
3.9050,-101.4745224
3.9100,-101.8282315
3.9150,-102.1838883
3.9200,-102.5413266
3.9250,-102.9002891
3.9300,-103.2606457
3.9350,-103.6221462
3.9400,-103.9848078
3.9450,-104.3481849
3.9500,-104.7121594
3.9550,-105.0764179
3.9600,-105.4408527
3.9650,-105.8053734
3.9700,-106.170037
3.9750,-106.5346911
3.9800,-106.8991839
3.9850,-107.2629565
3.9900,-107.625624
3.9950,-107.9867504
4.0000,-108.3458311
4.0050,-108.7023778
4.0100,-109.0559367
4.0150,-109.4062813
4.0200,-109.7532178
4.0250,-110.0963928
4.0300,-110.4356176
4.0350,-110.7707587
4.0400,-111.1016575
4.0450,-111.4278609
4.0500,-111.7492716
4.0550,-112.0655355
4.0600,-112.3764999
4.0650,-112.6820582
4.0700,-112.9822908
4.0750,-113.2773208
4.0800,-113.5671871
4.0850,-113.852152
4.0900,-114.1325975
4.0950,-114.408769
4.1000,-114.6812505
4.1050,-114.9500844
4.1100,-115.2155448
4.1150,-115.4780804
4.1200,-115.7378794
4.1250,-115.9950244
4.1300,-116.2496306
4.1350,-116.5017368
4.1400,-116.751496
4.1450,-116.9989998
4.1500,-117.2445403
4.1550,-117.4880789
4.1600,-117.7298835
4.1650,-117.9700327
4.1700,-118.2084213
4.1750,-118.4453806
4.1800,-118.6809805
4.1850,-118.9155095
4.1900,-119.1488275
4.1950,-119.381121
4.2000,-119.6126141
4.2050,-119.8434012
4.2100,-120.0735864
4.2150,-120.3033663
4.2200,-120.5329236
4.2250,-120.7623079
4.2300,-120.9914251
4.2350,-121.2203149
4.2400,-121.4487206
4.2450,-121.6766368
4.2500,-121.9036616
4.2550,-122.1298739
4.2600,-122.3549547
4.2650,-122.5788678
4.2700,-122.8014102
4.2750,-123.0225467
4.2800,-123.2420256
4.2850,-123.4600789
4.2900,-123.6768017
4.2950,-123.892279
4.3000,-124.1064903
4.3050,-124.3192471
4.3100,-124.5306679
4.3150,-124.7406253
4.3200,-124.9488846
4.3250,-125.1553085
4.3300,-125.3597785
4.3350,-125.5622284
4.3400,-125.7626947
4.3450,-125.9611073
4.3500,-126.1575371
4.3550,-126.3520902
4.3600,-126.5448574
4.3650,-126.7357016
4.3700,-126.9245681
4.3750,-127.1114386
4.3800,-127.2961788
4.3850,-127.4788136
4.3900,-127.6590966
4.3950,-127.8368508
4.4000,-128.0119463
4.4050,-128.1846087
4.4100,-128.3550083
4.4150,-128.5231431
4.4200,-128.6891854
4.4250,-128.8531704
4.4300,-129.0152565
4.4350,-129.1754663
4.4400,-129.3339736
4.4450,-129.490752
4.4500,-129.645566
4.4550,-129.7983349
4.4600,-129.9490721
4.4650,-130.0978213
4.4700,-130.2446547
4.4750,-130.3892417
4.4800,-130.5315548
4.4850,-130.6712954
4.4900,-130.8087097
4.4950,-130.943853
4.5000,-131.0765922
4.5050,-131.2072565
4.5100,-131.3356752
4.5150,-131.4618575
4.5200,-131.5857148
4.5250,-131.7072979
4.5300,-131.8268005
4.5350,-131.9441851
4.5400,-132.059354
4.5450,-132.1725583
4.5500,-132.2837904
4.5550,-132.3931572
4.5600,-132.5009564
4.5650,-132.6071635
4.5700,-132.7118906
4.5750,-132.8152446
4.5800,-132.917334
4.5850,-133.0182201
4.5900,-133.1178055
4.5950,-133.2162294
4.6000,-133.3135978
4.6050,-133.4101629
4.6100,-133.5058496
4.6150,-133.6007349
4.6200,-133.6949906
4.6250,-133.7888585
4.6300,-133.8822976
4.6350,-133.9753111
4.6400,-134.0677334
4.6450,-134.1594478
4.6500,-134.2503734
4.6550,-134.3403605
4.6600,-134.429005
4.6650,-134.5162783
4.6700,-134.6022221
4.6750,-134.6867307
4.6800,-134.7699757
4.6850,-134.8517255
4.6900,-134.9323841
4.6950,-135.0123377
4.7000,-135.0915021
4.7050,-135.1701364
4.7100,-135.2482897
4.7150,-135.3259702
4.7200,-135.4032721
4.7250,-135.4800658
4.7300,-135.5564829
4.7350,-135.6326364
4.7400,-135.7083813
4.7450,-135.7835154
4.7500,-135.8581858
4.7550,-135.9325266
4.7600,-136.0063593
4.7650,-136.0795721
4.7700,-136.1520366
4.7750,-136.2237671
4.7800,-136.2946707
4.7850,-136.3647566
4.7900,-136.4340126
4.7950,-136.5025636
4.8000,-136.5704239
4.8050,-136.6375643
4.8100,-136.704305
4.8150,-136.7708977
4.8200,-136.8378677
4.8250,-136.9053783
4.8300,-136.9738144
4.8350,-137.0433513
4.8400,-137.1144816
4.8450,-137.1872858
4.8500,-137.2621012
4.8550,-137.338661
4.8600,-137.4168295
4.8650,-137.4963461
4.8700,-137.5769146
4.8750,-137.6580384
4.8800,-137.7392123
4.8850,-137.8200425
4.8900,-137.8997241
4.8950,-137.9775668
4.9000,-138.0529306
4.9050,-138.1249632
4.9100,-138.1929416
4.9150,-138.2560629
4.9200,-138.3136174
4.9250,-138.3645379
4.9300,-138.4084297
4.9350,-138.4446084
4.9400,-138.4726215
4.9450,-138.4923545
4.9500,-138.5032868
4.9550,-138.5053523
4.9600,-138.4987055
4.9650,-138.4831137
4.9700,-138.4584507
4.9750,-138.4246203
4.9800,-138.3815907
4.9850,-138.3296123
4.9900,-138.2686672
4.9950,-138.1986705
5.0000,-138.119874
5.0050,-138.032559
5.0100,-137.9369284
5.0150,-137.8332203
5.0200,-137.7218998
5.0250,-137.6035866
5.0300,-137.4785308
5.0350,-137.3471326
5.0400,-137.209877
5.0450,-137.0672316
5.0500,-136.9196885
5.0550,-136.7673815
5.0600,-136.6107494
5.0650,-136.4502562
5.0700,-136.2864466
5.0750,-136.1196973
5.0800,-135.950348
