type,name,time_units,begin_time,frequency,count,units
signal_3d,"Noraxon MyoMotion-Trajectories-Ulnar styloid process RT","s",0.0000,200,5320,"mm"

time,x,y,z
0.0000,-44.63583499,226.5676217,976.2561715
0.0050,-44.58655092,226.5783849,976.2566406
0.0100,-44.53726914,226.5891584,976.2571186
0.0150,-44.48798967,226.5999421,976.2576056
0.0200,-44.43799074,226.6085599,976.2582099
0.0250,-44.38819035,226.6144449,976.2589398
0.0300,-44.33954967,226.6170668,976.2598017
0.0350,-44.29303908,226.6159466,976.260799
0.0400,-44.2496122,226.6106663,976.2619325
0.0450,-44.2101877,226.6008784,976.2631995
0.0500,-44.17563322,226.5863205,976.2645947
0.0550,-44.14674757,226.5668295,976.2661104
0.0600,-44.12424325,226.5423525,976.2677373
0.0650,-44.10873368,226.5129555,976.2694653
0.0700,-44.10072866,226.4788213,976.2712842
0.0750,-44.10063358,226.4402378,976.273185
0.0800,-44.10874346,226.3975768,976.275159
0.0850,-44.12522841,226.351273,976.277197
0.0900,-44.15011552,226.3018095,976.2792871
0.0950,-44.18327723,226.2497134,976.2814138
0.1000,-44.22443016,226.1955537,976.2835575
0.1050,-44.27313926,226.1399341,976.2856949
0.1100,-44.32882562,226.0834807,976.2878009
0.1150,-44.39078228,226.0268291,976.2898491
0.1200,-44.45819719,225.9706092,976.2918137
0.1250,-44.53017682,225.9154277,976.2936706
0.1300,-44.60576793,225.8618537,976.2953982
0.1350,-44.68397854,225.810414,976.2969781
0.1400,-44.76380172,225.7615947,976.2983966
0.1450,-44.84424442,225.7158352,976.2996443
0.1500,-44.92435684,225.6735151,976.3007166
0.1550,-45.04970481,225.5820433,976.3027794
0.1600,-45.17526352,225.4923175,976.3046896
0.1650,-45.30039057,225.4024186,976.3065037
0.1700,-45.42489877,225.3139098,976.3082111
0.1750,-45.54921548,225.2272256,976.3098661
0.1800,-45.67125268,225.1428879,976.311359
0.1850,-45.79235497,225.0608133,976.3128304
0.1900,-45.91021583,224.9807974,976.314291
0.1950,-46.02585117,224.9012949,976.3155799
0.2000,-46.13912063,224.8230723,976.3168163
0.2050,-46.25008831,224.746147,976.3180347
0.2100,-46.358991,224.6689116,976.3192811
0.2150,-46.46418868,224.5915928,976.3204424
0.2200,-46.56704304,224.5151515,976.3216087
0.2250,-46.66673093,224.4395143,976.3227493
0.2300,-46.76344796,224.3639143,976.3239287
0.2350,-46.85811027,224.2884683,976.3250933
0.2400,-46.94951745,224.2109503,976.326231
0.2450,-47.03730649,224.1326588,976.3273011
0.2500,-47.12164374,224.0537265,976.3282945
0.2550,-47.20304215,223.9745176,976.3292288
0.2600,-47.28095324,223.8938343,976.3301149
0.2650,-47.35416664,223.8126987,976.3309602
0.2700,-47.42484886,223.7290561,976.3318075
0.2750,-47.49182039,223.6456453,976.3326394
0.2800,-47.55603759,223.5604017,976.3335482
0.2850,-47.6184906,223.4716476,976.3345303
0.2900,-47.67880687,223.3812927,976.3356303
0.2950,-47.73779447,223.2883973,976.3368749
0.3000,-47.79562709,223.193872,976.3382459
0.3050,-47.85213603,223.0962835,976.3397537
0.3100,-47.90792288,222.9968154,976.3416031
0.3150,-47.96378056,222.8955008,976.3436844
0.3200,-48.01960706,222.7923838,976.3458769
0.3250,-48.07540652,222.6864372,976.3481753
0.3300,-48.13083355,222.57786,976.3505932
0.3350,-48.18750352,222.466288,976.3532092
0.3400,-48.24499371,222.3521969,976.3559838
0.3450,-48.30307577,222.2348547,976.3588553
0.3500,-48.36187139,222.115179,976.3618866
0.3550,-48.42128777,221.9912673,976.3649034
0.3600,-48.48057436,221.8640704,976.3680739
0.3650,-48.53936538,221.7348542,976.3713307
0.3700,-48.59763116,221.6029453,976.374721
0.3750,-48.65433266,221.4671361,976.3782884
0.3800,-48.70926712,221.3289692,976.3818597
0.3850,-48.76370841,221.1895939,976.3854648
0.3900,-48.81707467,221.0472815,976.3890663
0.3950,-48.86949533,220.9038571,976.3927481
0.4000,-48.92056371,220.7590925,976.3964447
0.4050,-48.97103234,220.6134189,976.40032
0.4100,-49.01998447,220.4663642,976.404271
0.4150,-49.06820358,220.3196776,976.4084146
0.4200,-49.11464614,220.1718328,976.4125728
0.4250,-49.15961659,220.0234894,976.416771
0.4300,-49.20320683,219.874678,976.4211596
0.4350,-49.24525849,219.7248713,976.4255036
0.4400,-49.28659177,219.5742875,976.4298184
0.4450,-49.32664646,219.4224592,976.4341003
0.4500,-49.3653374,219.2716575,976.4383775
0.4550,-49.40349118,219.1202852,976.4425142
0.4600,-49.44040921,218.968493,976.4466938
0.4650,-49.47619938,218.8176722,976.4507308
0.4700,-49.51075916,218.666963,976.4546353
0.4750,-49.54314844,218.5159434,976.4583962
0.4800,-49.57393231,218.3646083,976.4620077
0.4850,-49.6025328,218.212349,976.4655643
0.4900,-49.6295183,218.0600455,976.4690243
0.4950,-49.65389197,217.9074404,976.4723693
0.5000,-49.67671078,217.7547219,976.4757312
0.5050,-49.69682872,217.6000406,976.4790617
0.5100,-49.71505871,217.4458629,976.4822562
0.5150,-49.73155972,217.291813,976.4855143
0.5200,-49.74610332,217.1367757,976.4886476
0.5250,-49.75906583,216.981913,976.4918146
0.5300,-49.77126373,216.8266261,976.4950837
0.5350,-49.78250966,216.6710712,976.4984047
0.5400,-49.79406609,216.5165348,976.5017986
0.5450,-49.80546258,216.3616593,976.5053166
0.5500,-49.81669435,216.2065109,976.5089037
0.5550,-49.82875372,216.0500651,976.5126024
0.5600,-49.84236476,215.8925918,976.5163813
0.5650,-49.85765098,215.7343302,976.5201946
0.5700,-49.87388764,215.5764801,976.5240569
0.5750,-49.89215381,215.4172471,976.5280555
0.5800,-49.9121281,215.2574448,976.5320209
0.5850,-49.93363131,215.0967524,976.5360601
0.5900,-49.95729524,214.9354918,976.5400972
0.5950,-49.98161445,214.7734879,976.5441717
0.6000,-50.00878958,214.6106346,976.5482906
0.6050,-50.03752586,214.4463837,976.5523754
0.6100,-50.06838836,214.2803337,976.5564085
0.6150,-50.10242477,214.1134381,976.5604577
0.6200,-50.13904117,213.9444475,976.5645538
0.6250,-50.17792434,213.7753289,976.5685922
0.6300,-50.2196399,213.6048913,976.5726687
0.6350,-50.2640735,213.4330834,976.5766685
0.6400,-50.31133379,213.2600542,976.58065
0.6450,-50.36130247,213.0868454,976.5846829
0.6500,-50.41424364,212.9126537,976.5887142
0.6550,-50.46924923,212.7388817,976.5927457
0.6600,-50.52726837,212.5653989,976.5967186
0.6650,-50.58707201,212.3911577,976.6007647
0.6700,-50.64987014,212.2185268,976.6047402
0.6750,-50.71575595,212.0479918,976.6086742
0.6800,-50.78351403,211.878366,976.6126355
0.6850,-50.85388662,211.7091696,976.6166344
0.6900,-50.92698465,211.5416933,976.6206166
0.6950,-51.00212599,211.3752001,976.6247055
0.7000,-51.07962843,211.2091945,976.6290004
0.7050,-51.15814099,211.0439164,976.6332946
0.7100,-51.23916065,210.8802435,976.6376292
0.7150,-51.32234494,210.7161657,976.6420515
0.7200,-51.40657877,210.5531726,976.6465597
0.7250,-51.49305883,210.3913383,976.6512828
0.7300,-51.58133301,210.2310449,976.6559528
0.7350,-51.67006703,210.0708218,976.6608782
0.7400,-51.7588908,209.9117761,976.6658551
0.7450,-51.84925707,209.754013,976.6710186
0.7500,-51.94095167,209.5963681,976.6763503
0.7550,-52.03246522,209.4393002,976.6817452
0.7600,-52.12570899,209.2827435,976.6873627
0.7650,-52.22015513,209.1257673,976.6931609
0.7700,-52.31542925,208.9687061,976.6990883
0.7750,-52.41205172,208.8119657,976.7052215
0.7800,-52.51010136,208.655128,976.7116529
0.7850,-52.60864185,208.4996706,976.7180982
0.7900,-52.70905031,208.3439728,976.7247655
0.7950,-52.81028113,208.188424,976.7317441
0.8000,-52.91241887,208.0343411,976.7388988
0.8050,-53.01484196,207.8822773,976.7462001
0.8100,-53.1174613,207.731353,976.7536981
0.8150,-53.2197604,207.5815522,976.7613704
0.8200,-53.32206953,207.4336134,976.7692423
0.8250,-53.42324826,207.2874988,976.7770624
0.8300,-53.52338352,207.1429271,976.7849344
0.8350,-53.62132182,206.9998663,976.7928975
0.8400,-53.71643714,206.8574352,976.8008678
0.8450,-53.80886349,206.7160992,976.8088077
0.8500,-53.89878619,206.5756317,976.8167139
0.8550,-53.98491845,206.4379951,976.8245028
0.8600,-54.06655407,206.3028152,976.8320089
0.8650,-54.14369487,206.1708573,976.8393948
0.8700,-54.21612707,206.040964,976.8466539
0.8750,-54.28283538,205.913471,976.8536437
0.8800,-54.34365515,205.7893609,976.8604167
0.8850,-54.39822205,205.6696512,976.8669463
0.8900,-54.44579862,205.554723,976.873213
0.8950,-54.48738498,205.444465,976.8791662
0.9000,-54.52078957,205.3375997,976.8847987
0.9050,-54.54704676,205.2365885,976.8900748
0.9100,-54.56494436,205.1397654,976.8950358
0.9150,-54.57346589,205.048245,976.8995205
0.9200,-54.57276816,204.9629715,976.9035714
0.9250,-54.56318207,204.8814707,976.907323
0.9300,-54.54320762,204.805558,976.9105335
0.9350,-54.51314402,204.7351584,976.9133073
0.9400,-54.47372591,204.6698512,976.9157588
0.9450,-54.42490918,204.6091473,976.9177646
0.9500,-54.36542924,204.5527708,976.9192503
0.9550,-54.29687684,204.5012165,976.9202989
0.9600,-54.21955597,204.4542562,976.9209251
0.9650,-54.13437872,204.4112736,976.9211523
0.9700,-54.04123943,204.3728634,976.9209555
0.9750,-53.94080154,204.3374722,976.9203843
0.9800,-53.83593257,204.3055961,976.9195421
0.9850,-53.72506024,204.2777017,976.9184145
0.9900,-53.60825947,204.2527466,976.917113
0.9950,-53.48658226,204.2316963,976.915494
1.0000,-53.36264038,204.2144121,976.9136143
1.0050,-53.2362892,204.1998594,976.9116124
1.0100,-53.10919516,204.1881964,976.9096133
1.0150,-52.9808427,204.1800265,976.9074747
1.0200,-52.85279485,204.1748266,976.9053548
1.0250,-52.72605939,204.1714508,976.9032378
1.0300,-52.59955827,204.1706714,976.90119
1.0350,-52.47524773,204.1731273,976.8990529
1.0400,-52.3550309,204.1764608,976.8970164
1.0450,-52.23773736,204.1814079,976.8950025
1.0500,-52.12398546,204.1873869,976.8929647
1.0550,-52.01484063,204.1947318,976.8910383
1.0600,-51.90946601,204.202001,976.888999
1.0650,-51.8079866,204.2099999,976.886998
1.0700,-51.71109298,204.2180048,976.8850587
1.0750,-51.61793047,204.2268602,976.8829409
1.0800,-51.52909197,204.2357404,976.8807902
1.0850,-51.44484072,204.2439146,976.8786799
1.0900,-51.36358664,204.2529871,976.8764515
1.0950,-51.28766724,204.2628614,976.8742291
1.1000,-51.21618665,204.2716494,976.8720479
1.1050,-51.14902753,204.2809016,976.8698323
1.1100,-51.08642233,204.2904339,976.8676884
1.1150,-51.0283639,204.3003087,976.86546
1.1200,-50.97359654,204.3099493,976.8632955
1.1250,-50.92322243,204.3189262,976.8613235
1.1300,-50.8766383,204.3288064,976.8593946
1.1350,-50.83421704,204.3392959,976.8574935
1.1400,-50.79539329,204.3514821,976.8557512
1.1450,-50.75947134,204.3641645,976.8540511
1.1500,-50.72651032,204.3775809,976.8524478
1.1550,-50.69529555,204.3906888,976.8509103
1.1600,-50.6656648,204.4046677,976.8495842
1.1650,-50.63778402,204.4187364,976.8482595
1.1700,-50.6114002,204.4330525,976.847006
1.1750,-50.58709732,204.447614,976.8458399
1.1800,-50.56433324,204.4610351,976.8447958
1.1850,-50.5425015,204.4735508,976.843772
1.1900,-50.52148656,204.4851625,976.842704
1.1950,-50.50110652,204.4949529,976.8417485
1.2000,-50.48182392,204.5045006,976.8408181
1.2050,-50.46295184,204.5124905,976.8399718
1.2100,-50.44531754,204.5202026,976.8391462
1.2150,-50.42873713,204.5266606,976.8383308
1.2200,-50.41259341,204.5309177,976.8375604
1.2250,-50.39727967,204.5356786,976.8368162
1.2300,-50.38385539,204.539785,976.8360774
1.2350,-50.37078411,204.5430238,976.8354522
1.2400,-50.35911349,204.5461693,976.8347869
1.2450,-50.34836025,204.5485596,976.834226
1.2500,-50.34009626,204.5520114,976.8337359
1.2550,-50.33203287,204.5553561,976.8333221
1.2600,-50.32399278,204.5580095,976.8329766
1.2650,-50.31784233,204.5614671,976.8325963
1.2700,-50.31212924,204.5632149,976.8323316
1.2750,-50.30742574,204.5655728,976.8320526
1.2800,-50.30218323,204.5681188,976.831825
1.2850,-50.2974085,204.5713808,976.8314595
1.2900,-50.29358331,204.5742108,976.8311837
1.2950,-50.29045111,204.5770001,976.8309055
1.3000,-50.28649098,204.5804222,976.8306472
1.3050,-50.28246964,204.5842239,976.8303481
1.3100,-50.27722424,204.5882554,976.829915
1.3150,-50.27159488,204.5926265,976.8295697
1.3200,-50.26501978,204.5978497,976.829123
1.3250,-50.25658124,204.6039005,976.8286221
1.3300,-50.24722877,204.610449,976.8280681
1.3350,-50.23604281,204.6168513,976.827494
1.3400,-50.22176821,204.6230728,976.8268033
1.3450,-50.20569131,204.6291396,976.8261022
1.3500,-50.18685218,204.6351253,976.8253052
1.3550,-50.16548438,204.6409795,976.824485
1.3600,-50.14187255,204.6473466,976.8235808
1.3650,-50.11615907,204.6539891,976.8225983
1.3700,-50.08778514,204.6609346,976.8215294
1.3750,-50.05748051,204.6667687,976.82051
1.3800,-50.02559274,204.6728582,976.819475
1.3850,-49.99285483,204.6798228,976.8184864
1.3900,-49.95943575,204.6863801,976.8175792
1.3950,-49.92323388,204.6931693,976.8166201
1.4000,-49.88598461,204.7006959,976.8156292
1.4050,-49.84865887,204.7086234,976.8146429
1.4100,-49.81010007,204.7169485,976.8136188
1.4150,-49.77112009,204.7255835,976.8126642
1.4200,-49.7332738,204.7339419,976.8117498
1.4250,-49.69583249,204.7428817,976.8108441
1.4300,-49.6584181,204.7512288,976.8099788
1.4350,-49.62151264,204.7599875,976.8091256
1.4400,-49.58592582,204.7677884,976.8082484
1.4450,-49.55278526,204.7757044,976.8074442
1.4500,-49.52022733,204.7832856,976.8066139
1.4550,-49.48977374,204.7897558,976.8059223
1.4600,-49.46213575,204.7948157,976.805248
1.4650,-49.43682777,204.7984484,976.8047402
1.4700,-49.41393155,204.7995812,976.8042314
1.4750,-49.39419292,204.7989227,976.8038117
1.4800,-49.37833448,204.7965572,976.8034184
1.4850,-49.36607651,204.7921507,976.8031394
1.4900,-49.35757602,204.7843654,976.8029939
1.4950,-49.35247485,204.7748856,976.8028006
1.5000,-49.34957434,204.7615035,976.8026891
1.5050,-49.34929641,204.7444895,976.8026685
1.5100,-49.35071656,204.7247422,976.8026789
1.5150,-49.35450158,204.7011038,976.8028104
1.5200,-49.36168996,204.6741153,976.8030425
1.5250,-49.37182026,204.6425769,976.8033844
1.5300,-49.38471114,204.6067021,976.8040301
1.5350,-49.40138492,204.5686514,976.8047522
1.5400,-49.42031789,204.525765,976.8057956
1.5450,-49.44223211,204.4791516,976.8069904
1.5500,-49.46600213,204.4286981,976.80855
1.5550,-49.49310055,204.3737317,976.8103865
1.5600,-49.52350617,204.31628,976.8124385
1.5650,-49.5559583,204.2547725,976.8149162
1.5700,-49.59169718,204.1903287,976.8176885
1.5750,-49.6295498,204.1216494,976.8209377
1.5800,-49.6707659,204.0491662,976.8244357
1.5850,-49.71460117,203.9713727,976.8283463
1.5900,-49.76114436,203.8898258,976.8325689
1.5950,-49.80990564,203.804819,976.8370635
1.6000,-49.8604013,203.7156155,976.8417842
1.6050,-49.91295652,203.6235104,976.8468026
1.6100,-49.96703371,203.527999,976.8521932
1.6150,-50.02215365,203.430867,976.8576665
1.6200,-50.07833973,203.3308132,976.8633869
1.6250,-50.13481151,203.2290359,976.8692255
1.6300,-50.19239428,203.1257348,976.8752584
1.6350,-50.24950915,203.0210839,976.881326
1.6400,-50.30680617,202.9156851,976.8875438
1.6450,-50.363496,202.810661,976.8938186
1.6500,-50.42023063,202.7058702,976.9000999
1.6550,-50.47709709,202.60145,976.9064397
1.6600,-50.53367407,202.4977928,976.9128261
1.6650,-50.58983054,202.3952392,976.9192742
1.6700,-50.64742481,202.2953347,976.9257495
1.6750,-50.70625684,202.1983853,976.9323805
1.6800,-50.76668105,202.1047087,976.939117
1.6850,-50.82860018,202.0157687,976.9458923
1.6900,-50.89170768,201.9312715,976.9527402
1.6950,-50.95740198,201.8527468,976.9596147
1.7000,-51.02464838,201.7795041,976.9664543
1.7050,-51.09242352,201.7119188,976.9733094
1.7100,-51.16243467,201.6502423,976.9801066
1.7150,-51.23335368,201.5953535,976.9868269
1.7200,-51.30315525,201.5479738,976.9933776
1.7250,-51.372707,201.507767,976.999712
1.7300,-51.4421906,201.4740761,977.0057934
1.7350,-51.50875525,201.4471593,977.0115272
1.7400,-51.57137363,201.4269002,977.0168631
1.7450,-51.62899198,201.4142712,977.0216901
1.7500,-51.68275216,201.4080226,977.0260574
1.7550,-51.73144673,201.4085952,977.0298913
1.7600,-51.77444755,201.4155873,977.0331909
1.7650,-51.81222173,201.4287538,977.0358423
1.7700,-51.84401713,201.4490714,977.0380031
1.7750,-51.87077351,201.4764487,977.0395434
1.7800,-51.89186714,201.5113232,977.0405556
1.7850,-51.90727996,201.5514481,977.0411197
1.7900,-51.91788111,201.597176,977.0413706
1.7950,-51.92493849,201.6480087,977.0414566
1.8000,-51.93059571,201.7041102,977.0414161
1.8050,-51.93594022,201.7647405,977.0412518
1.8100,-51.94136981,201.8283534,977.0409786
1.8150,-51.94741022,201.8954294,977.0408204
1.8200,-51.95360037,201.9656052,977.0408352
1.8250,-51.95997055,202.0368535,977.0409647
1.8300,-51.96863204,202.1087463,977.0412199
1.8350,-51.97832243,202.1789289,977.0417102
1.8400,-51.99061191,202.2482683,977.0423015
1.8450,-52.004479,202.315186,977.0430366
1.8500,-52.02220034,202.3780062,977.0438913
1.8550,-52.04323442,202.4366113,977.0449063
1.8600,-52.06712198,202.4886047,977.0461143
1.8650,-52.09325343,202.5343213,977.0474115
1.8700,-52.12316568,202.5725031,977.0489267
1.8750,-52.15747012,202.602972,977.0506287
1.8800,-52.195136,202.6250954,977.0527182
1.8850,-52.23676393,202.6412347,977.0551756
1.8900,-52.2847335,202.6496997,977.0580329
1.8950,-52.33878593,202.6508013,977.061382
1.9000,-52.40030482,202.6443447,977.0654156
1.9050,-52.46969691,202.6299408,977.0702694
1.9100,-52.54740369,202.6097859,977.0757698
1.9150,-52.63293146,202.5816586,977.0821521
1.9200,-52.72825504,202.5471178,977.0893748
1.9250,-52.83335367,202.5047046,977.0976944
1.9300,-52.94779896,202.453768,977.1070035
1.9350,-53.07294367,202.3948833,977.1175041
1.9400,-53.20908544,202.3300447,977.1289939
1.9450,-53.35612649,202.256669,977.1415724
1.9500,-53.5141696,202.1751544,977.1554348
1.9550,-53.68346288,202.0866463,977.1703216
1.9600,-53.86460208,201.9921581,977.1863176
1.9650,-54.05767904,201.8902777,977.2034192
1.9700,-54.26320518,201.7828198,977.2216272
1.9750,-54.47987446,201.6695285,977.2408025
1.9800,-54.70773623,201.5515572,977.2609681
1.9850,-54.94681997,201.4273424,977.2821157
1.9900,-55.19854468,201.2998078,977.3041348
1.9950,-55.46161791,201.1676598,977.3270245
2.0000,-55.73643052,201.0322797,977.3509565
2.0050,-56.02330703,200.8950744,977.375736
2.0100,-56.32077576,200.7553818,977.4014649
2.0150,-56.62978105,200.6149419,977.4281505
2.0200,-56.94997668,200.473912,977.4558004
2.0250,-57.28045678,200.3330024,977.4844931
2.0300,-57.62050781,200.1920782,977.5142546
2.0350,-57.97145864,200.0521616,977.5451734
2.0400,-58.33375184,199.9127703,977.5773561
2.0450,-58.70688563,199.7742733,977.6107799
2.0500,-59.08927567,199.6362709,977.645618
2.0550,-59.48244198,199.4990278,977.6818954
2.0600,-59.88525786,199.360843,977.7197832
2.0650,-60.29707652,199.2211024,977.7593864
2.0700,-60.71930592,199.0788466,977.8008178
2.0750,-61.15102701,198.9333347,977.8442087
2.0800,-61.59237775,198.7829004,977.8897478
2.0850,-62.04521986,198.628843,977.9374569
2.0900,-62.51088994,198.4705719,977.9875387
2.0950,-62.98964758,198.3077056,978.0400576
2.1000,-63.48243669,198.1403453,978.0952696
2.1050,-63.99014455,197.9670488,978.1534239
2.1100,-64.51330079,197.7890611,978.2147334
2.1150,-65.05253942,197.60487,978.2792921
2.1200,-65.60936616,197.4144402,978.347246
2.1250,-66.18415457,197.218464,978.418809
2.1300,-66.77666619,197.0175608,978.4941737
2.1350,-67.386908,196.8104549,978.5735799
2.1400,-68.01598266,196.5970473,978.6572243
2.1450,-68.6646103,196.3779888,978.7453592
2.1500,-69.33135668,196.1543326,978.8379921
2.1550,-70.01598724,195.9255064,978.9352251
2.1600,-70.71903615,195.6924534,979.0372598
2.1650,-71.44078778,195.4558075,979.144186
2.1700,-72.17873145,195.2152156,979.2561055
2.1750,-72.93345947,194.9712237,979.3731063
2.1800,-73.70519802,194.7250654,979.495059
2.1850,-74.49297393,194.47405,979.6222809
2.1900,-75.29597642,194.2209907,979.7546287
2.1950,-76.11369427,193.9654305,979.8922006
2.2000,-76.94621615,193.7075674,980.0350295
2.2050,-77.79305619,193.449216,980.1827918
2.2100,-78.65353167,193.188994,980.3356202
2.2150,-79.5286578,192.9274783,980.4935269
2.2200,-80.41729477,192.6654521,980.6566424
2.2250,-81.31931811,192.405263,980.8245549
2.2300,-82.23463491,192.1482868,980.9973253
2.2350,-83.16314067,191.8951907,981.1749376
2.2400,-84.10342087,191.6452517,981.3572422
2.2450,-85.0558304,191.40055,981.5441715
2.2500,-86.02021029,191.1616564,981.7355339
2.2550,-86.99483538,190.9295147,981.9311591
2.2600,-87.9796789,190.7038365,982.1308473
2.2650,-88.97306879,190.4862784,982.3343646
