type,name,time_units,begin_time,frequency,count,units
signal_3d,"Noraxon MyoMotion-Trajectories-Medial humeral epicondyle RT","s",0.0000,200,5320,"mm"

time,x,y,z
0.0000,-26.92337417,241.9854076,1231.588594
0.0050,-26.9213311,241.9956923,1231.592658
0.0100,-26.91929093,242.0059772,1231.596723
0.0150,-26.91725367,242.0162625,1231.600788
0.0200,-26.91545821,242.02587,1231.604942
0.0250,-26.91405512,242.0344813,1231.609122
0.0300,-26.91323432,242.0417877,1231.613262
0.0350,-26.91322386,242.0474961,1231.617302
0.0400,-26.9142862,242.0513329,1231.621185
0.0450,-26.9167144,242.0530497,1231.624857
0.0500,-26.92082864,242.0524349,1231.628273
0.0550,-26.92696919,242.049324,1231.631395
0.0600,-26.93548328,242.0436097,1231.634194
0.0650,-26.94670971,242.0352524,1231.636648
0.0700,-26.96096701,242.0242854,1231.638747
0.0750,-26.97854437,242.0108121,1231.640484
0.0800,-26.99969017,241.9949936,1231.641864
0.0850,-27.02459616,241.9770295,1231.642895
0.0900,-27.05337821,241.9571407,1231.643587
0.0950,-27.0860592,241.935562,1231.643956
0.1000,-27.12255881,241.9125403,1231.644016
0.1050,-27.16269033,241.888333,1231.643784
0.1100,-27.20616409,241.8632061,1231.643277
0.1150,-27.25259994,241.8374314,1231.642514
0.1200,-27.30154701,241.8112834,1231.641515
0.1250,-27.35250174,241.785033,1231.640305
0.1300,-27.40492077,241.7589429,1231.638907
0.1350,-27.45823451,241.7332703,1231.637349
0.1400,-27.51186714,241.70827,1231.63566
0.1450,-27.56525982,241.6841916,1231.633869
0.1500,-27.61788936,241.6612718,1231.632012
0.1550,-27.72078934,241.6098225,1231.630575
0.1600,-27.82242486,241.5584097,1231.628973
0.1650,-27.92227348,241.5061926,1231.627199
0.1700,-28.02063854,241.4540566,1231.625325
0.1750,-28.11819172,241.4024889,1231.62342
0.1800,-28.21335471,241.3513526,1231.621454
0.1850,-28.30762083,241.3012356,1231.619534
0.1900,-28.39924583,241.2521367,1231.61769
0.1950,-28.48860204,241.2023508,1231.615739
0.2000,-28.57604526,241.1529625,1231.613812
0.2050,-28.66173344,241.1041412,1231.611939
0.2100,-28.74651915,241.0549798,1231.61017
0.2150,-28.82909249,241.005139,1231.608458
0.2200,-28.91043024,240.9556571,1231.606853
0.2250,-28.99001495,240.9064031,1231.605355
0.2300,-29.06803018,240.8572149,1231.603983
0.2350,-29.14470663,240.8079288,1231.602657
0.2400,-29.2198,240.7570856,1231.601392
0.2450,-29.29341824,240.7052694,1231.600232
0.2500,-29.36594684,240.6525116,1231.599196
0.2550,-29.43727827,240.5992372,1231.598249
0.2600,-29.50771928,240.5446283,1231.597445
0.2650,-29.57563152,240.4895537,1231.596756
0.2700,-29.64274041,240.4328039,1231.596146
0.2750,-29.70877304,240.3759659,1231.595739
0.2800,-29.77424399,240.3182332,1231.59551
0.2850,-29.83861572,240.2585748,1231.595291
0.2900,-29.90194594,240.1984235,1231.595188
0.2950,-29.96503819,240.1372742,1231.595203
0.3000,-30.0279416,240.0755296,1231.595341
0.3050,-30.08997222,240.0124169,1231.595526
0.3100,-30.15148621,239.9497061,1231.595885
0.3150,-30.21331587,239.8867747,1231.596371
0.3200,-30.27457678,239.8231802,1231.59684
0.3250,-30.33528507,239.7582275,1231.597267
0.3300,-30.39500372,239.6921351,1231.597651
0.3350,-30.45460346,239.6250431,1231.597978
0.3400,-30.51350746,239.5570678,1231.598217
0.3450,-30.57220999,239.4873803,1231.598379
0.3500,-30.63014746,239.4170038,1231.598453
0.3550,-30.68744286,239.3437641,1231.598319
0.3600,-30.74393117,239.2691369,1231.598136
0.3650,-30.79976601,239.193584,1231.597936
0.3700,-30.85406914,239.1170566,1231.597646
0.3750,-30.90691595,239.0389143,1231.597356
0.3800,-30.95818321,238.9593473,1231.597001
0.3850,-31.00916186,238.8790527,1231.596649
0.3900,-31.05934467,238.7968004,1231.596233
0.3950,-31.10917052,238.7141546,1231.595875
0.4000,-31.15772349,238.6307848,1231.595476
0.4050,-31.2064006,238.5476104,1231.595209
0.4100,-31.2545219,238.4638276,1231.595019
0.4150,-31.30229516,238.3811739,1231.594964
0.4200,-31.34887595,238.2978077,1231.594918
0.4250,-31.39467376,238.214294,1231.594919
0.4300,-31.4391587,238.1314518,1231.594997
0.4350,-31.48293158,238.0476508,1231.595079
0.4400,-31.5262014,237.9630698,1231.595136
0.4450,-31.56871969,237.87744,1231.595172
0.4500,-31.61062581,237.7923787,1231.595275
0.4550,-31.65238087,237.7060881,1231.595313
0.4600,-31.69412098,237.6195129,1231.595461
0.4650,-31.73593185,237.5326875,1231.595645
0.4700,-31.77735651,237.4451506,1231.595816
0.4750,-31.81823619,237.3565476,1231.596016
0.4800,-31.85859504,237.2668757,1231.5962
0.4850,-31.89847843,237.1761535,1231.596458
0.4900,-31.9381118,237.0847477,1231.596763
0.4950,-31.97741605,236.9923511,1231.597174
0.5000,-32.01697334,236.899673,1231.59774
0.5050,-32.05577938,236.8053351,1231.598389
0.5100,-32.09403617,236.7105233,1231.599073
0.5150,-32.13186587,236.6159526,1231.59989
0.5200,-32.1692902,236.5198473,1231.600741
0.5250,-32.206874,236.4237072,1231.601762
0.5300,-32.24480996,236.3274158,1231.602933
0.5350,-32.28347256,236.230745,1231.604282
0.5400,-32.32329905,236.1346463,1231.605792
0.5450,-32.36332653,236.0385499,1231.607406
0.5500,-32.40405789,235.9421244,1231.609147
0.5550,-32.44576489,235.844813,1231.610966
0.5600,-32.48870848,235.7466868,1231.612816
0.5650,-32.53347441,235.6474906,1231.614734
0.5700,-32.57866686,235.5483863,1231.61667
0.5750,-32.62532777,235.4484372,1231.618645
0.5800,-32.67237798,235.3474519,1231.620515
0.5850,-32.72060082,235.2456398,1231.622417
0.5900,-32.76975735,235.1429427,1231.624242
0.5950,-32.81882333,235.0395516,1231.626028
0.6000,-32.86826227,234.935496,1231.627643
0.6050,-32.9174093,234.8300654,1231.629072
0.6100,-32.96639507,234.7228832,1231.630271
0.6150,-33.01528083,234.6150555,1231.63121
0.6200,-33.06372966,234.5058444,1231.631897
0.6250,-33.11127335,234.3961797,1231.632301
0.6300,-33.15840141,234.2856719,1231.632446
0.6350,-33.20492117,234.1737352,1231.632264
0.6400,-33.25107236,234.0606699,1231.631807
0.6450,-33.29632025,233.9477418,1231.631081
0.6500,-33.34086635,233.8340642,1231.630043
0.6550,-33.38418758,233.7206958,1231.628743
0.6600,-33.42698763,233.607166,1231.627141
0.6650,-33.46852151,233.4934224,1231.625309
0.6700,-33.5094832,233.3804434,1231.62319
0.6750,-33.55002739,233.2687092,1231.620814
0.6800,-33.58931266,233.1577868,1231.618206
0.6850,-33.6280718,233.0473209,1231.615372
0.6900,-33.66626634,232.9379824,1231.612297
0.6950,-33.70341584,232.8299936,1231.609028
0.7000,-33.74016774,232.7233223,1231.605644
0.7050,-33.77535084,232.6172965,1231.602038
0.7100,-33.80968062,232.5127349,1231.598195
0.7150,-33.84345806,232.4082959,1231.594157
0.7200,-33.87645815,232.3051113,1231.590013
0.7250,-33.90938077,232.203794,1231.585802
0.7300,-33.94229314,232.10323,1231.581445
0.7350,-33.97468938,232.0039153,1231.577116
0.7400,-34.00619066,231.9057255,1231.57273
0.7450,-34.03874474,231.8091185,1231.56843
0.7500,-34.07207915,231.713153,1231.564177
0.7550,-34.1048259,231.6178398,1231.559912
0.7600,-34.13893302,231.5236489,1231.555753
0.7650,-34.17408273,231.4296777,1231.551674
0.7700,-34.21052035,231.3358272,1231.547715
0.7750,-34.24838427,231.2428173,1231.543889
0.7800,-34.28849279,231.1505869,1231.540316
0.7850,-34.3294992,231.0590692,1231.536823
0.7900,-34.37309313,230.9678258,1231.533541
0.7950,-34.41798412,230.8778414,1231.530466
0.8000,-34.46433244,230.7893511,1231.527572
0.8050,-34.51168242,230.7027126,1231.524858
0.8100,-34.55970051,230.6175829,1231.5223
0.8150,-34.60834888,230.533892,1231.519924
0.8200,-34.65702656,230.4524266,1231.517664
0.8250,-34.70451064,230.3721052,1231.515369
0.8300,-34.75111762,230.2932751,1231.5131
0.8350,-34.79625852,230.2161841,1231.51091
0.8400,-34.83923394,230.1398842,1231.50872
0.8450,-34.88046221,230.0644931,1231.506553
0.8500,-34.91892308,229.9900952,1231.504273
0.8550,-34.95443981,229.9178123,1231.501961
0.8600,-34.98640362,229.846635,1231.499533
0.8650,-35.01442859,229.7781516,1231.497022
0.8700,-35.03962049,229.7112131,1231.494544
0.8750,-35.06038289,229.6456504,1231.491955
0.8800,-35.07816557,229.5823234,1231.489457
0.8850,-35.09149562,229.5222181,1231.486924
0.8900,-35.10077431,229.4654579,1231.484457
0.8950,-35.1061393,229.4116938,1231.481966
0.9000,-35.10704454,229.3599581,1231.479552
0.9050,-35.10442895,229.311911,1231.477254
0.9100,-35.09671874,229.266716,1231.474993
0.9150,-35.08364542,229.2244963,1231.472777
0.9200,-35.06463408,229.1863712,1231.47056
0.9250,-35.0404584,229.1509622,1231.468416
0.9300,-35.00963635,229.118695,1231.466242
0.9350,-34.97228032,229.0900488,1231.464069
0.9400,-34.92899658,229.0652042,1231.461942
0.9450,-34.87905639,229.0432313,1231.45973
0.9500,-34.82233189,229.0234423,1231.457502
0.9550,-34.75951169,229.0065763,1231.45524
0.9600,-34.69084981,228.9924523,1231.452953
0.9650,-34.61720712,228.9804939,1231.450663
0.9700,-34.53918632,228.9708801,1231.44845
0.9750,-34.45678681,228.9625457,1231.446263
0.9800,-34.37216203,228.9560992,1231.44414
0.9850,-34.28467479,228.95182,1231.442156
0.9900,-34.19466443,228.9493389,1231.440376
0.9950,-34.10272054,228.9485256,1231.438737
1.0000,-34.01066275,228.9492903,1231.437235
1.0050,-33.91844466,228.9514192,1231.435927
1.0100,-33.82772025,228.9553847,1231.434909
1.0150,-33.73760086,228.9610829,1231.434077
1.0200,-33.64891817,228.9687303,1231.433455
1.0250,-33.56258487,228.9771356,1231.433034
1.0300,-33.47733986,228.9874567,1231.43281
1.0350,-33.39455288,228.9991738,1231.432714
1.0400,-33.31561381,229.0111816,1231.432771
1.0450,-33.23876075,229.0238947,1231.43288
1.0500,-33.16483707,229.036485,1231.433049
1.0550,-33.0947282,229.0497516,1231.433346
1.0600,-33.02706083,229.0616434,1231.433578
1.0650,-32.96225326,229.0735364,1231.43385
1.0700,-32.9006565,229.084905,1231.434142
1.0750,-32.84181057,229.0952299,1231.434394
1.0800,-32.78569526,229.1046859,1231.434591
1.0850,-32.7324742,229.113061,1231.434745
1.0900,-32.68113409,229.1209113,1231.434847
1.0950,-32.6334474,229.1285766,1231.434933
1.1000,-32.58799588,229.135086,1231.434902
1.1050,-32.54494976,229.1412294,1231.434777
1.1100,-32.5043536,229.1474913,1231.434575
1.1150,-32.46598098,229.153121,1231.434213
1.1200,-32.42909462,229.1586111,1231.433762
1.1250,-32.39453004,229.1641734,1231.433263
1.1300,-32.36091181,229.1705598,1231.43258
1.1350,-32.32797032,229.17754,1231.431642
1.1400,-32.2957775,229.1866397,1231.430572
1.1450,-32.26320821,229.1964939,1231.429244
1.1500,-32.23083724,229.2074295,1231.427744
1.1550,-32.19702952,229.2187294,1231.425973
1.1600,-32.16171132,229.2320653,1231.424013
1.1650,-32.1251969,229.2456644,1231.421791
1.1700,-32.08659983,229.260178,1231.419266
1.1750,-32.04674737,229.2755419,1231.416482
1.1800,-32.00517954,229.290847,1231.413435
1.1850,-31.96245704,229.3055847,1231.410201
1.1900,-31.91753762,229.3196442,1231.406652
1.1950,-31.87143905,229.3328309,1231.402965
1.2000,-31.82453167,229.3460013,1231.399122
1.2050,-31.77627492,229.3583746,1231.395136
1.2100,-31.72810161,229.3704781,1231.391078
1.2150,-31.67987435,229.3814708,1231.38693
1.2200,-31.63205747,229.3906563,1231.382795
1.2250,-31.58499602,229.4000515,1231.378708
1.2300,-31.53999834,229.4084918,1231.374686
1.2350,-31.4960346,229.4164275,1231.370795
1.2400,-31.45374922,229.4236693,1231.366957
1.2450,-31.41431615,229.4301835,1231.36339
1.2500,-31.37814384,229.4373721,1231.360003
1.2550,-31.34422027,229.4444123,1231.356873
1.2600,-31.31229643,229.450794,1231.353977
1.2650,-31.2833913,229.4571861,1231.351237
1.2700,-31.25658653,229.462429,1231.348706
1.2750,-31.23198752,229.4678046,1231.34632
1.2800,-31.2084529,229.4733825,1231.344118
1.2850,-31.18632342,229.4786367,1231.341979
1.2900,-31.16600515,229.4838225,1231.339974
1.2950,-31.14730046,229.4887421,1231.338079
1.3000,-31.12900601,229.4942357,1231.336311
1.3050,-31.11148442,229.4997877,1231.334612
1.3100,-31.09327988,229.5049854,1231.332888
1.3150,-31.0749265,229.510995,1231.331216
1.3200,-31.05682497,229.5171603,1231.329616
1.3250,-31.03738121,229.5239904,1231.328011
1.3300,-31.01839595,229.5309682,1231.326505
1.3350,-30.99813102,229.5379891,1231.324998
1.3400,-30.97589438,229.5445483,1231.323491
1.3450,-30.95247248,229.5511634,1231.321995
1.3500,-30.92732442,229.5575304,1231.3205
1.3550,-30.90009408,229.5640927,1231.318974
1.3600,-30.87188245,229.5708345,1231.317501
1.3650,-30.84209329,229.5776772,1231.316004
1.3700,-30.8101186,229.5846983,1231.314464
1.3750,-30.77683142,229.5913441,1231.312944
1.3800,-30.74223398,229.5983739,1231.311409
1.3850,-30.7084163,229.6062735,1231.310056
1.3900,-30.67414838,229.6144067,1231.308733
1.3950,-30.63830187,229.6226679,1231.30746
1.4000,-30.60214799,229.631357,1231.306245
1.4050,-30.56631689,229.6403691,1231.305076
1.4100,-30.53045137,229.6493872,1231.304008
1.4150,-30.49435877,229.6590204,1231.302989
1.4200,-30.45914948,229.6684814,1231.301983
1.4250,-30.42435357,229.6783108,1231.301007
1.4300,-30.39031783,229.6876085,1231.300133
1.4350,-30.35727661,229.6970321,1231.299346
1.4400,-30.32522736,229.7052996,1231.298542
1.4450,-30.2950792,229.7136511,1231.297778
1.4500,-30.26528719,229.7213399,1231.297008
1.4550,-30.23759983,229.7284157,1231.296338
1.4600,-30.21226427,229.7340046,1231.295678
1.4650,-30.18910934,229.7388208,1231.295116
1.4700,-30.16790102,229.7411763,1231.294536
1.4750,-30.14905475,229.7421145,1231.293961
1.4800,-30.1326411,229.7413561,1231.293315
1.4850,-30.11847501,229.7391084,1231.292632
1.4900,-30.10781291,229.7341697,1231.292019
1.4950,-30.0992112,229.7272281,1231.291307
1.5000,-30.09209146,229.717096,1231.290565
1.5050,-30.08703143,229.7040568,1231.289818
1.5100,-30.08323288,229.6885606,1231.289055
1.5150,-30.08122001,229.6701458,1231.288287
1.5200,-30.08111844,229.6491517,1231.287437
1.5250,-30.08210396,229.6247313,1231.286447
1.5300,-30.08395168,229.5981068,1231.285388
1.5350,-30.08731939,229.5698288,1231.284178
1.5400,-30.09124392,229.539067,1231.28291
1.5450,-30.09521879,229.5059966,1231.281411
1.5500,-30.09904183,229.4715569,1231.279845
1.5550,-30.10265922,229.4348543,1231.278028
1.5600,-30.10544811,229.3972929,1231.2759
1.5650,-30.10734921,229.3586722,1231.273623
1.5700,-30.10811773,229.3192426,1231.271027
1.5750,-30.10780614,229.2788933,1231.26827
1.5800,-30.10584118,229.2368857,1231.265098
1.5850,-30.10162414,229.1928968,1231.261553
1.5900,-30.094712,229.1477443,1231.257559
1.5950,-30.08459272,229.101496,1231.253091
1.6000,-30.07053842,229.0533641,1231.248085
1.6050,-30.05313809,229.0047212,1231.242616
1.6100,-30.03229439,228.9554543,1231.236743
1.6150,-30.00724026,228.9056142,1231.230335
1.6200,-29.97754331,228.8550535,1231.223384
1.6250,-29.94300936,228.8040147,1231.215905
1.6300,-29.90406695,228.7529789,1231.207903
1.6350,-29.86035759,228.7012374,1231.199417
1.6400,-29.81280017,228.649766,1231.190537
1.6450,-29.76088986,228.59906,1231.181256
1.6500,-29.70606604,228.5485206,1231.17165
1.6550,-29.64895896,228.4984717,1231.161797
1.6600,-29.58966353,228.4491752,1231.151741
1.6650,-29.52897718,228.4008916,1231.14159
1.6700,-29.46935116,228.3545072,1231.131444
1.6750,-29.41081381,228.3109284,1231.121377
1.6800,-29.35460953,228.2700482,1231.111476
1.6850,-29.3004922,228.2327857,1231.101715
1.6900,-29.24956272,228.1990016,1231.092248
1.6950,-29.20294361,228.1696722,1231.083071
1.7000,-29.16067356,228.1440198,1231.074243
1.7050,-29.1223459,228.1226761,1231.065837
1.7100,-29.08855163,228.1055008,1231.057733
1.7150,-29.05923795,228.0931861,1231.050047
1.7200,-29.03312702,228.0860513,1231.042801
1.7250,-29.0102422,228.0837282,1231.035881
1.7300,-28.99041283,228.0855361,1231.02923
1.7350,-28.97198628,228.091462,1231.022894
1.7400,-28.95431742,228.1013228,1231.016873
1.7450,-28.93666496,228.1154904,1231.011154
1.7500,-28.91991022,228.1331895,1231.005722
1.7550,-28.9028009,228.1545036,1231.000538
1.7600,-28.88523427,228.1791607,1230.995644
1.7650,-28.86731091,228.2063938,1230.990961
1.7700,-28.84878286,228.2378024,1230.986612
1.7750,-28.8303395,228.2725653,1230.982541
1.7800,-28.81145929,228.3115218,1230.978795
1.7850,-28.79219215,228.3532121,1230.975387
1.7900,-28.7719571,228.3985795,1230.972231
1.7950,-28.75164067,228.447767,1230.969365
1.8000,-28.73246453,228.5010009,1230.966737
1.8050,-28.71381096,228.5575476,1230.964183
1.8100,-28.69515844,228.6161728,1230.961598
1.8150,-28.67560324,228.6783401,1230.958937
1.8200,-28.65417263,228.7440012,1230.956165
1.8250,-28.62994358,228.8112395,1230.953129
1.8300,-28.6036807,228.8794818,1230.949729
1.8350,-28.57317955,228.9474159,1230.945858
1.8400,-28.53796386,229.0150205,1230.941276
1.8450,-28.4968038,229.0811771,1230.93595
1.8500,-28.44935691,229.1442107,1230.9296
1.8550,-28.39486252,229.204188,1230.922208
1.8600,-28.33338864,229.2592639,1230.913803
1.8650,-28.26221316,229.3091034,1230.904121
1.8700,-28.18273117,229.3531154,1230.893199
1.8750,-28.0946044,229.3908003,1230.880929
1.8800,-27.99778442,229.4225379,1230.867473
1.8850,-27.89253499,229.4499647,1230.852828
1.8900,-27.78004595,229.4714499,1230.83689
1.8950,-27.66114484,229.4875881,1230.819803
1.9000,-27.53657549,229.4988743,1230.801586
1.9050,-27.40638785,229.5054241,1230.782245
1.9100,-27.2708918,229.5079891,1230.761725
1.9150,-27.13053436,229.5057477,1230.740172
1.9200,-26.98710993,229.4994574,1230.717585
1.9250,-26.84101798,229.4890355,1230.694073
1.9300,-26.69247159,229.4733254,1230.669631
1.9350,-26.54316165,229.4535172,1230.644385
1.9400,-26.39282946,229.4300639,1230.618209
1.9450,-26.24257569,229.4011881,1230.591219
1.9500,-26.09273923,229.3680575,1230.563501
1.9550,-25.94435468,229.3300935,1230.535055
1.9600,-25.79785835,229.2883345,1230.5059
1.9650,-25.65476094,229.2415835,1230.476152
1.9700,-25.51505164,229.190987,1230.445778
1.9750,-25.37850906,229.135687,1230.414812
1.9800,-25.24642347,229.0767444,1230.383402
1.9850,-25.11851749,229.0126597,1230.351473
1.9900,-24.9969077,228.9453036,1230.319092
1.9950,-24.88153797,228.8737465,1230.28635
2.0000,-24.77260648,228.7997987,1230.253301
2.0050,-24.67095361,228.723856,1230.219919
2.0100,-24.57616291,228.6460027,1230.186329
2.0150,-24.48864325,228.5675928,1230.152487
2.0200,-24.40844137,228.4889151,1230.118417
2.0250,-24.33491659,228.4109814,1230.084166
2.0300,-24.26704204,228.3338093,1230.049678
2.0350,-24.20532307,228.2585403,1230.014886
2.0400,-24.14959907,228.1850385,1229.979743
2.0450,-24.09894321,228.1134773,1229.944159
2.0500,-24.05163325,228.0442862,1229.908142
2.0550,-24.00806077,227.9774719,1229.871555
2.0600,-23.96651642,227.9121288,1229.834342
2.0650,-23.92602042,227.8480495,1229.796464
2.0700,-23.88730731,227.7845624,1229.757855
2.0750,-23.84902698,227.721353,1229.718475
2.0800,-23.81018126,227.6572699,1229.678215
2.0850,-23.77182092,227.5929205,1229.636993
2.0900,-23.73385732,227.5278329,1229.5947
2.0950,-23.69657403,227.4616169,1229.55133
2.1000,-23.65918576,227.3943639,1229.506763
2.1050,-23.62182822,227.3252669,1229.460951
2.1100,-23.58537494,227.2558907,1229.414011
2.1150,-23.54944589,227.1842991,1229.365816
2.1200,-23.51452251,227.1101854,1229.316256
2.1250,-23.48099471,227.0344915,1229.265382
2.1300,-23.44813221,226.9578083,1229.213158
2.1350,-23.41539627,226.8792254,1229.15954
2.1400,-23.38453869,226.7990865,1229.104639
2.1450,-23.35552529,226.7180878,1229.048405
2.1500,-23.32727971,226.6366804,1228.990825
2.1550,-23.30010139,226.5541856,1228.931959
2.1600,-23.27402722,226.4714304,1228.871762
2.1650,-23.25003588,226.389011,1228.810299
2.1700,-23.22577448,226.3064653,1228.747544
2.1750,-23.20233178,226.2240485,1228.683553
2.1800,-23.18027638,226.1417737,1228.618274
2.1850,-23.15904148,226.0581887,1228.551776
2.1900,-23.13874918,225.9748777,1228.484109
2.1950,-23.11899649,225.8912264,1228.415256
2.2000,-23.10034229,225.8070854,1228.345245
2.2050,-23.08377908,225.7227647,1228.274137
2.2100,-23.07052242,225.638171,1228.202183
2.2150,-23.06096274,225.5528968,1228.129264
2.2200,-23.05477889,225.4680922,1228.055502
2.2250,-23.05283065,225.3840359,1227.980892
2.2300,-23.05587715,225.3022097,1227.905564
2.2350,-23.06367742,225.2227129,1227.829444
2.2400,-23.07684317,225.1451413,1227.752745
2.2450,-23.09583561,225.0708175,1227.675444
2.2500,-23.12111217,224.999481,1227.597554
2.2550,-23.1522611,224.9320292,1227.519179
2.2600,-23.19037916,224.8680428,1227.440393
2.2650,-23.23435718,224.8082822,1227.361197
