type,name,time_units,begin_time,frequency,count,units
signal_3d,"Noraxon MyoMotion-Trajectories-Ulnar styloid process RT","s",0.0000,200,5348,"mm"

time,x,y,z
0.0000,-44.92590877,231.1427292,975.3408555
0.0050,-44.84302184,231.1226442,975.3411299
0.0100,-44.76013218,231.1025713,975.3414174
0.0150,-44.67723978,231.0825105,975.341718
0.0200,-44.58853905,231.0602291,975.3420792
0.0250,-44.49467196,231.0357548,975.342508
0.0300,-44.39636647,231.0091459,975.3430106
0.0350,-44.29440907,230.9804821,975.3435915
0.0400,-44.18962049,230.9498506,975.3442535
0.0450,-44.0828379,230.9173368,975.3449977
0.0500,-43.97489828,230.883026,975.3458241
0.0550,-43.86661604,230.8470164,975.3467328
0.0600,-43.75875916,230.809432,975.3477245
0.0650,-43.65203285,230.7704295,975.3488008
0.0700,-43.54707483,230.7301985,975.3499635
0.0750,-43.44446084,230.6889569,975.3512145
0.0800,-43.34471042,230.6469404,975.3525551
0.0850,-43.24828585,230.6043948,975.3539849
0.0900,-43.15558911,230.5615732,975.3555014
0.0950,-43.06696359,230.5187372,975.3570995
0.1000,-42.98270072,230.4761555,975.3587721
0.1050,-42.90304751,230.4340999,975.3605098
0.1100,-42.82821417,230.3928428,975.3623005
0.1150,-42.75838278,230.3526602,975.36413
0.1200,-42.6937119,230.3138337,975.3659819
0.1250,-42.63433092,230.2766451,975.3678386
0.1300,-42.58032867,230.2413646,975.3696807
0.1350,-42.53174214,230.2082384,975.3714872
0.1400,-42.48854717,230.1774844,975.373236
0.1450,-42.45065213,230.1492945,975.3749046
0.1500,-42.41789401,230.123833,975.3764708
0.1550,-42.330632,230.0748528,975.3791468
0.1600,-42.25101605,230.0289191,975.3816441
0.1650,-42.17795175,229.9850504,975.3839648
0.1700,-42.11096426,229.9454869,975.386247
0.1750,-42.05004263,229.9079293,975.3882738
0.1800,-41.9948742,229.8731835,975.3902298
0.1850,-41.94573019,229.8422135,975.3919622
0.1900,-41.90071858,229.8136453,975.3934745
0.1950,-41.86032836,229.7871656,975.3947131
0.2000,-41.82478533,229.7629785,975.3957019
0.2050,-41.79414664,229.7401307,975.3965307
0.2100,-41.76693725,229.7203563,975.3972181
0.2150,-41.74324115,229.7023024,975.3977868
0.2200,-41.72201919,229.6872662,975.3981872
0.2250,-41.7034769,229.6746514,975.3984957
0.2300,-41.68787962,229.6634602,975.3988553
0.2350,-41.67496874,229.6536674,975.3991745
0.2400,-41.66410396,229.645377,975.3994568
0.2450,-41.65689634,229.6386086,975.3997378
0.2500,-41.65210624,229.6317144,975.4000754
0.2550,-41.64961804,229.625268,975.4004149
0.2600,-41.6497621,229.6187887,975.40084
0.2650,-41.6511777,229.6125977,975.4013138
0.2700,-41.65468279,229.6056803,975.4017392
0.2750,-41.66065282,229.5995882,975.4023384
0.2800,-41.66956705,229.5926615,975.4030021
0.2850,-41.6807176,229.5855819,975.4036717
0.2900,-41.69360206,229.575991,975.4043665
0.2950,-41.70866904,229.5648441,975.405162
0.3000,-41.72567701,229.5521664,975.4059746
0.3050,-41.74444867,229.5383827,975.4068774
0.3100,-41.76546193,229.5218185,975.4076613
0.3150,-41.78832604,229.5038634,975.4084626
0.3200,-41.81370785,229.4858025,975.4092728
0.3250,-41.84097333,229.4653861,975.4101533
0.3300,-41.87062064,229.4438539,975.4109562
0.3350,-41.90224343,229.420756,975.4118654
0.3400,-41.93699941,229.3969467,975.4127496
0.3450,-41.97321754,229.3717321,975.4136112
0.3500,-42.01189151,229.3454567,975.4145467
0.3550,-42.05302216,229.3180033,975.4155035
0.3600,-42.09582637,229.289441,975.4164831
0.3650,-42.14052932,229.260411,975.4174783
0.3700,-42.18706894,229.2309672,975.4184915
0.3750,-42.2355929,229.2006241,975.419569
0.3800,-42.28558286,229.1702611,975.4206772
0.3850,-42.33733583,229.1388309,975.4218197
0.3900,-42.391388,229.1065062,975.422991
0.3950,-42.44689276,229.0736929,975.4241702
0.4000,-42.5042887,229.0400812,975.4254087
0.4050,-42.56215767,229.0064071,975.4266164
0.4100,-42.62116818,228.9734712,975.4278319
0.4150,-42.68103308,228.9397471,975.4289834
0.4200,-42.74219538,228.905127,975.4301358
0.4250,-42.8051184,228.871936,975.4313041
0.4300,-42.86899169,228.8391494,975.4324929
0.4350,-42.93304536,228.807383,975.4337793
0.4400,-42.99814731,228.7757568,975.4350395
0.4450,-43.06520175,228.7456782,975.4362578
0.4500,-43.13271308,228.7169593,975.4375088
0.4550,-43.19997324,228.6903385,975.4387379
0.4600,-43.267919,228.6659844,975.4399809
0.4650,-43.33702152,228.6439531,975.4411368
0.4700,-43.40637346,228.6236709,975.4423403
0.4750,-43.47607637,228.606623,975.4435947
0.4800,-43.54538309,228.5927333,975.4447476
0.4850,-43.61422339,228.5804255,975.4459501
0.4900,-43.68289106,228.5711423,975.4471539
0.4950,-43.75007279,228.5646278,975.4483787
0.5000,-43.81648545,228.5602154,975.44956
0.5050,-43.88125253,228.5577945,975.4506845
0.5100,-43.94469274,228.5572395,975.4516853
0.5150,-44.00664799,228.5582482,975.4527141
0.5200,-44.06706571,228.5600211,975.4536539
0.5250,-44.12548646,228.5625534,975.4546298
0.5300,-44.18182257,228.5665575,975.4555074
0.5350,-44.23673631,228.5714121,975.4563578
0.5400,-44.28974541,228.574931,975.457155
0.5450,-44.33884705,228.5778584,975.4578983
0.5500,-44.3859747,228.5804043,975.4585039
0.5550,-44.43248284,228.5827231,975.4591477
0.5600,-44.47706784,228.5844512,975.4597012
0.5650,-44.52032152,228.5862595,975.4602831
0.5700,-44.56251676,228.5884609,975.4609428
0.5750,-44.60180247,228.5902625,975.4616447
0.5800,-44.6384646,228.5920668,975.4623994
0.5850,-44.67257791,228.593512,975.4632931
0.5900,-44.70441586,228.5949798,975.4642541
0.5950,-44.73429281,228.5951821,975.4652747
0.6000,-44.76251339,228.5933791,975.4663061
0.6050,-44.78915693,228.5901746,975.4674012
0.6100,-44.8153441,228.5832794,975.4686853
0.6150,-44.84042208,228.5722619,975.4701163
0.6200,-44.8649287,228.5548387,975.4718435
0.6250,-44.89077741,228.5315919,975.4739069
0.6300,-44.91770465,228.5006316,975.4762378
0.6350,-44.9470589,228.4632316,975.4788668
0.6400,-44.9785774,228.416768,975.4818738
0.6450,-45.01513611,228.3616428,975.4854251
0.6500,-45.05590505,228.2959179,975.489452
0.6550,-45.10311735,228.2181968,975.4941476
0.6600,-45.15857992,228.1271504,975.4996702
0.6650,-45.22383895,228.0216657,975.5059795
0.6700,-45.30077445,227.9002964,975.5131961
0.6750,-45.39146725,227.7624169,975.5214145
0.6800,-45.49806623,227.6059024,975.5306214
0.6850,-45.62119474,227.431474,975.5410086
0.6900,-45.76062884,227.2385285,975.552579
0.6950,-45.91819624,227.0274135,975.5653608
0.7000,-46.09192653,226.7968429,975.5792218
0.7050,-46.28388235,226.5475653,975.5944013
0.7100,-46.49197423,226.2797499,975.6108233
0.7150,-46.71538399,225.9934568,975.628641
0.7200,-46.95392916,225.6871284,975.6478471
0.7250,-47.20875918,225.3596524,975.6685659
0.7300,-47.47778498,225.0100273,975.6908318
0.7350,-47.76344842,224.6375591,975.7148381
0.7400,-48.06596295,224.2441106,975.740758
0.7450,-48.38659866,223.8283823,975.7687392
0.7500,-48.72575082,223.3916406,975.7989296
0.7550,-49.08496931,222.9338773,975.8315259
0.7600,-49.46445431,222.4557645,975.8666181
0.7650,-49.86397266,221.9595802,975.9043007
0.7700,-50.28322196,221.4458539,975.9445255
0.7750,-50.7206553,220.9154588,975.9874195
0.7800,-51.17597304,220.3689202,976.0330306
0.7850,-51.64673047,219.8080088,976.0811903
0.7900,-52.13187737,219.234063,976.1318252
0.7950,-52.63020271,218.6486393,976.1848551
0.8000,-53.13738836,218.0534311,976.2401384
0.8050,-53.65308487,217.4504796,976.2974538
0.8100,-54.17360116,216.8402571,976.3565772
0.8150,-54.69543725,216.2261917,976.4171305
0.8200,-55.21590499,215.60923,976.4791006
0.8250,-55.73205042,214.9925595,976.5420646
0.8300,-56.24159849,214.3768295,976.6058004
0.8350,-56.7414076,213.7637691,976.6702002
0.8400,-57.22997988,213.1569452,976.735011
0.8450,-57.70781115,212.5574138,976.8002167
0.8500,-58.17239093,211.9662428,976.8656436
0.8550,-58.62136414,211.3852456,976.9310126
0.8600,-59.05681125,210.8144529,976.9965956
0.8650,-59.47924723,210.2548527,977.062022
0.8700,-59.88980337,209.7070318,977.1273337
0.8750,-60.29192117,209.1714237,977.1924733
0.8800,-60.68382423,208.6479063,977.2572699
0.8850,-61.07027125,208.137815,977.3218092
0.8900,-61.45114027,207.6401192,977.3860602
0.8950,-61.82796952,207.1551652,977.4498369
0.9000,-62.2016384,206.6851971,977.5132712
0.9050,-62.57375475,206.2284609,977.5760747
0.9100,-62.9445004,205.785628,977.6381823
0.9150,-63.31446361,205.3566731,977.6993681
0.9200,-63.68363588,204.9410964,977.7593041
0.9250,-64.05150977,204.5383823,977.8180292
0.9300,-64.41886087,204.1499764,977.8754918
0.9350,-64.78435274,203.7726015,977.9316002
0.9400,-65.14775666,203.4081905,977.9863101
0.9450,-65.50811701,203.0556369,978.0394557
0.9500,-65.86621652,202.7152629,978.0908546
0.9550,-66.22069984,202.3872835,978.1405453
0.9600,-66.57103475,202.072201,978.1882166
0.9650,-66.91572958,201.7695139,978.2338523
0.9700,-67.25462363,201.4809669,978.2773834
0.9750,-67.58573283,201.2046896,978.3187459
0.9800,-67.90924297,200.9422315,978.3579635
0.9850,-68.2246184,200.6922054,978.3950904
0.9900,-68.53264013,200.4540826,978.430416
0.9950,-68.8340192,200.2266224,978.4639636
1.0000,-69.13061568,200.010183,978.4961475
1.0050,-69.42209735,199.8027988,978.5271175
1.0100,-69.71078275,199.6051679,978.5571059
1.0150,-69.99745742,199.417024,978.5860712
1.0200,-70.28284683,199.2385545,978.6143121
1.0250,-70.5661646,199.0686428,978.6417595
1.0300,-70.84860847,198.9078337,978.668604
1.0350,-71.12886926,198.7565332,978.6947527
1.0400,-71.40637861,198.6118519,978.7204107
1.0450,-71.67974983,198.4743137,978.7453697
1.0500,-71.94846674,198.3436884,978.7697175
1.0550,-72.21075261,198.2185467,978.7933785
1.0600,-72.46576346,198.0979741,978.816488
1.0650,-72.71342675,197.9814912,978.8390921
1.0700,-72.95281688,197.8684555,978.8611239
1.0750,-73.18342479,197.7585576,978.882645
1.0800,-73.40568487,197.6531654,978.9034254
1.0850,-73.61943031,197.5534998,978.9235688
1.0900,-73.82390634,197.4594348,978.9430449
1.0950,-74.0182851,197.3688597,978.9618463
1.1000,-74.20387155,197.2818212,978.9799139
1.1050,-74.37858832,197.1988818,978.9971607
1.1100,-74.54407139,197.1195666,979.0137939
1.1150,-74.70127305,197.0436301,979.0298351
1.1200,-74.84987796,196.9711143,979.0451234
1.1250,-74.9913614,196.9014442,979.0598255
1.1300,-75.12657094,196.8351484,979.0738982
1.1350,-75.25463686,196.7728045,979.0871156
1.1400,-75.37699078,196.7131212,979.099596
1.1450,-75.49167997,196.6573032,979.1111892
1.1500,-75.59992896,196.6048882,979.1218818
1.1550,-75.7031282,196.555839,979.1318423
1.1600,-75.79978154,196.5103331,979.1407969
1.1650,-75.89056951,196.4672219,979.1489573
1.1700,-75.97588919,196.4269942,979.1564345
1.1750,-76.05503796,196.3894407,979.1632379
1.1800,-76.13136248,196.3561596,979.1695563
1.1850,-76.20344109,196.3253235,979.1754092
1.1900,-76.27210243,196.2986634,979.1808815
1.1950,-76.33895542,196.2768902,979.1861893
1.2000,-76.40328495,196.2590846,979.1911606
1.2050,-76.465419,196.2444491,979.196144
1.2100,-76.52451472,196.2345299,979.2010035
1.2150,-76.58162282,196.2288161,979.2057118
1.2200,-76.63654796,196.2280042,979.2104291
1.2250,-76.68941727,196.2318559,979.2150805
1.2300,-76.73995045,196.2392799,979.2196946
1.2350,-76.78886906,196.2519019,979.2241266
1.2400,-76.83582559,196.2684055,979.2283909
1.2450,-76.88154153,196.2889398,979.2323544
1.2500,-76.92589432,196.3126158,979.2363563
1.2550,-76.96930276,196.341169,979.2398676
1.2600,-77.01265079,196.3720106,979.2432796
1.2650,-77.05675314,196.4072698,979.2465229
1.2700,-77.10177402,196.4448922,979.2497534
1.2750,-77.14901259,196.486332,979.2527973
1.2800,-77.19791437,196.5304956,979.255742
1.2850,-77.2479531,196.5777885,979.2583569
1.2900,-77.30018108,196.6290508,979.2604468
1.2950,-77.35398719,196.6838242,979.2622664
1.3000,-77.40898465,196.7419197,979.263476
1.3050,-77.46558418,196.8040838,979.2638832
1.3100,-77.52278061,196.8689318,979.2635366
1.3150,-77.58192449,196.9358207,979.2625741
1.3200,-77.64081776,197.0057147,979.260655
1.3250,-77.69882804,197.0778101,979.2580068
1.3300,-77.75637707,197.1523086,979.2545609
1.3350,-77.81348752,197.2294181,979.2501416
1.3400,-77.86875554,197.3089065,979.2448003
1.3450,-77.92185479,197.390956,979.2385955
1.3500,-77.97271229,197.4745222,979.2314833
1.3550,-78.02109148,197.5616465,979.2235557
1.3600,-78.06636377,197.6519738,979.2146739
1.3650,-78.10747514,197.746291,979.2047673
1.3700,-78.14450835,197.8443316,979.1940229
1.3750,-78.17812719,197.9472919,979.1822745
1.3800,-78.20746028,198.0530991,979.1699008
1.3850,-78.23121872,198.1602447,979.1567296
1.3900,-78.25120462,198.2689385,979.1429312
1.3950,-78.26661866,198.3812671,979.128315
1.4000,-78.27843861,198.4960632,979.1130924
1.4050,-78.28643873,198.6118867,979.0971733
1.4100,-78.29075776,198.7296784,979.0805071
1.4150,-78.29094896,198.8473249,979.0632469
1.4200,-78.28792228,198.9654112,979.0454005
1.4250,-78.28164434,199.0834938,979.0269703
1.4300,-78.27188363,199.2010389,979.0080076
1.4350,-78.25949826,199.3179239,978.9885358
1.4400,-78.24394349,199.4341009,978.9687251
1.4450,-78.22473317,199.5474329,978.9485823
1.4500,-78.20232294,199.6597898,978.9282279
1.4550,-78.17588334,199.7703898,978.907747
1.4600,-78.14765431,199.8785088,978.8873228
1.4650,-78.11649735,199.9843132,978.867015
1.4700,-78.08364712,200.0875399,978.8468597
1.4750,-78.04845644,200.1880703,978.8269231
1.4800,-78.01093754,200.2851358,978.8074314
1.4850,-77.97160863,200.3797593,978.788344
1.4900,-77.93067485,200.4707557,978.7697366
1.4950,-77.88707355,200.5579048,978.751664
1.5000,-77.84147551,200.6414772,978.734214
1.5050,-77.79451316,200.7217531,978.7173013
1.5100,-77.74691419,200.7984423,978.7010429
1.5150,-77.69839424,200.8721103,978.6856515
1.5200,-77.64779817,200.9425078,978.6708292
1.5250,-77.59614748,201.0104841,978.6566827
1.5300,-77.54255962,201.0757263,978.643002
1.5350,-77.48618269,201.1381231,978.6299821
1.5400,-77.42744495,201.1976428,978.6173873
1.5450,-77.36563142,201.2541814,978.6052825
1.5500,-77.30097121,201.3079587,978.5934649
1.5550,-77.23259382,201.3584533,978.5821744
1.5600,-77.16000164,201.4077087,978.571242
1.5650,-77.08337742,201.4541944,978.560732
1.5700,-77.00167991,201.4995207,978.5503466
1.5750,-76.91402241,201.5433815,978.5401554
1.5800,-76.82115202,201.5865532,978.5300331
1.5850,-76.72366683,201.629573,978.5200123
1.5900,-76.61909409,201.6716652,978.5100306
1.5950,-76.50836126,201.713409,978.4999616
1.6000,-76.39263355,201.7554536,978.4899064
1.6050,-76.27121582,201.7970405,978.4797245
1.6100,-76.14405743,201.8396946,978.4691888
1.6150,-76.01177754,201.8848526,978.4581529
1.6200,-75.87554854,201.9309805,978.4467293
1.6250,-75.735363,201.9790463,978.4345633
1.6300,-75.59099432,202.0288064,978.4216302
1.6350,-75.44374419,202.0792359,978.4080484
1.6400,-75.29433547,202.1317594,978.3936252
1.6450,-75.14266901,202.1870608,978.3782584
1.6500,-74.99009575,202.2459363,978.3620514
1.6550,-74.8364928,202.307699,978.34481
1.6600,-74.68277402,202.3739092,978.3265908
1.6650,-74.52899153,202.4432224,978.3074301
1.6700,-74.3757865,202.5157941,978.2873751
1.6750,-74.22263052,202.591518,978.2664852
1.6800,-74.06939068,202.6704824,978.244728
1.6850,-73.91873965,202.7526299,978.2224438
1.6900,-73.76948398,202.8374245,978.1997458
1.6950,-73.62255897,202.9227043,978.1767695
1.7000,-73.47757342,203.009918,978.1536297
1.7050,-73.33555614,203.0977648,978.1304722
1.7100,-73.19724521,203.1861642,978.1075553
1.7150,-73.06391074,203.2757093,978.0849604
1.7200,-72.93469669,203.3654092,978.0627546
1.7250,-72.80989793,203.4545451,978.0410846
1.7300,-72.69029855,203.5415837,978.0202717
1.7350,-72.57596763,203.6285541,978.0002659
1.7400,-72.46836934,203.7136474,977.9812404
1.7450,-72.36906239,203.7979528,977.963258
1.7500,-72.27738907,203.8803285,977.946342
1.7550,-72.19406535,203.959504,977.9306345
1.7600,-72.1171325,204.0364746,977.9160141
1.7650,-72.04743712,204.1114514,977.9025598
1.7700,-71.98249793,204.1836959,977.890176
1.7750,-71.92427382,204.2539572,977.8790318
1.7800,-71.86988278,204.3219805,977.8689879
1.7850,-71.81775219,204.3882163,977.860049
1.7900,-71.76737652,204.453621,977.8521285
1.7950,-71.71749485,204.5186936,977.8450368
1.8000,-71.66672069,204.5826854,977.8388889
1.8050,-71.6127605,204.6467444,977.833471
1.8100,-71.55429955,204.7104896,977.828701
1.8150,-71.49094289,204.7743753,977.8244708
1.8200,-71.42350934,204.8380059,977.8209063
1.8250,-71.34944287,204.9016023,977.8177003
1.8300,-71.26975185,204.9648769,977.8150719
1.8350,-71.18578454,205.0277083,977.8128724
1.8400,-71.09715886,205.0903402,977.8110111
1.8450,-71.00440797,205.1530097,977.809493
1.8500,-70.90808663,205.2167326,977.8082189
1.8550,-70.81052448,205.2804145,977.807059
1.8600,-70.71293869,205.3442601,977.8060023
1.8650,-70.61421111,205.4080035,977.8047908
1.8700,-70.51685457,205.4722738,977.8034745
1.8750,-70.42207423,205.5360248,977.8021229
1.8800,-70.33075323,205.599846,977.8004383
1.8850,-70.24261118,205.6625224,977.7984261
1.8900,-70.15942315,205.7231415,977.7959757
1.8950,-70.08160019,205.7834687,977.7928752
1.9000,-70.00756129,205.8424539,977.7891056
1.9050,-69.93747602,205.9001628,977.7848549
1.9100,-69.87304304,205.9554735,977.7800902
1.9150,-69.81100581,206.0079366,977.7747366
1.9200,-69.7516027,206.0577685,977.7687353
1.9250,-69.69565877,206.1067184,977.7622564
1.9300,-69.64372573,206.1543851,977.7553354
1.9350,-69.59356604,206.2029243,977.7479196
1.9400,-69.54466036,206.2514219,977.7400664
1.9450,-69.49776256,206.3011744,977.7319119
1.9500,-69.45190572,206.35158,977.7234196
1.9550,-69.40725589,206.402429,977.7147826
1.9600,-69.3643758,206.4543092,977.7060887
1.9650,-69.32339076,206.5061726,977.6974843
1.9700,-69.28427673,206.5590352,977.6889663
1.9750,-69.24767384,206.6122005,977.6806631
1.9800,-69.21484734,206.6662487,977.672754
1.9850,-69.1840564,206.7213986,977.6649427
1.9900,-69.15659831,206.7764283,977.6572865
1.9950,-69.13306791,206.8325819,977.649956
2.0000,-69.11368222,206.8872841,977.6429023
2.0050,-69.09950625,206.9413039,977.6363111
2.0100,-69.08898532,206.9943362,977.6300893
2.0150,-69.0828073,207.0446889,977.6241389
2.0200,-69.08126369,207.092066,977.6186682
2.0250,-69.08346914,207.1358573,977.6135446
2.0300,-69.08908702,207.1767481,977.608685
2.0350,-69.09765736,207.2121935,977.6041254
2.0400,-69.10761479,207.2430448,977.5998138
2.0450,-69.11823325,207.2694477,977.595706
2.0500,-69.12893319,207.2898251,977.5919229
2.0550,-69.13948353,207.3063168,977.5882248
2.0600,-69.14902757,207.3182113,977.5848658
2.0650,-69.15816755,207.3255778,977.5817982
2.0700,-69.16682452,207.3289711,977.5790079
2.0750,-69.17355346,207.3278871,977.576535
2.0800,-69.17936493,207.3236715,977.5743122
2.0850,-69.18350145,207.3156094,977.5724287
2.0900,-69.18736287,207.3039814,977.5708414
2.0950,-69.18895354,207.289258,977.5695002
2.1000,-69.18953725,207.2723385,977.5683073
2.1050,-69.18944404,207.2527682,977.5674099
2.1100,-69.1883715,207.2309732,977.5666784
2.1150,-69.18589757,207.2063294,977.5660643
2.1200,-69.18177142,207.1801852,977.5654303
2.1250,-69.17676679,207.1518441,977.5649404
2.1300,-69.17107942,207.1228486,977.5642971
2.1350,-69.16338976,207.0936639,977.563346
2.1400,-69.1544102,207.0640352,977.5623294
2.1450,-69.14373973,207.0337805,977.5610832
2.1500,-69.13094675,207.0021398,977.559712
2.1550,-69.1152134,206.9686569,977.5581868
2.1600,-69.09631641,206.9333893,977.5564884
2.1650,-69.07517492,206.8961549,977.5548429
2.1700,-69.0516605,206.8559727,977.5533466
2.1750,-69.02687939,206.8134417,977.5519592
2.1800,-69.00156755,206.7683605,977.5507923
2.1850,-68.97665928,206.7225983,977.5498636
2.1900,-68.95178355,206.6765745,977.5492963
2.1950,-68.92681796,206.6292182,977.5491989
2.2000,-68.9020692,206.5797167,977.5495257
2.2050,-68.87743128,206.5287269,977.5501838
2.2100,-68.85215027,206.4764134,977.551249
2.2150,-68.8281164,206.4222994,977.5527388
2.2200,-68.80433729,206.3658622,977.5545573
2.2250,-68.78192065,206.3062665,977.5569151
2.2300,-68.76041403,206.2445263,977.5597075
2.2350,-68.74028334,206.1791479,977.5629916
2.2400,-68.72290716,206.1108901,977.5667519
2.2450,-68.70725516,206.037071,977.5712173
2.2500,-68.69439783,205.9583493,977.5764003
2.2550,-68.6845547,205.8753947,977.5823409
2.2600,-68.6782084,205.7866919,977.5891356
2.2650,-68.67650923,205.6931946,977.5969325
