type,name,time_units,begin_time,frequency,count,units
signal,"Noraxon MyoMotion-Segments-Forearm RT-Pitch","s",0.0000,200,5348,"deg"

time,value
0.0000,-2.166827053
0.0050,-2.168616796
0.0100,-2.170406188
0.0150,-2.172195232
0.0200,-2.174075403
0.0250,-2.176025591
0.0300,-2.178022915
0.0350,-2.180043279
0.0400,-2.182061052
0.0450,-2.184048293
0.0500,-2.185974547
0.0550,-2.187807902
0.0600,-2.189516939
0.0650,-2.191072431
0.0700,-2.192447828
0.0750,-2.193618767
0.0800,-2.194563098
0.0850,-2.195262013
0.0900,-2.195701241
0.0950,-2.195871846
0.1000,-2.195770807
0.1050,-2.195401269
0.1100,-2.194772684
0.1150,-2.193900911
0.1200,-2.192807633
0.1250,-2.191519343
0.1300,-2.190066569
0.1350,-2.188483045
0.1400,-2.18680509
0.1450,-2.185071829
0.1500,-2.183325474
0.1550,-2.181369172
0.1600,-2.17937244
0.1650,-2.177370704
0.1700,-2.175358072
0.1750,-2.173401653
0.1800,-2.171400259
0.1850,-2.169618125
0.1900,-2.167973181
0.1950,-2.166553063
0.2000,-2.165269997
0.2050,-2.16393835
0.2100,-2.162736037
0.2150,-2.161640429
0.2200,-2.160842893
0.2250,-2.160167143
0.2300,-2.159370889
0.2350,-2.158599196
0.2400,-2.157842822
0.2450,-2.157008684
0.2500,-2.155925135
0.2550,-2.154732604
0.2600,-2.153284009
0.2650,-2.151701436
0.2700,-2.150025772
0.2750,-2.148058855
0.2800,-2.145776467
0.2850,-2.143325804
0.2900,-2.140473915
0.2950,-2.137149017
0.3000,-2.13349028
0.3050,-2.129461519
0.3100,-2.125114429
0.3150,-2.120470446
0.3200,-2.115591667
0.3250,-2.110245857
0.3300,-2.104733585
0.3350,-2.09877978
0.3400,-2.092609771
0.3450,-2.086156301
0.3500,-2.079382737
0.3550,-2.072325519
0.3600,-2.065003384
0.3650,-2.057505846
0.3700,-2.049839917
0.3750,-2.041916268
0.3800,-2.033853234
0.3850,-2.025611583
0.3900,-2.017214645
0.3950,-2.008756488
0.4000,-2.000104462
0.4050,-1.991466267
0.4100,-1.982862188
0.4150,-1.974279164
0.4200,-1.965583791
0.4250,-1.956927225
0.4300,-1.948269167
0.4350,-1.939596804
0.4400,-1.93096058
0.4450,-1.922535543
0.4500,-1.914183616
0.4550,-1.90603307
0.4600,-1.898124775
0.4650,-1.890539281
0.4700,-1.883127365
0.4750,-1.87596555
0.4800,-1.86926152
0.4850,-1.862720862
0.4900,-1.856550242
0.4950,-1.850699172
0.5000,-1.845246941
0.5050,-1.840215897
0.5100,-1.835663327
0.5150,-1.831351804
0.5200,-1.827435385
0.5250,-1.823753301
0.5300,-1.820484392
0.5350,-1.817476827
0.5400,-1.814615452
0.5450,-1.812043211
0.5500,-1.809786005
0.5550,-1.807602964
0.5600,-1.805625322
0.5650,-1.803725257
0.5700,-1.801805864
0.5750,-1.799970532
0.5800,-1.798242053
0.5850,-1.796466771
0.5900,-1.794765319
0.5950,-1.793041239
0.6000,-1.791246586
0.6050,-1.789371007
0.6100,-1.787029319
0.6150,-1.784215176
0.6200,-1.780564956
0.6250,-1.776001497
0.6300,-1.77045013
0.6350,-1.763903309
0.6400,-1.756045386
0.6450,-1.74667769
0.6500,-1.735692014
0.6550,-1.722731946
0.6600,-1.707461403
0.6650,-1.689777447
0.6700,-1.669357533
0.6750,-1.645978794
0.6800,-1.619379484
0.6850,-1.58938283
0.6900,-1.555932728
0.6950,-1.518947282
0.7000,-1.478574975
0.7050,-1.434624444
0.7100,-1.387276495
0.7150,-1.336368295
0.7200,-1.28192068
0.7250,-1.223701257
0.7300,-1.161682706
0.7350,-1.095528489
0.7400,-1.025207923
0.7450,-0.9504049551
0.7500,-0.8711175246
0.7550,-0.7871873682
0.7600,-0.6985599862
0.7650,-0.6053708631
0.7700,-0.5077918635
0.7750,-0.4059285329
0.7800,-0.2998015704
0.7850,-0.1898601689
0.7900,-0.0764076198
0.7950,0.04031893881
0.8000,0.159889862
0.8050,0.281844251
0.8100,0.4057297758
0.8150,0.5308070952
0.8200,0.6569106697
0.8250,0.7832917397
0.8300,0.9095403088
0.8350,1.035405789
0.8400,1.160335055
0.8450,1.28423599
0.8500,1.406836574
0.8550,1.527651293
0.8600,1.646970059
0.8650,1.764346113
0.8700,1.879762465
0.8750,1.993264257
0.8800,2.104645811
0.8850,2.214007088
0.8900,2.321363977
0.8950,2.426568195
0.9000,2.529662622
0.9050,2.630474746
0.9100,2.72888793
0.9150,2.824741667
0.9200,2.917763826
0.9250,3.008031097
0.9300,3.095482096
0.9350,3.180163401
0.9400,3.26197629
0.9450,3.340839151
0.9500,3.41659765
0.9550,3.489350624
0.9600,3.558781544
0.9650,3.624926413
0.9700,3.687700207
0.9750,3.747134589
0.9800,3.803219911
0.9850,3.856107238
0.9900,3.906135207
0.9950,3.953387325
1.0000,3.998321162
1.0050,4.041178447
1.0100,4.082247888
1.0150,4.121537999
1.0200,4.159359937
1.0250,4.1957272
1.0300,4.230830182
1.0350,4.264598778
1.0400,4.297341336
1.0450,4.328846376
1.0500,4.359215114
1.0550,4.388448425
1.0600,4.416707452
1.0650,4.444086432
1.0700,4.470548438
1.0750,4.496200536
1.0800,4.520801052
1.0850,4.544428884
1.0900,4.5670804
1.0950,4.588799815
1.1000,4.609541108
1.1050,4.629212599
1.1100,4.648038903
1.1150,4.666065991
1.1200,4.683139557
1.1250,4.69947265
1.1300,4.715019087
1.1350,4.729531147
1.1400,4.743180939
1.1450,4.755807115
1.1500,4.767379013
1.1550,4.778095484
1.1600,4.787714189
1.1650,4.796464669
1.1700,4.804467553
1.1750,4.81173205
1.1800,4.818412524
1.1850,4.824608667
1.1900,4.830363799
1.1950,4.83585518
1.2000,4.840971946
1.2050,4.846075917
1.2100,4.851028736
1.2150,4.855814094
1.2200,4.860565721
1.2250,4.865231643
1.2300,4.869868543
1.2350,4.874290396
1.2400,4.878546176
1.2450,4.882514135
1.2500,4.886510076
1.2550,4.889973832
1.2600,4.893361465
1.2650,4.896532557
1.2700,4.899664761
1.2750,4.902539323
1.2800,4.90526984
1.2850,4.907607536
1.2900,4.909332052
1.2950,4.910702002
1.3000,4.911374921
1.3050,4.911144045
1.3100,4.910068697
1.3150,4.90826978
1.3200,4.905429483
1.3250,4.901753711
1.3300,4.897194763
1.3350,4.891559547
1.3400,4.884882552
1.3450,4.877239832
1.3500,4.868624698
1.3550,4.859042158
1.3600,4.848383149
1.3650,4.836560014
1.3700,4.823749654
1.3750,4.809757481
1.3800,4.794994965
1.3850,4.7793435
1.3900,4.762954273
1.3950,4.745580197
1.4000,4.727448696
1.4050,4.708517697
1.4100,4.688709431
1.4150,4.668215146
1.4200,4.647026844
1.4250,4.625146015
1.4300,4.602626785
1.4350,4.579517752
1.4400,4.555958569
1.4450,4.532050583
1.4500,4.507857259
1.4550,4.483478733
1.4600,4.459128455
1.4650,4.434853602
1.4700,4.410728982
1.4750,4.386816
1.4800,4.363375442
1.4850,4.340350282
1.4900,4.31785836
1.4950,4.295974785
1.5000,4.274780755
1.5050,4.254167902
1.5100,4.234262389
1.5150,4.215284416
1.5200,4.196949345
1.5250,4.179342334
1.5300,4.162288065
1.5350,4.145993602
1.5400,4.130232965
1.5450,4.11508474
1.5500,4.100373858
1.5550,4.086355632
1.5600,4.072797859
1.5650,4.059817961
1.5700,4.047103544
1.5750,4.034708061
1.5800,4.022485904
1.5850,4.010456233
1.5900,3.998540151
1.5950,3.986608393
1.6000,3.974698034
1.6050,3.962711661
1.6100,3.950328891
1.6150,3.937350809
1.6200,3.92389925
1.6250,3.909555012
1.6300,3.894279758
1.6350,3.878199114
1.6400,3.861057967
1.6450,3.842695609
1.6500,3.82317856
1.6550,3.802340103
1.6600,3.780194313
1.6650,3.756794952
1.6700,3.732207484
1.6750,3.706462327
1.6800,3.679552722
1.6850,3.651829688
1.6900,3.62340798
1.6950,3.594525987
1.7000,3.565222162
1.7050,3.535728075
1.7100,3.506313817
1.7150,3.477056726
1.7200,3.448045275
1.7250,3.419423939
1.7300,3.391616007
1.7350,3.364479409
1.7400,3.338298833
1.7450,3.313106492
1.7500,3.288958613
1.7550,3.266104639
1.7600,3.244383891
1.7650,3.223952282
1.7700,3.204705671
1.7750,3.186887183
1.7800,3.170375323
1.7850,3.155185562
1.7900,3.141276065
1.7950,3.128448716
1.8000,3.116894015
1.8050,3.106411211
1.8100,3.09693194
1.8150,3.088291233
1.8200,3.080666091
1.8250,3.073750045
1.8300,3.067712015
1.8350,3.062369416
1.8400,3.057621718
1.8450,3.053413185
1.8500,3.049523967
1.8550,3.045849641
1.8600,3.042333061
1.8650,3.038690676
1.8700,3.03490293
1.8750,3.031106813
1.8800,3.026911592
1.8850,3.022367159
1.8900,3.017444908
1.8950,3.011808152
1.9000,3.005520663
1.9050,2.998731061
1.9100,2.991494304
1.9150,2.983727248
1.9200,2.975383232
1.9250,2.96661778
1.9300,2.95744554
1.9350,2.947760303
1.9400,2.937670432
1.9450,2.927267411
1.9500,2.916565263
1.9550,2.905785556
1.9600,2.894981455
1.9650,2.884363854
1.9700,2.873889248
1.9750,2.863747169
1.9800,2.854056261
1.9850,2.844533189
1.9900,2.835272521
1.9950,2.826397978
2.0000,2.818003491
2.0050,2.810220665
2.0100,2.802939549
2.0150,2.796133669
2.0200,2.790039831
2.0250,2.784548971
2.0300,2.779529442
2.0350,2.775089919
2.0400,2.771116575
2.0450,2.767508054
2.0500,2.764474588
2.0550,2.761625854
2.0600,2.759269297
2.0650,2.757300488
2.0700,2.75571213
2.0750,2.754520036
2.0800,2.753632506
2.0850,2.753129377
2.0900,2.752958362
2.0950,2.753062546
2.1000,2.753296968
2.1050,2.753815988
2.1100,2.754483268
2.1150,2.755265383
2.1200,2.755991164
2.1250,2.756823674
2.1300,2.757411866
2.1350,2.757599769
2.1400,2.75759824
2.1450,2.757259944
2.1500,2.756691147
2.1550,2.755871575
2.1600,2.754781976
2.1650,2.753620791
2.1700,2.752551641
2.1750,2.751528295
2.1800,2.750702661
2.1850,2.750011341
2.1900,2.74957686
2.1950,2.749553565
2.2000,2.749917034
2.2050,2.75058814
2.2100,2.751598457
2.2150,2.753032957
2.2200,2.754802423
2.2250,2.757146991
2.2300,2.759979015
2.2350,2.76339647
2.2400,2.767360067
2.2450,2.772195803
2.2500,2.777854895
2.2550,2.784356015
2.2600,2.79189154
2.2650,2.800586252
2.2700,2.810493663
2.2750,2.821797509
2.2800,2.834524273
2.2850,2.848849093
2.2900,2.864965733
2.2950,2.882972911
2.3000,2.90276533
2.3050,2.924297393
2.3100,2.947664408
2.3150,2.972857763
2.3200,2.99958597
2.3250,3.027850486
2.3300,3.057292527
2.3350,3.087931755
2.3400,3.119424266
2.3450,3.151600802
2.3500,3.184066258
2.3550,3.216704112
2.3600,3.249202445
2.3650,3.281496382
2.3700,3.31354766
2.3750,3.345026174
2.3800,3.376076011
2.3850,3.406320254
2.3900,3.43585448
2.3950,3.464721047
2.4000,3.492828926
2.4050,3.520210277
2.4100,3.546754623
2.4150,3.572692131
2.4200,3.597927395
2.4250,3.622599945
2.4300,3.647008501
2.4350,3.671301659
2.4400,3.695431522
2.4450,3.719556612
2.4500,3.743810074
2.4550,3.768201649
2.4600,3.792820315
2.4650,3.817786926
2.4700,3.842974686
2.4750,3.868389641
2.4800,3.894180101
2.4850,3.920539975
2.4900,3.947326807
2.4950,3.974633546
2.5000,4.002463141
2.5050,4.030605542
2.5100,4.059188552
2.5150,4.088339897
2.5200,4.117953754
2.5250,4.147776123
2.5300,4.177659749
2.5350,4.207640791
2.5400,4.237582899
2.5450,4.267351344
2.5500,4.296818663
2.5550,4.325912836
2.5600,4.354549993
2.5650,4.382689149
2.5700,4.410121497
2.5750,4.43692169
2.5800,4.462869076
2.5850,4.488152961
2.5900,4.512621615
2.5950,4.536203462
2.6000,4.559088436
2.6050,4.58129559
2.6100,4.602640409
2.6150,4.62309063
2.6200,4.642853076
2.6250,4.661607372
2.6300,4.679519575
2.6350,4.696552196
2.6400,4.712598349
2.6450,4.727836732
2.6500,4.742253804
2.6550,4.75589703
2.6600,4.76863642
2.6650,4.780624372
2.6700,4.791708803
2.6750,4.801944759
2.6800,4.811215797
2.6850,4.819751597
2.6900,4.827622496
2.6950,4.834906128
2.7000,4.841747392
2.7050,4.848177136
2.7100,4.854428755
2.7150,4.860499407
2.7200,4.866677309
2.7250,4.873019207
2.7300,4.879417249
2.7350,4.886119141
2.7400,4.893145146
2.7450,4.900548281
2.7500,4.908467834
2.7550,4.916775288
2.7600,4.925618206
2.7650,4.93479542
2.7700,4.944465469
2.7750,4.954581797
2.7800,4.965053141
2.7850,4.975942677
2.7900,4.987255653
2.7950,4.999004152
2.8000,5.011012802
2.8050,5.023643749
2.8100,5.036729313
2.8150,5.050232289
2.8200,5.064182329
2.8250,5.07851888
2.8300,5.093400427
2.8350,5.108577096
2.8400,5.12419289
2.8450,5.139993253
2.8500,5.156024405
2.8550,5.172215893
2.8600,5.188343561
2.8650,5.20448507
2.8700,5.220497133
2.8750,5.236322268
2.8800,5.251941036
2.8850,5.267300477
2.8900,5.282377947
2.8950,5.297112934
2.9000,5.311555538
2.9050,5.325757767
2.9100,5.339863587
2.9150,5.353902987
2.9200,5.367806247
2.9250,5.381813484
2.9300,5.395901853
2.9350,5.410036914
2.9400,5.424455792
2.9450,5.43908977
2.9500,5.454006109
2.9550,5.46935208
2.9600,5.485248548
2.9650,5.501578956
2.9700,5.518374472
2.9750,5.535760221
2.9800,5.55373485
2.9850,5.572210053
2.9900,5.591068183
2.9950,5.610206608
3.0000,5.629751392
3.0050,5.649397224
3.0100,5.669334542
3.0150,5.689662731
3.0200,5.710257046
3.0250,5.731291435
3.0300,5.752794421
3.0350,5.775040818
3.0400,5.798249402
3.0450,5.822614873
3.0500,5.848184783
3.0550,5.87528803
3.0600,5.903878889
3.0650,5.934047642
3.0700,5.965948293
3.0750,5.999647647
3.0800,6.035360144
3.0850,6.072935685
3.0900,6.112558016
3.0950,6.154433927
3.1000,6.198667369
3.1050,6.245223763
3.1100,6.294206773
3.1150,6.345553737
3.1200,6.399401291
3.1250,6.455769733
3.1300,6.514643182
3.1350,6.575869686
3.1400,6.639593537
3.1450,6.705915724
3.1500,6.774950405
3.1550,6.84684992
3.1600,6.921776893
3.1650,6.999966114
3.1700,7.081876654
3.1750,7.16756026
3.1800,7.257421087
3.1850,7.351440554
3.1900,7.449878322
3.1950,7.552930136
3.2000,7.660483827
3.2050,7.772563612
3.2100,7.889084903
3.2150,8.010138252
3.2200,8.135922884
3.2250,8.266361089
3.2300,8.401716992
3.2350,8.541846565
3.2400,8.686593754
3.2450,8.835833831
3.2500,8.989510716
3.2550,9.147411433
3.2600,9.309350053
3.2650,9.475115709
3.2700,9.64465505
3.2750,9.817635015
3.2800,9.993775616
3.2850,10.17318647
3.2900,10.35557016
3.2950,10.54091431
3.3000,10.72903781
3.3050,10.92015025
3.3100,11.11413895
3.3150,11.31103055
3.3200,11.51081939
3.3250,11.71332582
3.3300,11.91870588
3.3350,12.12641813
3.3400,12.3365478
3.3450,12.54888843
3.3500,12.76326496
3.3550,12.97971275
3.3600,13.19805492
3.3650,13.41845732
3.3700,13.64079029
3.3750,13.86509057
3.3800,14.09133421
3.3850,14.31949516
3.3900,14.5494822
3.3950,14.78108043
3.4000,15.0143077
3.4050,15.2489076
3.4100,15.48468231
3.4150,15.72165111
3.4200,15.95954712
3.4250,16.19832496
3.4300,16.43790619
3.4350,16.67839008
3.4400,16.91945832
3.4450,17.16106306
3.4500,17.40325395
3.4550,17.64581191
3.4600,17.88880883
3.4650,18.13185779
3.4700,18.37474177
3.4750,18.61729985
3.4800,18.85937313
3.4850,19.10102931
3.4900,19.34198363
3.4950,19.58208578
3.5000,19.82133842
3.5050,20.05977023
3.5100,20.29729488
3.5150,20.53372603
3.5200,20.76874104
3.5250,21.00223829
3.5300,21.2339149
3.5350,21.46399031
3.5400,21.69225907
3.5450,21.91857821
3.5500,22.14289425
3.5550,22.36529714
3.5600,22.58569109
3.5650,22.80412562
3.5700,23.02030869
3.5750,23.23436421
3.5800,23.44637201
3.5850,23.65609185
3.5900,23.86364502
3.5950,24.06894935
3.6000,24.27198718
3.6050,24.47274258
3.6100,24.67128276
3.6150,24.86745769
3.6200,25.06155112
3.6250,25.25357276
3.6300,25.44360498
3.6350,25.63204391
3.6400,25.81863635
3.6450,26.00358726
3.6500,26.18696326
3.6550,26.36889441
3.6600,26.54960077
3.6650,26.72924021
3.6700,26.9079061
3.6750,27.08570358
3.6800,27.26264129
3.6850,27.43887306
3.6900,27.61431135
3.6950,27.78917931
3.7000,27.96355341
3.7050,28.13759354
3.7100,28.311299
3.7150,28.48443142
3.7200,28.65705452
3.7250,28.82902624
3.7300,29.00030366
3.7350,29.17042525
3.7400,29.33943301
3.7450,29.50701657
3.7500,29.67287746
3.7550,29.83724499
3.7600,29.99987662
3.7650,30.16055034
3.7700,30.31929633
3.7750,30.47589124
3.7800,30.62992974
3.7850,30.78121354
3.7900,30.92964437
3.7950,31.07514648
3.8000,31.21741183
3.8050,31.35627515
3.8100,31.49176987
3.8150,31.62409145
3.8200,31.75308283
3.8250,31.87880451
3.8300,32.00113984
3.8350,32.11986255
3.8400,32.23521086
3.8450,32.34711118
3.8500,32.4554984
3.8550,32.55995333
3.8600,32.66045654
3.8650,32.75668609
3.8700,32.84897759
3.8750,32.93733431
3.8800,33.02195702
3.8850,33.10302437
3.8900,33.18073955
3.8950,33.25521409
3.9000,33.32677588
3.9050,33.39557493
3.9100,33.46153965
3.9150,33.52477788
3.9200,33.58523789
3.9250,33.64299845
3.9300,33.69813643
3.9350,33.75063643
3.9400,33.80049735
3.9450,33.8477204
3.9500,33.89232263
3.9550,33.93426085
3.9600,33.97353598
3.9650,34.00972809
3.9700,34.04265204
3.9750,34.0722554
3.9800,34.09876267
3.9850,34.12225439
3.9900,34.14291856
3.9950,34.16078171
4.0000,34.17612939
4.0050,34.1893456
4.0100,34.20080329
4.0150,34.21050116
4.0200,34.21884904
4.0250,34.22585436
4.0300,34.23166593
4.0350,34.23672559
4.0400,34.24102198
4.0450,34.24463433
4.0500,34.24753793
4.0550,34.24947858
4.0600,34.25023317
4.0650,34.24948777
4.0700,34.24658089
4.0750,34.24136202
4.0800,34.23371401
4.0850,34.22318504
4.0900,34.20957315
4.0950,34.19239404
4.1000,34.17170132
4.1050,34.14747816
4.1100,34.11973333
4.1150,34.08841154
4.1200,34.05382346
4.1250,34.01620333
4.1300,33.97576352
4.1350,33.9327539
4.1400,33.88718494
4.1450,33.83938974
4.1500,33.78972564
4.1550,33.73835605
4.1600,33.68518619
4.1650,33.63035539
4.1700,33.57366666
4.1750,33.51540523
4.1800,33.45543779
4.1850,33.39370258
4.1900,33.33055254
4.1950,33.26632003
4.2000,33.20110716
4.2050,33.1350005
4.2100,33.06809907
4.2150,33.00050417
4.2200,32.93240035
4.2250,32.8637305
4.2300,32.79436298
4.2350,32.7242537
4.2400,32.65324073
4.2450,32.58121285
4.2500,32.50829821
4.2550,32.43441392
4.2600,32.35960078
4.2650,32.28433473
4.2700,32.20902711
4.2750,32.13359049
4.2800,32.05832946
4.2850,31.98320772
4.2900,31.90831904
4.2950,31.83335389
4.3000,31.75798353
4.3050,31.68179135
4.3100,31.60470297
4.3150,31.52700389
4.3200,31.44838307
4.3250,31.36881939
4.3300,31.28835275
4.3350,31.20711777
4.3400,31.12537695
4.3450,31.04328689
4.3500,30.9606083
4.3550,30.87736426
4.3600,30.79344124
4.3650,30.70892615
4.3700,30.6240955
4.3750,30.53855191
4.3800,30.45225132
4.3850,30.36501832
4.3900,30.27685692
4.3950,30.18795671
4.4000,30.09824899
4.4050,30.00792958
4.4100,29.91720461
4.4150,29.82611487
4.4200,29.73453577
4.4250,29.64266346
4.4300,29.55053265
4.4350,29.45835997
4.4400,29.36601617
4.4450,29.27317392
4.4500,29.17937704
4.4550,29.08455423
4.4600,28.98913319
4.4650,28.89330574
4.4700,28.79744639
4.4750,28.7013292
4.4800,28.60548339
4.4850,28.51016642
4.4900,28.41524241
4.4950,28.32075821
4.5000,28.22667913
4.5050,28.13278354
4.5100,28.03881674
4.5150,27.94459183
4.5200,27.84987639
4.5250,27.75490804
4.5300,27.65976265
4.5350,27.56453971
4.5400,27.46966601
4.5450,27.37534453
4.5500,27.28165986
4.5550,27.18861447
4.5600,27.09640475
4.5650,27.00478049
4.5700,26.91339302
4.5750,26.82241153
4.5800,26.73130326
4.5850,26.63990045
4.5900,26.54802253
4.5950,26.45561272
4.6000,26.36257864
4.6050,26.2690821
4.6100,26.17502681
4.6150,26.08032752
4.6200,25.98509141
4.6250,25.88957049
4.6300,25.79378399
4.6350,25.69765465
4.6400,25.6009158
4.6450,25.50332003
4.6500,25.40476215
4.6550,25.30507665
4.6600,25.20410687
4.6650,25.10159766
4.6700,24.99738987
4.6750,24.89168815
4.6800,24.78441451
4.6850,24.6759179
4.6900,24.56624658
4.6950,24.45537959
4.7000,24.34360238
4.7050,24.23086483
4.7100,24.11725124
4.7150,24.00258677
4.7200,23.88717942
4.7250,23.77065265
4.7300,23.6529641
4.7350,23.53407747
4.7400,23.41428468
4.7450,23.29363045
4.7500,23.17229434
4.7550,23.05070985
4.7600,22.92868021
4.7650,22.80637706
4.7700,22.68384431
4.7750,22.56123213
4.7800,22.43823919
4.7850,22.31436963
4.7900,22.18997293
4.7950,22.06457398
4.8000,21.93798781
4.8050,21.81039821
4.8100,21.68203626
4.8150,21.55306727
4.8200,21.42368045
4.8250,21.29368258
4.8300,21.16306701
4.8350,21.03189509
4.8400,20.90016265
4.8450,20.76810535
4.8500,20.63538077
4.8550,20.502023
4.8600,20.36783815
4.8650,20.23287703
4.8700,20.09725905
4.8750,19.960763
4.8800,19.82348892
4.8850,19.68534052
4.8900,19.54643951
4.8950,19.40695495
4.9000,19.26712775
4.9050,19.1268181
4.9100,18.98589729
4.9150,18.84445837
4.9200,18.70248708
4.9250,18.56009626
4.9300,18.41699882
4.9350,18.27314839
4.9400,18.12851595
4.9450,17.98322293
4.9500,17.83727263
4.9550,17.69058881
4.9600,17.54328926
4.9650,17.39562548
4.9700,17.24764239
4.9750,17.09930609
4.9800,16.95075032
4.9850,16.80197096
4.9900,16.65310917
4.9950,16.50436947
5.0000,16.35573743
5.0050,16.20731974
5.0100,16.05898723
5.0150,15.9111663
5.0200,15.76387548
5.0250,15.61728005
5.0300,15.47161029
5.0350,15.32687689
5.0400,15.18300136
5.0450,15.04007304
5.0500,14.8983259
5.0550,14.75748164
5.0600,14.61767099
5.0650,14.47888048
5.0700,14.34080052
5.0750,14.20346303
5.0800,14.06680007
5.0850,13.93107335
5.0900,13.79601684
5.0950,13.66190242
5.1000,13.52878376
5.1050,13.39676403
5.1100,13.26550489
5.1150,13.13515273
5.1200,13.00544131
5.1250,12.87635399
5.1300,12.74795909
5.1350,12.62020832
5.1400,12.49296079
5.1450,12.36619852
5.1500,12.24009615
5.1550,12.11485462
5.1600,11.99035347
5.1650,11.86658072
5.1700,11.74357989
5.1750,11.62124283
5.1800,11.49951349
5.1850,11.37849318
5.1900,11.25801217
5.1950,11.13805912
