type,name,time_units,begin_time,frequency,count,units
signal,"Noraxon MyoMotion-Joints-Elbow RT-Flexion","s",0.0000,200,5348,"deg"

time,value
0.0000,1.499587439
0.0050,1.499776406
0.0100,1.499968092
0.0150,1.500162497
0.0200,1.500345851
0.0250,1.50051762
0.0300,1.500678103
0.0350,1.500827849
0.0400,1.500967644
0.0450,1.501099477
0.0500,1.501228344
0.0550,1.501364074
0.0600,1.501521921
0.0650,1.501721844
0.0700,1.501987896
0.0750,1.502347725
0.0800,1.502830513
0.0850,1.503463875
0.0900,1.504271793
0.0950,1.505273475
0.1000,1.506482042
0.1050,1.507903302
0.1100,1.509534898
0.1150,1.511366101
0.1200,1.513378971
0.1250,1.515549679
0.1300,1.517848676
0.1350,1.52024103
0.1400,1.522687628
0.1450,1.525146091
0.1500,1.527570768
0.1550,1.531343272
0.1600,1.534964053
0.1650,1.538329392
0.1700,1.541815936
0.1750,1.544930006
0.1800,1.548029692
0.1850,1.550775424
0.1900,1.553211498
0.1950,1.555134638
0.2000,1.55668217
0.2050,1.558049516
0.2100,1.559293747
0.2150,1.560304877
0.2200,1.561009124
0.2250,1.561608406
0.2300,1.562383917
0.2350,1.563107433
0.2400,1.563837184
0.2450,1.564644809
0.2500,1.565663028
0.2550,1.566755475
0.2600,1.568096524
0.2650,1.569606874
0.2700,1.571014292
0.2750,1.57288603
0.2800,1.574957415
0.2850,1.57712736
0.2900,1.579452289
0.2950,1.582168798
0.3000,1.585051921
0.3050,1.588252516
0.3100,1.591349965
0.3150,1.594579159
0.3200,1.59797234
0.3250,1.601646319
0.3300,1.605228999
0.3350,1.609167639
0.3400,1.613128471
0.3450,1.617203038
0.3500,1.62149232
0.3550,1.625904823
0.3600,1.630463907
0.3650,1.635110815
0.3700,1.639850053
0.3750,1.644763884
0.3800,1.649801013
0.3850,1.654881979
0.3900,1.659963179
0.3950,1.66500273
0.4000,1.670144742
0.4050,1.675220323
0.4100,1.680284439
0.4150,1.685143598
0.4200,1.689978019
0.4250,1.694848601
0.4300,1.699726178
0.4350,1.704787361
0.4400,1.709742584
0.4450,1.714468358
0.4500,1.71925292
0.4550,1.724009782
0.4600,1.728681491
0.4650,1.733078977
0.4700,1.737467166
0.4750,1.741910041
0.4800,1.74606884
0.4850,1.750246999
0.4900,1.75429781
0.4950,1.758334036
0.5000,1.762100129
0.5050,1.765590483
0.5100,1.768654106
0.5150,1.77167104
0.5200,1.774276396
0.5250,1.776783309
0.5300,1.778963251
0.5350,1.780950194
0.5400,1.782651283
0.5450,1.784077844
0.5500,1.785073011
0.5550,1.786012275
0.5600,1.786670951
0.5650,1.7873394
0.5700,1.788199932
0.5750,1.789100817
0.5800,1.790053303
0.5850,1.791256674
0.5900,1.792547535
0.5950,1.79387534
0.6000,1.795167781
0.6050,1.796542093
0.6100,1.798251714
0.6150,1.800265938
0.6200,1.802863242
0.6250,1.806138811
0.6300,1.809949171
0.6350,1.814416684
0.6400,1.819711487
0.6450,1.826106979
0.6500,1.833531836
0.6550,1.842292785
0.6600,1.852676066
0.6650,1.864581617
0.6700,1.878232198
0.6750,1.893786795
0.6800,1.911195939
0.6850,1.930843881
0.6900,1.95271287
0.6950,1.976833025
0.7000,2.002845739
0.7050,2.03107651
0.7100,2.061334326
0.7150,2.093926312
0.7200,2.128606554
0.7250,2.165511428
0.7300,2.204651338
0.7350,2.246299475
0.7400,2.290753724
0.7450,2.338219057
0.7500,2.388849233
0.7550,2.442805579
0.7600,2.500195094
0.7650,2.561095547
0.7700,2.625227949
0.7750,2.692643062
0.7800,2.763300487
0.7850,2.836767722
0.7900,2.912733699
0.7950,2.990984914
0.8000,3.071262381
0.8050,3.15302457
0.8100,3.235788089
0.8150,3.318969361
0.8200,3.402602041
0.8250,3.486050946
0.8300,3.568905476
0.8350,3.651207663
0.8400,3.732694897
0.8450,3.813378381
0.8500,3.893156941
0.8550,3.971729566
0.8600,4.049552754
0.8650,4.12601394
0.8700,4.201206469
0.8750,4.274991669
0.8800,4.347199429
0.8850,4.417890857
0.8900,4.487009195
0.8950,4.554238712
0.9000,4.61999564
0.9050,4.683621431
0.9100,4.745102896
0.9150,4.804108644
0.9200,4.860119077
0.9250,4.913301289
0.9300,4.963743236
0.9350,5.011216647
0.9400,5.05592151
0.9450,5.097670958
0.9500,5.136247774
0.9550,5.171944787
0.9600,5.204417796
0.9650,5.233811939
0.9700,5.260291008
0.9750,5.2838287
0.9800,5.304699404
0.9850,5.323013723
0.9900,5.339251131
0.9950,5.353380425
1.0000,5.366072527
1.0050,5.3774727
1.0100,5.387920591
1.0150,5.39730408
1.0200,5.40613074
1.0250,5.414264422
1.0300,5.422036658
1.0350,5.42944175
1.0400,5.436633529
1.0450,5.443447399
1.0500,5.450091302
1.0550,5.45645238
1.0600,5.462777492
1.0650,5.469120121
1.0700,5.475381629
1.0750,5.481689391
1.0800,5.487758608
1.0850,5.493915622
1.0900,5.500166668
1.0950,5.506376792
1.1000,5.512369625
1.1050,5.518238497
1.1100,5.524167566
1.1150,5.530088487
1.1200,5.53578216
1.1250,5.541349021
1.1300,5.546684526
1.1350,5.551562726
1.1400,5.555934832
1.1450,5.559830518
1.1500,5.563113769
1.1550,5.565920827
1.1600,5.567942353
1.1650,5.569373495
1.1700,5.57038991
1.1750,5.571068271
1.1800,5.57158697
1.1850,5.57189737
1.1900,5.572253442
1.1950,5.572946144
1.2000,5.573653154
1.2050,5.574841855
1.2100,5.576494701
1.2150,5.578438172
1.2200,5.581028766
1.2250,5.584106083
1.2300,5.587643059
1.2350,5.591508056
1.2400,5.595618445
1.2450,5.599684581
1.2500,5.604210304
1.2550,5.608458213
1.2600,5.612711537
1.2650,5.616997322
1.2700,5.621362744
1.2750,5.625546483
1.2800,5.629624245
1.2850,5.633312513
1.2900,5.636296325
1.2950,5.638997079
1.3000,5.640896151
1.3050,5.641718475
1.3100,5.64151715
1.3150,5.64035254
1.3200,5.63794177
1.3250,5.634664263
1.3300,5.630361521
1.3350,5.624778627
1.3400,5.618116795
1.3450,5.610506157
1.3500,5.601753447
1.3550,5.592254058
1.3600,5.581783216
1.3650,5.570392008
1.3700,5.558364492
1.3750,5.545458836
1.3800,5.532194691
1.3850,5.518250049
1.3900,5.50374571
1.3950,5.488643632
1.4000,5.473077306
1.4050,5.456771601
1.4100,5.439708791
1.4150,5.422003399
1.4200,5.403630611
1.4250,5.384561287
1.4300,5.36486095
1.4350,5.344457839
1.4400,5.323699203
1.4450,5.302432468
1.4500,5.280977767
1.4550,5.259490906
1.4600,5.23797768
1.4650,5.216673325
1.4700,5.195475385
1.4750,5.174553013
1.4800,5.154209938
1.4850,5.134421019
1.4900,5.115188928
1.4950,5.096691145
1.5000,5.079039999
1.5050,5.062075861
1.5100,5.045913098
1.5150,5.030987976
1.5200,5.016889011
1.5250,5.003777393
1.5300,4.991343637
1.5350,4.979996933
1.5400,4.969293179
1.5450,4.959411015
1.5500,4.949986005
1.5550,4.941474805
1.5600,4.933817326
1.5650,4.926973173
1.5700,4.92065491
1.5750,4.915052789
1.5800,4.909944338
1.5850,4.905374003
1.5900,4.901405061
1.5950,4.897768391
1.6000,4.894596749
1.6050,4.89163221
1.6100,4.888623005
1.6150,4.885375587
1.6200,4.881843615
1.6250,4.87749164
1.6300,4.872273982
1.6350,4.866188755
1.6400,4.858958232
1.6450,4.850463426
1.6500,4.840843868
1.6550,4.829692455
1.6600,4.817147651
1.6650,4.803148106
1.6700,4.787720024
1.6750,4.770998982
1.6800,4.752925775
1.6850,4.733844101
1.6900,4.714014319
1.6950,4.693394171
1.7000,4.672344927
1.7050,4.650918436
1.7100,4.629511471
1.7150,4.608212599
1.7200,4.587136103
1.7250,4.566467327
1.7300,4.546594343
1.7350,4.527594698
1.7400,4.50950997
1.7450,4.492416559
1.7500,4.476329109
1.7550,4.461347598
1.7600,4.44751801
1.7650,4.43494087
1.7700,4.423601495
1.7750,4.413727626
1.7800,4.40530546
1.7850,4.398525894
1.7900,4.39337664
1.7950,4.389666445
1.8000,4.387681646
1.8050,4.387336419
1.8100,4.38856339
1.8150,4.391234585
1.8200,4.395484782
1.8250,4.400984442
1.8300,4.408011065
1.8350,4.416161145
1.8400,4.425312281
1.8450,4.435431136
1.8500,4.446348652
1.8550,4.457540129
1.8600,4.468893596
1.8650,4.480002049
1.8700,4.490788823
1.8750,4.501207674
1.8800,4.510677545
1.8850,4.519146217
1.8900,4.526211281
1.8950,4.531592228
1.9000,4.535316012
1.9050,4.537711669
1.9100,4.538511038
1.9150,4.537803503
1.9200,4.535488619
1.9250,4.531957785
1.9300,4.527198867
1.9350,4.521463737
1.9400,4.514826637
1.9450,4.507577075
1.9500,4.499676702
1.9550,4.491450057
1.9600,4.483050297
1.9650,4.474658801
1.9700,4.466342839
1.9750,4.458239921
1.9800,4.450614447
1.9850,4.44308655
1.9900,4.435558126
1.9950,4.42838878
2.0000,4.421289757
2.0050,4.414568795
2.0100,4.4081471
2.0150,4.40166602
2.0200,4.395468419
2.0250,4.389331769
2.0300,4.383181622
2.0350,4.37692577
2.0400,4.370654338
2.0450,4.364349442
2.0500,4.358163912
2.0550,4.351830922
2.0600,4.345830638
2.0650,4.340028554
2.0700,4.334451702
2.0750,4.329238085
2.0800,4.324290594
2.0850,4.319776448
2.0900,4.315524491
2.0950,4.311640988
2.1000,4.30791137
2.1050,4.304550144
2.1100,4.301373906
2.1150,4.298281498
2.1200,4.295148147
2.1250,4.292167306
2.1300,4.28889502
2.1350,4.285190037
2.1400,4.281424347
2.1450,4.277314231
2.1500,4.273026114
2.1550,4.2685382
2.1600,4.263828876
2.1650,4.259226987
2.1700,4.254844039
2.1750,4.250564462
2.1800,4.246526252
2.1850,4.242824649
2.1900,4.239748498
2.1950,4.237423608
2.2000,4.235668477
2.2050,4.234372995
2.2100,4.233741324
2.2150,4.233625626
2.2200,4.233877509
2.2250,4.234740943
2.2300,4.236139145
2.2350,4.238023496
2.2400,4.240317015
2.2450,4.24330759
2.2500,4.246978874
2.2550,4.25143641
2.2600,4.256702096
2.2650,4.263029553
2.2700,4.270355507
2.2750,4.278876877
2.2800,4.28859126
2.2850,4.299739817
2.2900,4.312499471
2.2950,4.326805728
2.3000,4.342568124
2.3050,4.359666395
2.3100,4.377946038
2.3150,4.397573738
2.3200,4.418008765
2.3250,4.439222912
2.3300,4.460813907
2.3350,4.482759384
2.3400,4.504500396
2.3450,4.525789646
2.3500,4.546219943
2.3550,4.565584034
2.3600,4.583650115
2.3650,4.600295033
2.3700,4.615649489
2.3750,4.629324943
2.3800,4.641541866
2.3850,4.65192438
2.3900,4.660810242
2.3950,4.668205074
2.4000,4.674199082
2.4050,4.678755892
2.4100,4.68211206
2.4150,4.684455279
2.4200,4.685952567
2.4250,4.686609296
2.4300,4.68691222
2.4350,4.687065639
2.4400,4.68681175
2.4450,4.68651152
2.4500,4.686220564
2.4550,4.685975358
2.4600,4.685943464
2.4650,4.686163192
2.4700,4.686316582
2.4750,4.686594892
2.4800,4.687259844
2.4850,4.688082731
2.4900,4.689091642
2.4950,4.690253026
2.5000,4.69171589
2.5050,4.693241298
2.5100,4.694839807
2.5150,4.696945608
2.5200,4.699357912
2.5250,4.701808075
2.5300,4.704263567
2.5350,4.706890375
2.5400,4.709484929
2.5450,4.711889763
2.5500,4.714066926
2.5550,4.715714871
2.5600,4.717099487
2.5650,4.718000675
2.5700,4.718390733
2.5750,4.71828395
2.5800,4.717354767
2.5850,4.715810337
2.5900,4.713631197
2.5950,4.710683165
2.6000,4.707035572
2.6050,4.703020426
2.6100,4.698311849
2.6150,4.69287844
2.6200,4.686876557
2.6250,4.680186362
2.6300,4.672910798
2.6350,4.664936347
2.6400,4.656309541
2.6450,4.647348397
2.6500,4.63796245
2.6550,4.628375802
2.6600,4.618269628
2.6650,4.607863367
2.6700,4.596944028
2.6750,4.585677363
2.6800,4.573929378
2.6850,4.561895643
2.6900,4.549580372
2.6950,4.537048852
2.7000,4.524410417
2.7050,4.511772974
2.7100,4.499015527
2.7150,4.486292755
2.7200,4.473741341
2.7250,4.461425507
2.7300,4.449184489
2.7350,4.437323416
2.7400,4.425962913
2.7450,4.415015141
2.7500,4.404673581
2.7550,4.394674013
2.7600,4.385303298
2.7650,4.376264458
2.7700,4.367891489
2.7750,4.35997299
2.7800,4.352545996
2.7850,4.345735886
2.7900,4.339421258
2.7950,4.333619487
2.8000,4.328071791
2.8050,4.323142491
2.8100,4.318760692
2.8150,4.314636894
2.8200,4.310928765
2.8250,4.307632397
2.8300,4.30475335
2.8350,4.301855044
2.8400,4.299296001
2.8450,4.296932901
2.8500,4.294656782
2.8550,4.292682394
2.8600,4.290495828
2.8650,4.288415134
2.8700,4.286191545
2.8750,4.28395683
2.8800,4.28166889
2.8850,4.279426818
2.8900,4.277125995
2.8950,4.2748861
2.9000,4.272742129
2.9050,4.270563224
2.9100,4.268667917
2.9150,4.267127888
2.9200,4.265765862
2.9250,4.264686724
2.9300,4.263913815
2.9350,4.26341565
2.9400,4.26347602
2.9450,4.263746349
2.9500,4.264375942
2.9550,4.265351071
2.9600,4.266973722
2.9650,4.269224156
2.9700,4.271970491
2.9750,4.27523984
2.9800,4.279042483
2.9850,4.283392187
2.9900,4.288207423
2.9950,4.293268655
3.0000,4.298712629
3.0050,4.304273549
3.0100,4.310235954
3.0150,4.316609825
3.0200,4.323351505
3.0250,4.330620395
3.0300,4.338430877
3.0350,4.346810684
3.0400,4.355971404
3.0450,4.366258037
3.0500,4.377322719
3.0550,4.389772527
3.0600,4.403252506
3.0650,4.417910293
3.0700,4.433876613
3.0750,4.451147331
3.0800,4.469837607
3.0850,4.490039372
3.0900,4.511803903
3.0950,4.535496255
3.1000,4.561141035
3.1050,4.588808558
3.1100,4.618439802
3.1150,4.65017079
3.1200,4.68405313
3.1250,4.720018147
3.1300,4.758214247
3.1350,4.798413833
3.1400,4.84078151
3.1450,4.885259125
3.1500,4.932122043
3.1550,4.981510304
3.1600,5.033745271
3.1650,5.089067944
3.1700,5.147953782
3.1750,5.21030193
3.1800,5.276823039
3.1850,5.347237781
3.1900,5.421732799
3.1950,5.500623209
3.2000,5.583977992
3.2050,5.67195635
3.2100,5.764292916
3.2150,5.861218408
3.2200,5.9631119
3.2250,6.069918052
3.2300,6.181939346
3.2350,6.299100632
3.2400,6.421024763
3.2450,6.547917855
3.2500,6.679504821
3.2550,6.815596073
3.2600,6.955855749
3.2650,7.100030322
3.2700,7.248229858
3.2750,7.400014967
3.2800,7.554995599
3.2850,7.713189574
3.2900,7.87438695
3.2950,8.038591604
3.3000,8.205505495
3.3050,8.375237974
3.3100,8.547717056
3.3150,8.722826107
3.3200,8.900516254
3.3250,9.08056024
3.3300,9.263194139
3.3350,9.448013898
3.3400,9.6351369
3.3450,9.824239874
3.3500,10.01536957
3.3550,10.20866929
3.3600,10.40393348
3.3650,10.60118182
3.3700,10.80031088
3.3750,11.00117655
3.3800,11.2038625
3.3850,11.40815467
3.3900,11.61389202
3.3950,11.82090922
3.4000,12.02929804
3.4050,12.23858766
3.4100,12.44894937
3.4150,12.66039668
3.4200,12.87294869
3.4250,13.08674785
3.4300,13.30172073
3.4350,13.51839523
3.4400,13.73640478
3.4450,13.95594259
3.4500,14.17712516
3.4550,14.39999357
3.4600,14.6246076
3.4650,14.85075594
3.4700,15.0784843
3.4750,15.30790402
3.4800,15.53863517
3.4850,15.77103914
3.4900,16.00508397
3.4950,16.24063975
3.5000,16.47768061
3.5050,16.716098
3.5100,16.95582861
3.5150,17.19684089
3.5200,17.4388368
3.5250,17.68194508
3.5300,17.9260483
3.5350,18.1713247
3.5400,18.41788824
3.5450,18.66577282
3.5500,18.91515647
3.5550,19.16627767
3.5600,19.41920392
3.5650,19.67424079
3.5700,19.93105268
3.5750,20.1899942
3.5800,20.45152156
3.5850,20.71535707
3.5900,20.98182911
3.5950,21.25110456
3.6000,21.52326697
3.6050,21.79849796
3.6100,22.07670394
3.6150,22.35828885
3.6200,22.64380221
3.6250,22.93331338
3.6300,23.22691623
3.6350,23.52536217
3.6400,23.8283529
3.6450,24.13627791
3.6500,24.44938976
3.6550,24.76785913
3.6600,25.0919641
3.6650,25.42198244
3.6700,25.75812427
3.6750,26.10053813
3.6800,26.44902643
3.6850,26.80395897
3.6900,27.16512983
3.6950,27.53259008
3.7000,27.90627026
3.7050,28.28624817
3.7100,28.67239137
3.7150,29.06410283
3.7200,29.46135816
3.7250,29.86346818
3.7300,30.27045972
3.7350,30.68156718
3.7400,31.09715146
3.7450,31.51716659
3.7500,31.94127756
3.7550,32.36964168
3.7600,32.80211591
3.7650,33.23867557
3.7700,33.67908085
3.7750,34.12342164
3.7800,34.57133518
3.7850,35.02287964
3.7900,35.47791824
3.7950,35.93602327
3.8000,36.39684913
3.8050,36.86048002
3.8100,37.3270869
3.8150,37.79610469
3.8200,38.26733059
3.8250,38.74064913
3.8300,39.21524375
3.8350,39.69084567
3.8400,40.16740933
3.8450,40.64464173
3.8500,41.1225529
3.8550,41.60087967
3.8600,42.07917374
3.8650,42.55777644
3.8700,43.0372062
3.8750,43.51748457
3.8800,43.99906606
3.8850,44.48233728
3.8900,44.96792783
3.8950,45.45582964
3.9000,45.94665256
3.9050,46.44080416
3.9100,46.93882127
3.9150,47.44089178
3.9200,47.94706116
3.9250,48.45761977
3.9300,48.97303615
3.9350,49.49323965
3.9400,50.01843603
3.9450,50.54881882
3.9500,51.08478388
3.9550,51.62592481
3.9600,52.17225287
3.9650,52.72371275
3.9700,53.2803876
3.9750,53.84230178
3.9800,54.40983681
3.9850,54.98301054
3.9900,55.56208321
3.9950,56.14704393
4.0000,56.73773615
4.0050,57.33452132
4.0100,57.9373605
4.0150,58.5461809
4.0200,59.16081676
4.0250,59.78105125
4.0300,60.4069133
4.0350,61.03849372
4.0400,61.67505447
4.0450,62.31612056
4.0500,62.96112559
4.0550,63.60880639
4.0600,64.25919515
4.0650,64.91163612
4.0700,65.56527255
4.0750,66.21967806
4.0800,66.87471377
4.0850,67.52944669
4.0900,68.18363644
4.0950,68.83736873
4.1000,69.49031801
4.1050,70.14184065
4.1100,70.79196825
4.1150,71.44078061
4.1200,72.08839431
4.1250,72.73481355
4.1300,73.38041356
4.1350,74.02486997
4.1400,74.66790462
4.1450,75.30952917
4.1500,75.94970471
4.1550,76.58799121
4.1600,77.22418098
4.1650,77.85802786
4.1700,78.48973658
4.1750,79.11934155
4.1800,79.74622593
4.1850,80.37080934
4.1900,80.99321602
4.1950,81.61337176
4.2000,82.2307937
4.2050,82.8456309
4.2100,83.45797476
4.2150,84.0674226
4.2200,84.67400942
4.2250,85.27800837
4.2300,85.87890683
4.2350,86.47634912
4.2400,87.07079383
4.2450,87.66197551
4.2500,88.24979067
4.2550,88.83431065
4.2600,89.416088
4.2650,89.99506013
4.2700,90.57123631
4.2750,91.14462583
4.2800,91.71455679
4.2850,92.28033036
4.2900,92.84193367
4.2950,93.39872943
4.3000,93.95059636
4.3050,94.49719511
4.3100,95.03857881
4.3150,95.5749496
4.3200,96.10599678
4.3250,96.63217588
4.3300,97.15304806
4.3350,97.66849901
4.3400,98.17918622
4.3450,98.68478151
4.3500,99.18585253
4.3550,99.68246712
4.3600,100.1742707
4.3650,100.6613479
4.3700,101.1439683
4.3750,101.6222227
4.3800,102.0959683
4.3850,102.5656519
4.3900,103.0310974
4.3950,103.4923318
4.4000,103.9499069
4.4050,104.4047314
4.4100,104.856178
4.4150,105.3043498
4.4200,105.7493071
4.4250,106.1907832
4.4300,106.6291762
4.4350,107.0647594
4.4400,107.4971175
4.4450,107.9263112
4.4500,108.3527373
4.4550,108.7767694
4.4600,109.1992132
4.4650,109.6201392
4.4700,110.039464
4.4750,110.4576785
4.4800,110.8744878
4.4850,111.2900919
4.4900,111.7042008
4.4950,112.1170381
4.5000,112.5285472
4.5050,112.9388314
4.5100,113.3478442
4.5150,113.7557025
4.5200,114.1624524
4.5250,114.5684197
4.5300,114.9737618
4.5350,115.3788318
4.5400,115.7828686
4.5450,116.1860465
4.5500,116.5884447
4.5550,116.989959
4.5600,117.3901838
4.5650,117.7890129
4.5700,118.1858533
4.5750,118.580681
4.5800,118.9733343
4.5850,119.3638012
4.5900,119.7518793
4.5950,120.1372701
4.6000,120.5203064
4.6050,120.9009446
4.6100,121.2789498
4.6150,121.6537108
4.6200,122.025336
4.6250,122.3934725
4.6300,122.7580567
4.6350,123.1186978
4.6400,123.4749345
4.6450,123.8269434
4.6500,124.1743763
4.6550,124.5174373
4.6600,124.8562261
4.6650,125.1911265
4.6700,125.5220224
4.6750,125.8490308
4.6800,126.172714
4.6850,126.4931804
4.6900,126.8107506
4.6950,127.1252692
4.7000,127.4369632
4.7050,127.7452917
4.7100,128.0504245
4.7150,128.3528487
4.7200,128.6524639
4.7250,128.9493122
4.7300,129.2435663
4.7350,129.5349914
4.7400,129.8244134
4.7450,130.1118586
4.7500,130.3973875
4.7550,130.6809471
4.7600,130.9623302
4.7650,131.2413992
4.7700,131.5181183
4.7750,131.7920892
4.7800,132.0643776
4.7850,132.3350321
4.7900,132.6041123
4.7950,132.8716602
4.8000,133.1377886
4.8050,133.4025403
4.8100,133.6661588
4.8150,133.9286829
4.8200,134.1900968
4.8250,134.4501621
4.8300,134.7085945
4.8350,134.9655076
4.8400,135.2209456
4.8450,135.4748271
4.8500,135.7268203
4.8550,135.9766587
4.8600,136.2243165
4.8650,136.4694564
4.8700,136.7121404
4.8750,136.9524266
4.8800,137.1901052
4.8850,137.4258222
4.8900,137.6594467
4.8950,137.8913514
4.9000,138.1209486
4.9050,138.3487085
4.9100,138.5742666
4.9150,138.7983872
4.9200,139.0204818
4.9250,139.240888
4.9300,139.4592641
4.9350,139.6757314
4.9400,139.8903459
4.9450,140.1029445
4.9500,140.3139667
4.9550,140.5231357
4.9600,140.7305281
4.9650,140.936014
4.9700,141.1395065
4.9750,141.3409151
4.9800,141.5402257
4.9850,141.7375062
4.9900,141.9328739
4.9950,142.1264335
5.0000,142.3179049
5.0050,142.5078849
5.0100,142.6966676
5.0150,142.8838661
5.0200,143.0698916
5.0250,143.2545088
5.0300,143.4377551
5.0350,143.6197478
5.0400,143.8004527
5.0450,143.9800016
5.0500,144.1582026
5.0550,144.335176
5.0600,144.5111502
5.0650,144.6857116
5.0700,144.8592026
5.0750,145.0319443
5.0800,145.2034243
5.0850,145.3731414
5.0900,145.5414594
5.0950,145.7083129
5.1000,145.8736958
5.1050,146.0376134
5.1100,146.1994038
5.1150,146.3596845
5.1200,146.518446
5.1250,146.6756073
5.1300,146.8315051
5.1350,146.9858502
5.1400,147.1387607
5.1450,147.2903792
5.1500,147.4406333
5.1550,147.5895139
5.1600,147.7367999
5.1650,147.8824728
5.1700,148.0265602
5.1750,148.1686437
5.1800,148.3092679
5.1850,148.4476588
5.1900,148.5842435
5.1950,148.7189513
5.2000,148.8516679
5.2050,148.98215
5.2100,149.1106732
5.2150,149.2369843
5.2200,149.3613925
5.2250,149.4838594
5.2300,149.6043885
5.2350,149.7231776
5.2400,149.8401275
5.2450,149.9551549
5.2500,150.0680429
