type,name,time_units,begin_time,frequency,count,units
signal,"Noraxon Ultium-RT BICEPS BR.","s",0.00000,2000,51280,"uV"

time,value
0.00000,-1.520023722
0.00050,-0.2992460909
0.00100,0.6163371322
0.00150,0.9215315399
0.00200,0.6163371322
0.00250,1.226725948
0.00300,1.837114763
0.00350,1.226725948
0.00400,0.005948316792
0.00450,-0.9096349063
0.00500,-1.520023722
0.00550,-1.214829314
0.00600,-0.6044404986
0.00650,0.005948316792
0.00700,0.005948316792
0.00750,0.005948316792
0.00800,0.005948316792
0.00850,0.3111427245
0.00900,0.3111427245
0.00950,-0.2992460909
0.01000,-0.6044404986
0.01050,-0.6044404986
0.01100,-0.6044404986
0.01150,-1.214829314
0.01200,-1.825218129
0.01250,-1.214829314
0.01300,0.005948316792
0.01350,0.6163371322
0.01400,0.3111427245
0.01450,-0.2992460909
0.01500,-1.214829314
0.01550,-1.825218129
0.01600,-1.825218129
0.01650,-0.9096349063
0.01700,-0.2992460909
0.01750,-0.2992460909
0.01800,-1.214829314
0.01850,-1.825218129
0.01900,-2.130412537
0.01950,-1.825218129
0.02000,-0.9096349063
0.02050,-0.2992460909
0.02100,0.005948316792
0.02150,-0.2992460909
0.02200,-0.2992460909
0.02250,0.005948316792
0.02300,0.005948316792
0.02350,-0.2992460909
0.02400,-0.9096349063
0.02450,-1.214829314
0.02500,-0.2992460909
0.02550,0.3111427245
0.02600,0.005948316792
0.02650,-0.9096349063
0.02700,-1.520023722
0.02750,-1.214829314
0.02800,0.005948316792
0.02850,0.6163371322
0.02900,0.6163371322
0.02950,0.005948316792
0.03000,-0.9096349063
0.03050,-1.214829314
0.03100,-0.2992460909
0.03150,0.3111427245
0.03200,0.3111427245
0.03250,-0.2992460909
0.03300,-0.6044404986
0.03350,-0.2992460909
0.03400,0.005948316792
0.03450,-0.2992460909
0.03500,0.005948316792
0.03550,0.3111427245
0.03600,0.6163371322
0.03650,0.005948316792
0.03700,-0.2992460909
0.03750,0.005948316792
0.03800,1.226725948
0.03850,1.226725948
0.03900,0.005948316792
0.03950,-0.2992460909
0.04000,0.9215315399
0.04050,3.057892394
0.04100,4.88905884
0.04150,5.499447655
0.04200,5.194253248
0.04250,4.278670025
0.04300,3.973475617
0.04350,3.668281209
0.04400,3.057892394
0.04450,1.531920355
0.04500,-0.6044404986
0.04550,-2.740801353
0.04600,-3.961578983
0.04650,-4.877162206
0.04700,-5.182356614
0.04750,-5.182356614
0.04800,-4.571967799
0.04850,-4.266773391
0.04900,-4.266773391
0.04950,-4.571967799
0.05000,-4.571967799
0.05050,-3.961578983
0.05100,-2.435606945
0.05150,-1.214829314
0.05200,0.005948316792
0.05250,0.005948316792
0.05300,-0.6044404986
0.05350,-0.6044404986
0.05400,0.005948316792
0.05450,1.226725948
0.05500,1.226725948
0.05550,0.005948316792
0.05600,-1.520023722
0.05650,-1.825218129
0.05700,-0.9096349063
0.05750,0.005948316792
0.05800,0.3111427245
0.05850,0.005948316792
0.05900,0.005948316792
0.05950,0.005948316792
0.06000,0.3111427245
0.06050,0.6163371322
0.06100,1.531920355
0.06150,1.837114763
0.06200,1.531920355
0.06250,0.6163371322
0.06300,-0.2992460909
0.06350,-1.214829314
0.06400,-0.9096349063
0.06450,0.005948316792
0.06500,0.9215315399
0.06550,0.6163371322
0.06600,0.005948316792
0.06650,-0.2992460909
0.06700,0.005948316792
0.06750,0.005948316792
0.06800,-0.9096349063
0.06850,-1.214829314
0.06900,-0.2992460909
0.06950,0.3111427245
0.07000,0.6163371322
0.07050,0.3111427245
0.07100,0.005948316792
0.07150,0.3111427245
0.07200,1.226725948
0.07250,1.531920355
0.07300,1.226725948
0.07350,0.6163371322
0.07400,0.3111427245
0.07450,0.3111427245
0.07500,0.005948316792
0.07550,0.005948316792
0.07600,0.005948316792
0.07650,0.005948316792
0.07700,0.3111427245
0.07750,0.6163371322
0.07800,1.226725948
0.07850,1.837114763
0.07900,1.531920355
0.07950,0.3111427245
0.08000,0.005948316792
0.08050,0.3111427245
0.08100,0.3111427245
0.08150,-0.2992460909
0.08200,-0.9096349063
0.08250,0.005948316792
0.08300,0.005948316792
0.08350,-0.6044404986
0.08400,-1.520023722
0.08450,-0.6044404986
0.08500,0.3111427245
0.08550,0.3111427245
0.08600,-0.9096349063
0.08650,-1.214829314
0.08700,-0.2992460909
0.08750,0.6163371322
0.08800,0.9215315399
0.08850,0.005948316792
0.08900,-0.2992460909
0.08950,0.005948316792
0.09000,0.005948316792
0.09050,0.005948316792
0.09100,-0.6044404986
0.09150,-0.9096349063
0.09200,-0.2992460909
0.09250,0.005948316792
0.09300,-0.2992460909
0.09350,-1.214829314
0.09400,-1.214829314
0.09450,-0.6044404986
0.09500,-0.2992460909
0.09550,-0.9096349063
0.09600,-0.6044404986
0.09650,0.005948316792
0.09700,0.3111427245
0.09750,0.005948316792
0.09800,0.005948316792
0.09850,0.9215315399
0.09900,1.226725948
0.09950,0.005948316792
0.10000,-0.6044404986
0.10050,0.3111427245
0.10100,1.837114763
0.10150,1.837114763
0.10200,0.3111427245
0.10250,0.005948316792
0.10300,0.6163371322
0.10350,0.9215315399
0.10400,0.3111427245
0.10450,-0.2992460909
0.10500,-0.6044404986
0.10550,-0.9096349063
0.10600,-1.825218129
0.10650,-1.520023722
0.10700,0.005948316792
0.10750,1.837114763
0.10800,2.752697986
0.10850,2.447503578
0.10900,1.531920355
0.10950,0.9215315399
0.11000,0.3111427245
0.11050,-0.6044404986
0.11100,-1.214829314
0.11150,-0.9096349063
0.11200,0.005948316792
0.11250,0.6163371322
0.11300,0.6163371322
0.11350,0.3111427245
0.11400,0.3111427245
0.11450,0.005948316792
0.11500,-0.6044404986
0.11550,-1.214829314
0.11600,-0.9096349063
0.11650,0.005948316792
0.11700,0.3111427245
0.11750,0.005948316792
0.11800,-0.6044404986
0.11850,-0.2992460909
0.11900,0.005948316792
0.11950,0.3111427245
0.12000,0.005948316792
0.12050,-0.6044404986
0.12100,-0.2992460909
0.12150,0.3111427245
0.12200,0.9215315399
0.12250,0.9215315399
0.12300,0.6163371322
0.12350,0.3111427245
0.12400,-0.2992460909
0.12450,-0.6044404986
0.12500,0.005948316792
0.12550,0.9215315399
0.12600,1.226725948
0.12650,0.3111427245
0.12700,0.005948316792
0.12750,0.3111427245
0.12800,0.3111427245
0.12850,-0.9096349063
0.12900,-2.435606945
0.12950,-1.520023722
0.13000,0.3111427245
0.13050,0.9215315399
0.13100,0.005948316792
0.13150,0.005948316792
0.13200,0.9215315399
0.13250,2.142309171
0.13300,2.142309171
0.13350,2.142309171
0.13400,3.363086802
0.13450,4.278670025
0.13500,3.363086802
0.13550,1.531920355
0.13600,0.6163371322
0.13650,2.142309171
0.13700,6.720225286
0.13750,13.12930785
0.13800,18.31761278
0.13850,19.53839041
0.13900,16.79164074
0.13950,14.04489107
0.14000,13.12930785
0.14050,12.21372462
0.14100,8.85658614
0.14150,3.973475617
0.14200,0.005948316792
0.14250,-2.435606945
0.14300,-5.182356614
0.14350,-8.539495099
0.14400,-11.59143918
0.14450,-14.03299444
0.14500,-15.86416088
0.14550,-15.86416088
0.14600,-13.42260562
0.14650,-11.28624477
0.14700,-11.89663358
0.14750,-13.72780003
0.14800,-12.5070224
0.14850,-8.844689507
0.14900,-6.708328653
0.14950,-8.234300691
0.15000,-9.76027273
0.15050,-8.234300691
0.15100,-5.79274543
0.15150,-4.877162206
0.15200,-6.403134245
0.15250,-7.318717468
0.15300,-7.318717468
0.15350,-6.403134245
0.15400,-4.877162206
0.15450,-2.435606945
0.15500,-0.9096349063
0.15550,-0.6044404986
0.15600,-0.6044404986
0.15650,0.6163371322
0.15700,1.837114763
0.15750,0.9215315399
0.15800,0.005948316792
0.15850,0.005948316792
0.15900,1.226725948
0.15950,1.837114763
0.16000,1.531920355
0.16050,1.837114763
0.16100,3.057892394
0.16150,3.668281209
0.16200,2.752697986
0.16250,1.837114763
0.16300,1.837114763
0.16350,2.142309171
0.16400,2.752697986
0.16450,3.363086802
0.16500,3.668281209
0.16550,3.668281209
0.16600,3.057892394
0.16650,2.752697986
0.16700,3.057892394
0.16750,3.363086802
0.16800,3.057892394
0.16850,2.142309171
0.16900,0.9215315399
0.16950,0.3111427245
0.17000,0.005948316792
0.17050,0.005948316792
0.17100,-0.2992460909
0.17150,-0.9096349063
0.17200,-0.6044404986
0.17250,0.005948316792
0.17300,0.005948316792
0.17350,-0.2992460909
0.17400,0.005948316792
0.17450,1.226725948
0.17500,1.837114763
0.17550,1.531920355
0.17600,1.531920355
0.17650,2.142309171
0.17700,2.447503578
0.17750,1.226725948
0.17800,0.005948316792
0.17850,0.6163371322
0.17900,1.837114763
0.17950,1.837114763
0.18000,0.6163371322
0.18050,0.005948316792
0.18100,0.9215315399
0.18150,1.226725948
0.18200,0.3111427245
0.18250,0.6163371322
0.18300,2.142309171
0.18350,3.668281209
0.18400,2.447503578
0.18450,0.005948316792
0.18500,-0.2992460909
0.18550,0.6163371322
0.18600,1.226725948
0.18650,0.6163371322
0.18700,0.3111427245
0.18750,1.226725948
0.18800,1.837114763
0.18850,1.226725948
0.18900,0.3111427245
0.18950,0.005948316792
0.19000,0.3111427245
0.19050,0.9215315399
0.19100,1.837114763
0.19150,2.447503578
0.19200,1.837114763
0.19250,0.6163371322
0.19300,0.9215315399
0.19350,2.752697986
0.19400,3.973475617
0.19450,3.668281209
0.19500,2.752697986
0.19550,2.142309171
0.19600,2.752697986
0.19650,5.499447655
0.19700,10.68775259
0.19750,15.87605752
0.19800,17.09683515
0.19850,14.35008548
0.19900,10.68775259
0.19950,8.85658614
0.20000,7.941002917
0.20050,5.804642063
0.20100,3.973475617
0.20150,2.142309171
0.20200,0.005948316792
0.20250,-3.351190168
0.20300,-7.01352306
0.20350,-8.234300691
0.20400,-8.234300691
0.20450,-9.76027273
0.20500,-12.5070224
0.20550,-13.72780003
0.20600,-13.11741121
0.20650,-11.28624477
0.20700,-10.06546714
0.20750,-8.539495099
0.20800,-6.708328653
0.20850,-5.182356614
0.20900,-4.571967799
0.20950,-3.961578983
0.21000,-2.740801353
0.21050,-1.825218129
0.21100,-2.130412537
0.21150,-3.656384576
0.21200,-4.877162206
0.21250,-5.182356614
0.21300,-4.877162206
0.21350,-4.266773391
0.21400,-3.04599576
0.21450,-1.520023722
0.21500,-0.6044404986
0.21550,0.005948316792
0.21600,0.3111427245
0.21650,1.226725948
0.21700,2.752697986
0.21750,3.363086802
0.21800,3.057892394
0.21850,2.142309171
0.21900,1.226725948
0.21950,1.226725948
0.22000,1.531920355
0.22050,2.142309171
0.22100,3.363086802
0.22150,4.583864432
0.22200,4.583864432
0.22250,3.668281209
0.22300,3.973475617
0.22350,5.499447655
0.22400,6.720225286
0.22450,6.415030879
0.22500,5.194253248
0.22550,5.194253248
0.22600,6.109836471
0.22650,6.109836471
0.22700,4.583864432
0.22750,2.447503578
0.22800,0.005948316792
0.22850,-1.520023722
0.22900,-3.04599576
0.22950,-3.04599576
0.23000,-2.130412537
0.23050,-1.825218129
0.23100,-2.740801353
0.23150,-3.351190168
0.23200,-2.130412537
0.23250,-0.6044404986
0.23300,0.6163371322
0.23350,2.142309171
0.23400,3.973475617
0.23450,5.194253248
0.23500,3.973475617
0.23550,1.837114763
0.23600,0.6163371322
0.23650,0.005948316792
0.23700,-1.520023722
0.23750,-4.877162206
0.23800,-7.623911876
0.23850,-9.149883914
0.23900,-10.06546714
0.23950,-11.89663358
0.24000,-13.42260562
0.24050,-13.72780003
0.24100,-12.5070224
0.24150,-10.98105036
0.24200,-8.539495099
0.24250,-6.097939837
0.24300,-4.571967799
0.24350,-4.571967799
0.24400,-3.961578983
0.24450,-2.740801353
0.24500,-1.520023722
0.24550,-1.214829314
0.24600,-1.520023722
0.24650,-1.214829314
0.24700,0.005948316792
0.24750,0.9215315399
0.24800,1.837114763
0.24850,2.142309171
0.24900,2.142309171
0.24950,1.837114763
0.25000,1.531920355
0.25050,1.837114763
0.25100,2.142309171
0.25150,2.447503578
0.25200,2.752697986
0.25250,3.363086802
0.25300,3.057892394
0.25350,2.142309171
0.25400,0.9215315399
0.25450,0.3111427245
0.25500,0.6163371322
0.25550,1.531920355
0.25600,1.837114763
0.25650,1.837114763
0.25700,1.531920355
0.25750,1.531920355
0.25800,1.531920355
0.25850,1.226725948
0.25900,1.226725948
0.25950,1.531920355
0.26000,1.837114763
0.26050,1.837114763
0.26100,1.226725948
0.26150,0.9215315399
0.26200,0.9215315399
0.26250,1.837114763
0.26300,2.142309171
0.26350,1.837114763
0.26400,1.226725948
0.26450,0.9215315399
0.26500,0.6163371322
0.26550,0.3111427245
0.26600,0.3111427245
0.26650,0.6163371322
0.26700,0.9215315399
0.26750,0.6163371322
0.26800,0.3111427245
0.26850,0.6163371322
0.26900,1.226725948
0.26950,1.531920355
0.27000,1.531920355
0.27050,1.226725948
0.27100,0.9215315399
0.27150,0.005948316792
0.27200,-0.6044404986
0.27250,-0.6044404986
0.27300,0.005948316792
0.27350,0.3111427245
0.27400,0.3111427245
0.27450,0.3111427245
0.27500,0.3111427245
0.27550,0.3111427245
0.27600,0.005948316792
0.27650,-0.2992460909
0.27700,-0.6044404986
0.27750,-0.2992460909
0.27800,0.3111427245
0.27850,0.9215315399
0.27900,0.6163371322
0.27950,0.005948316792
0.28000,0.005948316792
0.28050,0.6163371322
0.28100,0.3111427245
0.28150,-1.214829314
0.28200,-2.435606945
0.28250,-0.9096349063
0.28300,0.005948316792
0.28350,-0.2992460909
0.28400,-1.825218129
0.28450,-1.214829314
0.28500,0.6163371322
0.28550,1.226725948
0.28600,0.005948316792
0.28650,-0.6044404986
0.28700,-0.2992460909
0.28750,0.6163371322
0.28800,0.9215315399
0.28850,0.9215315399
0.28900,1.226725948
0.28950,0.6163371322
0.29000,0.005948316792
0.29050,0.005948316792
0.29100,0.6163371322
0.29150,1.226725948
0.29200,0.9215315399
0.29250,0.6163371322
0.29300,0.3111427245
0.29350,-0.2992460909
0.29400,-0.9096349063
0.29450,0.005948316792
0.29500,0.6163371322
0.29550,0.3111427245
0.29600,-0.9096349063
0.29650,-0.9096349063
0.29700,0.6163371322
0.29750,2.142309171
0.29800,0.9215315399
0.29850,0.005948316792
0.29900,0.005948316792
0.29950,0.6163371322
0.30000,0.6163371322
0.30050,-0.6044404986
0.30100,-1.214829314
0.30150,-0.6044404986
0.30200,0.005948316792
0.30250,0.6163371322
0.30300,0.6163371322
0.30350,0.3111427245
0.30400,0.6163371322
0.30450,2.142309171
0.30500,5.194253248
0.30550,8.551391732
0.30600,11.2981414
0.30650,14.96047429
0.30700,20.14877923
0.30750,23.81111212
0.30800,23.2007233
0.30850,19.233196
0.30900,16.48644633
0.30950,15.57086311
0.31000,14.35008548
0.31050,10.68775259
0.31100,5.194253248
0.31150,0.005948316792
0.31200,-4.266773391
0.31250,-8.844689507
0.31300,-12.5070224
0.31350,-15.25377207
0.31400,-17.08493851
0.31450,-18.00052174
0.31500,-18.61091055
0.31550,-19.22129937
0.31600,-20.13688259
0.31650,-20.13688259
0.31700,-18.91610496
0.31750,-16.16935529
0.31800,-13.42260562
0.31850,-11.59143918
0.31900,-10.67585595
0.31950,-10.37066155
0.32000,-10.06546714
0.32050,-9.455078322
0.32100,-8.844689507
0.32150,-8.234300691
0.32200,-6.708328653
0.32250,-2.740801353
0.32300,1.837114763
0.32350,4.583864432
0.32400,4.278670025
0.32450,4.88905884
0.32500,8.551391732
0.32550,13.12930785
0.32600,14.96047429
0.32650,13.43450226
0.32700,11.2981414
0.32750,9.161780548
0.32800,6.109836471
0.32850,2.752697986
0.32900,1.226725948
0.32950,1.531920355
0.33000,1.531920355
0.33050,0.005948316792
0.33100,-1.520023722
0.33150,-1.825218129
0.33200,-1.825218129
0.33250,-2.435606945
0.33300,-3.04599576
0.33350,-3.656384576
0.33400,-4.877162206
0.33450,-6.708328653
0.33500,-8.539495099
0.33550,-9.149883914
0.33600,-9.149883914
0.33650,-8.844689507
0.33700,-8.539495099
0.33750,-8.234300691
0.33800,-7.318717468
0.33850,-6.097939837
0.33900,-5.487551022
0.33950,-5.487551022
0.34000,-4.877162206
0.34050,-3.351190168
0.34100,-1.520023722
0.34150,-0.2992460909
0.34200,0.005948316792
0.34250,0.3111427245
0.34300,0.9215315399
0.34350,1.531920355
0.34400,0.9215315399
0.34450,-0.2992460909
0.34500,-2.435606945
0.34550,-3.04599576
0.34600,-2.130412537
0.34650,-0.2992460909
0.34700,0.9215315399
0.34750,1.837114763
0.34800,2.752697986
0.34850,3.668281209
0.34900,3.973475617
0.34950,3.363086802
0.35000,3.057892394
0.35050,3.973475617
0.35100,4.278670025
0.35150,3.057892394
0.35200,1.837114763
0.35250,1.837114763
0.35300,2.447503578
0.35350,2.752697986
0.35400,2.447503578
0.35450,2.142309171
0.35500,2.142309171
0.35550,1.226725948
0.35600,0.3111427245
0.35650,0.9215315399
0.35700,2.447503578
0.35750,3.057892394
0.35800,2.447503578
0.35850,1.837114763
0.35900,2.142309171
0.35950,3.057892394
0.36000,3.057892394
0.36050,2.752697986
0.36100,3.057892394
0.36150,2.447503578
0.36200,1.226725948
0.36250,0.6163371322
0.36300,1.226725948
0.36350,1.531920355
0.36400,0.6163371322
0.36450,-0.2992460909
0.36500,0.005948316792
0.36550,1.226725948
0.36600,1.226725948
0.36650,0.9215315399
0.36700,1.531920355
0.36750,3.057892394
0.36800,2.752697986
0.36850,1.226725948
0.36900,0.005948316792
0.36950,0.3111427245
0.37000,1.226725948
0.37050,1.531920355
0.37100,1.837114763
0.37150,3.057892394
0.37200,4.88905884
0.37250,6.109836471
0.37300,6.415030879
0.37350,5.499447655
0.37400,3.973475617
0.37450,3.057892394
0.37500,3.057892394
0.37550,2.752697986
0.37600,1.837114763
0.37650,1.226725948
0.37700,1.837114763
0.37750,1.226725948
0.37800,-0.9096349063
0.37850,-2.740801353
0.37900,-0.6044404986
0.37950,4.278670025
0.38000,7.330614102
0.38050,6.720225286
0.38100,4.583864432
0.38150,3.363086802
0.38200,3.668281209
0.38250,4.278670025
0.38300,4.278670025
0.38350,2.447503578
0.38400,-0.2992460909
0.38450,-3.351190168
0.38500,-3.961578983
0.38550,-3.04599576
0.38600,-3.656384576
0.38650,-5.79274543
0.38700,-7.318717468
0.38750,-7.318717468
0.38800,-7.318717468
0.38850,-7.929106283
0.38900,-7.623911876
0.38950,-6.097939837
0.39000,-4.571967799
0.39050,-4.266773391
0.39100,-4.877162206
0.39150,-4.571967799
0.39200,-2.130412537
0.39250,2.447503578
0.39300,7.330614102
0.39350,9.466974956
0.39400,9.772169363
0.39450,10.38255818
0.39500,12.82411344
0.39550,14.96047429
0.39600,14.65527989
0.39650,12.21372462
0.39700,9.466974956
0.39750,7.330614102
0.39800,4.583864432
0.39850,1.531920355
0.39900,-1.520023722
0.39950,-5.182356614
0.40000,-7.929106283
0.40050,-8.234300691
0.40100,-6.403134245
0.40150,-5.487551022
0.40200,-6.708328653
0.40250,-8.844689507
0.40300,-8.539495099
0.40350,-6.708328653
0.40400,-4.877162206
0.40450,-3.961578983
0.40500,-3.656384576
0.40550,-3.656384576
0.40600,-4.571967799
0.40650,-5.79274543
0.40700,-6.708328653
0.40750,-7.318717468
0.40800,-8.234300691
0.40850,-9.455078322
0.40900,-10.37066155
0.40950,-11.28624477
0.41000,-11.59143918
0.41050,-10.37066155
0.41100,-7.929106283
0.41150,-6.097939837
0.41200,-5.79274543
0.41250,-5.487551022
0.41300,-3.04599576
0.41350,-0.9096349063
0.41400,0.005948316792
0.41450,0.005948316792
0.41500,0.6163371322
0.41550,1.837114763
0.41600,2.142309171
0.41650,2.142309171
0.41700,2.752697986
0.41750,3.668281209
0.41800,3.668281209
0.41850,3.363086802
0.41900,2.752697986
0.41950,1.837114763
0.42000,0.005948316792
0.42050,-1.214829314
0.42100,-0.2992460909
0.42150,1.226725948
0.42200,1.226725948
0.42250,0.005948316792
0.42300,-0.6044404986
0.42350,0.6163371322
0.42400,1.837114763
0.42450,1.226725948
0.42500,0.9215315399
0.42550,2.142309171
0.42600,4.278670025
0.42650,5.194253248
0.42700,4.278670025
0.42750,3.363086802
0.42800,3.057892394
0.42850,2.752697986
0.42900,2.447503578
0.42950,2.447503578
0.43000,2.142309171
0.43050,1.531920355
0.43100,0.9215315399
0.43150,0.9215315399
0.43200,1.531920355
0.43250,2.142309171
0.43300,2.142309171
0.43350,2.752697986
0.43400,3.057892394
0.43450,2.752697986
0.43500,2.142309171
0.43550,1.837114763
0.43600,1.531920355
0.43650,0.9215315399
0.43700,0.005948316792
0.43750,0.005948316792
0.43800,1.226725948
0.43850,1.837114763
0.43900,1.226725948
0.43950,0.3111427245
0.44000,0.9215315399
0.44050,2.142309171
0.44100,2.142309171
0.44150,0.9215315399
0.44200,0.005948316792
0.44250,0.005948316792
0.44300,0.005948316792
0.44350,0.3111427245
0.44400,0.3111427245
0.44450,0.3111427245
0.44500,0.3111427245
0.44550,0.6163371322
0.44600,1.226725948
0.44650,1.226725948
0.44700,0.3111427245
0.44750,-0.2992460909
0.44800,0.005948316792
0.44850,0.005948316792
0.44900,0.3111427245
0.44950,0.3111427245
0.45000,0.6163371322
0.45050,0.3111427245
0.45100,0.005948316792
0.45150,0.005948316792
0.45200,1.226725948
0.45250,2.447503578
0.45300,2.142309171
0.45350,0.9215315399
0.45400,0.3111427245
0.45450,0.005948316792
0.45500,0.005948316792
0.45550,-0.6044404986
0.45600,-0.6044404986
0.45650,-0.2992460909
0.45700,-1.214829314
0.45750,-2.740801353
0.45800,-2.435606945
0.45850,-0.6044404986
0.45900,0.3111427245
0.45950,0.005948316792
0.46000,-0.2992460909
0.46050,0.005948316792
0.46100,0.9215315399
0.46150,0.3111427245
0.46200,-0.2992460909
0.46250,0.005948316792
0.46300,1.226725948
0.46350,1.531920355
0.46400,-0.6044404986
0.46450,-3.04599576
0.46500,-3.04599576
0.46550,-0.6044404986
0.46600,1.226725948
0.46650,0.9215315399
0.46700,0.005948316792
0.46750,0.3111427245
0.46800,3.363086802
0.46850,5.804642063
0.46900,6.109836471
0.46950,4.583864432
0.47000,4.278670025
0.47050,4.583864432
0.47100,3.973475617
0.47150,1.226725948
0.47200,-0.9096349063
0.47250,-1.520023722
0.47300,-1.214829314
0.47350,-2.130412537
0.47400,-4.266773391
0.47450,-6.097939837
0.47500,-6.403134245
0.47550,-6.403134245
0.47600,-6.403134245
0.47650,-5.79274543
0.47700,-4.877162206
0.47750,-4.266773391
0.47800,-3.656384576
0.47850,-3.04599576
0.47900,-1.214829314
0.47950,0.005948316792
0.48000,0.005948316792
0.48050,-0.2992460909
0.48100,0.005948316792
0.48150,0.005948316792
0.48200,-0.6044404986
0.48250,-2.130412537
0.48300,-3.656384576
0.48350,-3.961578983
0.48400,-3.351190168
0.48450,-3.04599576
0.48500,-2.130412537
0.48550,-1.520023722
0.48600,-1.520023722
0.48650,-0.9096349063
0.48700,0.005948316792
0.48750,0.9215315399
0.48800,0.3111427245
0.48850,-0.9096349063
0.48900,-1.520023722
0.48950,-1.214829314
0.49000,-1.825218129
0.49050,-3.04599576
0.49100,-2.740801353
0.49150,-0.2992460909
0.49200,1.531920355
0.49250,1.531920355
0.49300,0.6163371322
0.49350,0.005948316792
0.49400,0.3111427245
0.49450,0.3111427245
0.49500,0.3111427245
0.49550,0.6163371322
0.49600,1.226725948
0.49650,0.9215315399
0.49700,0.005948316792
0.49750,0.005948316792
0.49800,0.3111427245
0.49850,0.9215315399
0.49900,1.226725948
0.49950,1.531920355
0.50000,0.9215315399
0.50050,0.005948316792
0.50100,0.005948316792
0.50150,0.3111427245
0.50200,0.6163371322
0.50250,0.3111427245
0.50300,0.6163371322
0.50350,1.226725948
0.50400,1.226725948
0.50450,0.005948316792
0.50500,0.005948316792
0.50550,0.6163371322
0.50600,1.531920355
0.50650,0.6163371322
0.50700,-0.2992460909
0.50750,-0.9096349063
0.50800,-0.6044404986
0.50850,0.005948316792
0.50900,0.3111427245
0.50950,1.226725948
0.51000,0.3111427245
0.51050,-1.214829314
0.51100,-1.825218129
0.51150,0.005948316792
0.51200,2.142309171
0.51250,2.752697986
0.51300,1.226725948
0.51350,0.005948316792
0.51400,-0.6044404986
0.51450,0.005948316792
0.51500,1.226725948
0.51550,2.142309171
0.51600,2.142309171
0.51650,0.9215315399
0.51700,0.3111427245
0.51750,0.9215315399
0.51800,2.142309171
0.51850,3.668281209
0.51900,7.025419694
0.51950,11.60333581
0.52000,12.82411344
0.52050,8.85658614
0.52100,3.973475617
0.52150,2.752697986
0.52200,3.973475617
0.52250,3.973475617
0.52300,2.752697986
0.52350,2.752697986
0.52400,4.278670025
0.52450,3.973475617
0.52500,1.837114763
0.52550,0.6163371322
0.52600,0.9215315399
0.52650,0.9215315399
0.52700,0.005948316792
0.52750,2.752697986
0.52800,9.161780548
0.52850,13.12930785
0.52900,10.68775259
0.52950,5.804642063
0.53000,3.668281209
0.53050,4.278670025
0.53100,3.363086802
0.53150,-0.9096349063
0.53200,-5.487551022
0.53250,-8.234300691
0.53300,-9.455078322
0.53350,-10.98105036
0.53400,-12.20182799
0.53450,-12.81221681
0.53500,-12.20182799
0.53550,-11.28624477
0.53600,-9.455078322
0.53650,-6.403134245
0.53700,-2.435606945
0.53750,0.6163371322
0.53800,0.9215315399
0.53850,-0.9096349063
0.53900,-2.740801353
0.53950,-2.740801353
0.54000,-2.740801353
0.54050,-4.571967799
0.54100,-6.403134245
0.54150,-6.708328653
0.54200,-6.708328653
0.54250,-8.539495099
0.54300,-11.59143918
0.54350,-12.81221681
0.54400,-13.11741121
0.54450,-14.94857766
0.54500,-17.39013292
0.54550,-14.64338325
0.54600,-5.487551022
0.54650,3.363086802
0.54700,6.109836471
0.54750,4.583864432
0.54800,4.278670025
0.54850,6.720225286
0.54900,8.551391732
0.54950,7.635808509
0.55000,5.804642063
0.55050,5.804642063
0.55100,7.025419694
0.55150,7.635808509
0.55200,5.804642063
0.55250,1.837114763
0.55300,-0.9096349063
0.55350,-1.214829314
0.55400,0.3111427245
0.55450,1.226725948
0.55500,0.3111427245
0.55550,-0.9096349063
0.55600,-2.130412537
0.55650,-3.04599576
0.55700,-3.961578983
0.55750,-5.182356614
0.55800,-6.708328653
0.55850,-8.234300691
0.55900,-9.455078322
0.55950,-10.37066155
0.56000,-10.67585595
0.56050,-10.67585595
0.56100,-9.76027273
0.56150,-7.929106283
0.56200,-7.01352306
0.56250,-6.708328653
0.56300,-5.182356614
0.56350,-2.435606945
0.56400,0.005948316792
0.56450,0.005948316792
0.56500,-0.9096349063
0.56550,-0.6044404986
0.56600,0.6163371322
0.56650,1.226725948
0.56700,0.005948316792
0.56750,-0.6044404986
0.56800,0.005948316792
0.56850,1.531920355
0.56900,1.531920355
0.56950,0.3111427245
0.57000,0.005948316792
0.57050,0.3111427245
0.57100,1.837114763
0.57150,3.057892394
0.57200,3.363086802
0.57250,2.142309171
0.57300,1.226725948
0.57350,2.142309171
0.57400,4.278670025
0.57450,6.109836471
0.57500,5.804642063
0.57550,4.278670025
0.57600,3.363086802
0.57650,3.668281209
0.57700,4.583864432
0.57750,4.583864432
0.57800,3.973475617
0.57850,3.668281209
0.57900,3.363086802
0.57950,2.752697986
0.58000,2.142309171
0.58050,2.142309171
0.58100,3.363086802
0.58150,3.668281209
0.58200,3.363086802
0.58250,3.057892394
0.58300,3.668281209
0.58350,4.583864432
0.58400,3.973475617
0.58450,2.447503578
0.58500,1.226725948
0.58550,1.226725948
0.58600,2.447503578
0.58650,3.363086802
0.58700,3.363086802
0.58750,2.447503578
0.58800,1.837114763
0.58850,1.837114763
0.58900,2.752697986
0.58950,3.668281209
0.59000,3.668281209
0.59050,2.447503578
0.59100,1.837114763
0.59150,1.837114763
0.59200,2.447503578
0.59250,2.142309171
0.59300,1.837114763
0.59350,1.837114763
0.59400,2.752697986
0.59450,2.752697986
0.59500,1.837114763
0.59550,0.9215315399
0.59600,1.226725948
0.59650,1.837114763
0.59700,1.531920355
0.59750,0.9215315399
0.59800,1.837114763
0.59850,3.363086802
0.59900,2.752697986
0.59950,0.9215315399
0.60000,0.9215315399
0.60050,2.447503578
0.60100,3.057892394
0.60150,1.531920355
0.60200,0.6163371322
0.60250,2.142309171
0.60300,3.363086802
0.60350,2.752697986
0.60400,1.837114763
0.60450,2.447503578
0.60500,2.447503578
0.60550,1.531920355
0.60600,4.278670025
0.60650,14.04489107
0.60700,25.03188975
0.60750,28.08383383
0.60800,22.28514008
0.60850,16.48644633
0.60900,16.48644633
0.60950,18.62280719
0.61000,17.09683515
0.61050,11.90853022
0.61100,6.415030879
0.61150,2.447503578
0.61200,-2.130412537
0.61250,-9.149883914
0.61300,-16.16935529
0.61350,-21.05246581
0.61400,-22.57843785
0.61450,-21.35766022
0.61500,-18.61091055
0.61550,-15.25377207
0.61600,-12.20182799
0.61650,-10.06546714
0.61700,-6.708328653
0.61750,-1.825218129
0.61800,2.447503578
0.61850,4.88905884
0.61900,5.194253248
0.61950,6.109836471
0.62000,6.109836471
0.62050,2.447503578
0.62100,-3.961578983
0.62150,-8.539495099
0.62200,-7.623911876
0.62250,-3.656384576
0.62300,-1.214829314
0.62350,0.005948316792
0.62400,1.226725948
0.62450,2.752697986
0.62500,3.363086802
0.62550,5.499447655
0.62600,11.2981414
0.62650,17.70722396
0.62700,18.62280719
0.62750,13.12930785
0.62800,5.804642063
0.62850,1.837114763
0.62900,0.9215315399
0.62950,1.226725948
0.63000,0.6163371322
0.63050,-0.6044404986
0.63100,-1.825218129
0.63150,0.9215315399
0.63200,8.246197325
0.63250,15.2656687
0.63300,15.57086311
0.63350,10.38255818
0.63400,3.973475617
0.63450,-0.6044404986
0.63500,-4.571967799
0.63550,-8.844689507
0.63600,-13.11741121
0.63650,-17.08493851
0.63700,-21.05246581
0.63750,-23.18882667
0.63800,-21.66285463
0.63850,-19.83168818
0.63900,-23.18882667
0.63950,-29.59790923
0.64000,-31.42907568
0.64050,-26.54596515
0.64100,-21.35766022
0.64150,-21.96804904
0.64200,-25.01999311
0.64250,-24.10440989
0.64300,-20.13688259
0.64350,-18.00052174
0.64400,-17.69532733
0.64450,-13.72780003
0.64500,-5.487551022
0.64550,0.9215315399
0.64600,0.3111427245
0.64650,-4.266773391
0.64700,-8.539495099
0.64750,-10.06546714
0.64800,-10.37066155
0.64850,-9.76027273
0.64900,-7.318717468
0.64950,-3.961578983
0.65000,-2.130412537
0.65050,-3.04599576
0.65100,-6.097939837
0.65150,-9.149883914
0.65200,-10.06546714
0.65250,-8.539495099
0.65300,-5.79274543
0.65350,-3.656384576
0.65400,-0.9096349063
0.65450,2.142309171
0.65500,5.194253248
0.65550,5.804642063
0.65600,5.194253248
0.65650,4.88905884
0.65700,5.194253248
0.65750,4.278670025
0.65800,2.752697986
0.65850,3.363086802
0.65900,6.720225286
0.65950,9.466974956
0.66000,8.85658614
0.66050,7.330614102
0.66100,7.025419694
0.66150,7.635808509
0.66200,6.720225286
0.66250,5.194253248
0.66300,5.499447655
0.66350,8.246197325
0.66400,9.772169363
0.66450,8.551391732
0.66500,6.720225286
0.66550,5.804642063
0.66600,6.109836471
0.66650,5.804642063
0.66700,4.88905884
0.66750,3.973475617
0.66800,4.278670025
0.66850,5.499447655
0.66900,7.025419694
0.66950,7.635808509
0.67000,7.025419694
0.67050,5.804642063
0.67100,5.194253248
0.67150,5.194253248
0.67200,5.194253248
0.67250,5.499447655
0.67300,6.415030879
0.67350,7.025419694
0.67400,6.415030879
0.67450,4.583864432
0.67500,3.057892394
0.67550,2.752697986
0.67600,3.057892394
0.67650,2.752697986
0.67700,2.142309171
0.67750,2.142309171
0.67800,2.752697986
0.67850,3.668281209
0.67900,3.363086802
0.67950,2.447503578
0.68000,1.837114763
0.68050,1.837114763
0.68100,2.447503578
0.68150,2.447503578
0.68200,2.447503578
0.68250,2.447503578
0.68300,2.752697986
0.68350,2.142309171
0.68400,1.226725948
0.68450,0.6163371322
0.68500,1.531920355
0.68550,2.752697986
0.68600,2.142309171
0.68650,0.9215315399
0.68700,0.6163371322
0.68750,1.837114763
0.68800,3.057892394
0.68850,2.752697986
0.68900,1.837114763
0.68950,1.531920355
0.69000,1.837114763
0.69050,1.837114763
0.69100,0.9215315399
0.69150,1.226725948
0.69200,2.447503578
0.69250,3.363086802
0.69300,2.142309171
0.69350,1.531920355
0.69400,3.973475617
0.69450,8.551391732
0.69500,11.90853022
0.69550,12.82411344
0.69600,13.12930785
0.69650,14.35008548
0.69700,15.57086311
0.69750,16.79164074
0.69800,19.233196
0.69850,21.67475126
0.69900,21.36955686
0.69950,16.79164074
0.70000,10.68775259
0.70050,5.499447655
0.70100,1.226725948
0.70150,-2.435606945
0.70200,-5.487551022
0.70250,-7.318717468
0.70300,-10.37066155
0.70350,-13.11741121
0.70400,-11.89663358
0.70450,-5.79274543
0.70500,-0.9096349063
0.70550,-2.130412537
0.70600,-7.01352306
0.70650,-8.539495099
0.70700,-5.182356614
0.70750,-0.2992460909
0.70800,4.278670025
0.70850,8.85658614
0.70900,9.466974956
0.70950,3.057892394
0.71000,-4.571967799
0.71050,-4.266773391
0.71100,4.278670025
0.71150,10.38255818
0.71200,7.941002917
0.71250,3.057892394
0.71300,2.752697986
0.71350,4.583864432
0.71400,2.752697986
0.71450,-0.6044404986
0.71500,-2.435606945
0.71550,-4.266773391
0.71600,-10.37066155
0.71650,-18.61091055
0.71700,-22.88363226
0.71750,-23.18882667
0.71800,-24.4096043
0.71850,-26.24077075
0.71900,-26.24077075
0.71950,-26.85115956
0.72000,-30.51349245
0.72050,-29.90310364
0.72100,-14.03299444
0.72150,14.35008548
0.72200,40.29161013
0.72250,55.24613611
0.72300,66.5383292
0.72350,79.05129991
0.72400,84.23960484
0.72450,73.55780057
0.72500,54.6357473
0.72550,40.90199895
0.72600,32.66174994
0.72650,18.62280719
0.72700,-5.182356614
0.72750,-33.26024212
0.72800,-56.45501711
0.72850,-73.54590394
0.72900,-85.14329143
0.72950,-90.33159636
0.73000,-88.50042992
0.73050,-81.17576413
0.73100,-71.71473749
0.73150,-60.42254441
0.73200,-47.90957369
0.73250,-34.48101975
0.73300,-22.27324345
0.73350,-13.72780003
0.73400,-10.67585595
0.73450,-10.98105036
0.73500,-10.37066155
0.73550,-8.234300691
0.73600,-8.234300691
0.73650,-12.81221681
0.73700,-17.69532733
0.73750,-18.30571615
0.73800,-17.08493851
0.73850,-17.69532733
0.73900,-18.91610496
0.73950,-14.94857766
0.74000,-6.403134245
0.74050,0.3111427245
0.74100,2.142309171
0.74150,2.142309171
0.74200,3.973475617
0.74250,7.330614102
0.74300,9.772169363
0.74350,9.466974956
0.74400,8.85658614
0.74450,9.161780548
0.74500,10.38255818
0.74550,10.68775259
0.74600,10.07736377
0.74650,9.466974956
0.74700,10.68775259
0.74750,11.90853022
0.74800,11.60333581
0.74850,9.772169363
0.74900,8.85658614
0.74950,10.07736377
0.75000,11.90853022
0.75050,12.51891903
0.75100,12.21372462
0.75150,11.90853022
0.75200,10.99294699
0.75250,9.466974956
0.75300,8.246197325
0.75350,8.551391732
0.75400,9.161780548
0.75450,8.246197325
0.75500,7.025419694
0.75550,7.330614102
0.75600,8.85658614
0.75650,9.772169363
0.75700,8.85658614
0.75750,8.246197325
0.75800,7.635808509
0.75850,6.720225286
0.75900,5.804642063
0.75950,6.415030879
0.76000,8.246197325
0.76050,8.246197325
0.76100,6.415030879
0.76150,4.88905884
0.76200,5.804642063
0.76250,7.025419694
0.76300,6.720225286
0.76350,5.194253248
0.76400,4.278670025
0.76450,4.88905884
0.76500,5.194253248
0.76550,4.583864432
0.76600,3.973475617
0.76650,3.973475617
0.76700,4.278670025
0.76750,3.973475617
0.76800,3.363086802
0.76850,3.363086802
0.76900,3.973475617
0.76950,4.583864432
0.77000,4.583864432
0.77050,4.583864432
0.77100,5.194253248
0.77150,5.804642063
0.77200,4.88905884
0.77250,3.363086802
0.77300,2.142309171
0.77350,2.447503578
0.77400,3.057892394
0.77450,2.447503578
0.77500,1.226725948
0.77550,0.9215315399
0.77600,1.531920355
0.77650,2.142309171
0.77700,2.142309171
0.77750,1.837114763
0.77800,1.837114763
0.77850,0.9215315399
0.77900,0.3111427245
0.77950,0.3111427245
0.78000,0.9215315399
0.78050,1.226725948
0.78100,1.837114763
0.78150,3.668281209
0.78200,5.804642063
0.78250,5.194253248
0.78300,3.363086802
0.78350,5.194253248
0.78400,11.2981414
0.78450,15.57086311
0.78500,14.04489107
0.78550,13.43450226
0.78600,21.36955686
0.78650,34.18772198
0.78700,39.37602691
0.78750,31.44097231
0.78800,19.53839041
0.78850,13.12930785
0.78900,11.90853022
0.78950,9.161780548
0.79000,3.363086802
0.79050,-1.214829314
0.79100,-4.571967799
0.79150,-9.455078322
0.79200,-16.4745497
0.79250,-22.88363226
0.79300,-26.54596515
0.79350,-28.68232601
0.79400,-31.12388127
0.79450,-32.64985331
0.79500,-32.95504771
0.79550,-31.42907568
0.79600,-28.07193719
0.79650,-21.66285463
0.79700,-12.5070224
0.79750,-2.740801353
0.79800,3.973475617
0.79850,8.551391732
0.79900,12.21372462
0.79950,15.87605752
0.80000,17.70722396
0.80050,15.57086311
0.80100,10.68775259
0.80150,7.025419694
0.80200,6.720225286
0.80250,7.330614102
0.80300,6.109836471
0.80350,3.668281209
0.80400,2.142309171
0.80450,0.6163371322
0.80500,-3.961578983
0.80550,-10.37066155
0.80600,-13.42260562
0.80650,-9.149883914
0.80700,-0.2992460909
0.80750,8.246197325
0.80800,14.04489107
0.80850,14.96047429
0.80900,11.90853022
0.80950,10.68775259
0.81000,18.01241837
0.81050,31.44097231
0.81100,42.12277658
0.81150,42.42797099
0.81200,35.40849961
0.81250,27.47344501
0.81300,18.31761278
0.81350,7.635808509
0.81400,-0.9096349063
0.81450,-4.571967799
0.81500,-8.844689507
0.81550,-20.13688259
0.81600,-36.3121862
0.81650,-48.2147681
0.81700,-53.40307303
0.81750,-58.28618355
0.81800,-64.39007171
0.81850,-67.13682138
0.81900,-64.0848773
0.81950,-59.20176678
0.82000,-54.31865625
0.82050,-44.55243521
0.82100,-28.98752041
0.82150,-14.64338325
0.82200,-7.318717468
0.82250,-3.351190168
0.82300,0.6163371322
0.82350,2.447503578
0.82400,-0.6044404986
0.82450,-3.351190168
0.82500,0.005948316792
0.82550,5.194253248
0.82600,4.88905884
0.82650,2.142309171
0.82700,5.499447655
0.82750,15.2656687
0.82800,22.28514008
0.82850,22.59033449
0.82900,21.67475126
0.82950,21.06436245
0.83000,16.48644633
0.83050,5.194253248
0.83100,-6.097939837
0.83150,-13.11741121
0.83200,-17.39013292
0.83250,-22.27324345
0.83300,-26.85115956
0.83350,-28.3771316
0.83400,-27.46154838
0.83450,-25.93557634
0.83500,-22.27324345
0.83550,-14.64338325
0.83600,-5.79274543
0.83650,0.005948316792
0.83700,2.447503578
0.83750,4.278670025
0.83800,6.415030879
0.83850,8.551391732
0.83900,9.466974956
0.83950,9.466974956
0.84000,9.161780548
0.84050,7.941002917
0.84100,6.415030879
0.84150,4.278670025
0.84200,2.447503578
0.84250,2.142309171
0.84300,3.668281209
0.84350,5.804642063
0.84400,7.025419694
0.84450,7.941002917
0.84500,9.161780548
0.84550,10.68775259
0.84600,10.68775259
0.84650,9.466974956
0.84700,7.941002917
0.84750,6.720225286
0.84800,5.499447655
0.84850,4.583864432
0.84900,4.88905884
0.84950,6.109836471
0.85000,7.025419694
0.85050,7.330614102
0.85100,7.330614102
0.85150,7.635808509
0.85200,6.720225286
0.85250,5.194253248
0.85300,4.88905884
0.85350,6.109836471
0.85400,6.720225286
0.85450,6.109836471
0.85500,5.499447655
0.85550,6.720225286
0.85600,7.635808509
0.85650,6.720225286
0.85700,5.804642063
0.85750,7.025419694
0.85800,9.772169363
0.85850,10.99294699
0.85900,11.90853022
0.85950,14.04489107
0.86000,16.79164074
0.86050,17.09683515
0.86100,15.57086311
0.86150,15.87605752
0.86200,16.79164074
0.86250,14.35008548
0.86300,8.551391732
0.86350,8.246197325
0.86400,18.31761278
0.86450,29.91500027
0.86500,31.1357779
0.86550,21.36955686
0.86600,12.51891903
0.86650,11.2981414
0.86700,14.04489107
0.86750,13.73969666
0.86800,10.68775259
0.86850,9.161780548
0.86900,8.246197325
0.86950,4.278670025
0.87000,-3.04599576
0.87050,-9.76027273
0.87100,-12.20182799
0.87150,-12.5070224
0.87200,-12.81221681
0.87250,-13.42260562
0.87300,-13.72780003
0.87350,-14.64338325
0.87400,-17.08493851
0.87450,-19.22129937
0.87500,-20.442077
0.87550,-22.27324345
0.87600,-27.46154838
0.87650,-32.95504771
0.87700,-34.48101975
0.87750,-35.70179738
0.87800,-42.11087995
0.87850,-50.04593455
0.87900,-49.74074014
0.87950,-40.2797135
0.88000,-32.03946449
0.88050,-27.76674278
0.88100,-17.08493851
0.88150,0.6163371322
0.88200,11.2981414
0.88250,9.772169363
0.88300,17.70722396
0.88350,52.19419203
0.88400,93.70063148
0.88450,107.4343798
0.88500,90.95388181
0.88550,73.25260617
0.88600,70.5058565
0.88650,69.59027327
0.88700,56.77210815
0.88750,39.0708325
0.88800,23.2007233
0.88850,3.363086802
0.88900,-21.66285463
0.88950,-38.14335265
0.89000,-37.22776942
0.89050,-31.12388127
0.89100,-32.3446589
0.89150,-35.39660298
0.89200,-30.81868686
0.89250,-22.27324345
0.89300,-18.61091055
0.89350,-13.42260562
0.89400,3.363086802
0.89450,26.25266738
0.89500,37.85005487
0.89550,35.1033052
0.89600,28.38902823
0.89650,22.89552889
0.89700,12.82411344
0.89750,-4.266773391
0.89800,-22.27324345
0.89850,-36.00699179
0.89900,-48.82515692
0.89950,-61.64332204
0.90000,-69.88357105
0.90050,-71.40954309
0.90100,-69.57837664
0.90150,-68.66279342
0.90200,-66.22123815
0.90250,-58.89657237
0.90300,-48.82515692
0.90350,-39.05893587
0.90400,-28.98752041
0.90450,-18.91610496
0.90500,-11.59143918
0.90550,-7.929106283
0.90600,-3.656384576
0.90650,2.752697986
0.90700,7.941002917
0.90750,7.025419694
0.90800,3.668281209
0.90850,3.057892394
0.90900,2.447503578
0.90950,-2.740801353
0.91000,-8.539495099
0.91050,-7.01352306
0.91100,0.6163371322
0.91150,5.499447655
0.91200,3.668281209
0.91250,0.9215315399
0.91300,1.531920355
0.91350,1.531920355
0.91400,-1.520023722
0.91450,-3.04599576
0.91500,-0.6044404986
0.91550,-0.2992460909
0.91600,-3.656384576
0.91650,-1.214829314
0.91700,12.21372462
0.91750,26.55786179
0.91800,26.25266738
0.91850,14.96047429
0.91900,7.635808509
0.91950,11.90853022
0.92000,19.233196
0.92050,23.81111212
0.92100,27.77863942
0.92150,30.52538909
0.92200,25.33708416
0.92250,11.2981414
0.92300,-0.6044404986
0.92350,-3.961578983
0.92400,-4.571967799
0.92450,-10.06546714
0.92500,-17.39013292
0.92550,-19.52649378
0.92600,-18.30571615
0.92650,-19.52649378
0.92700,-23.79921548
0.92750,-26.24077075
0.92800,-25.32518752
0.92850,-24.10440989
0.92900,-22.57843785
0.92950,-18.91610496
0.93000,-13.11741121
0.93050,-6.708328653
0.93100,-0.2992460909
0.93150,6.720225286
0.93200,11.90853022
0.93250,12.51891903
0.93300,10.38255818
0.93350,10.38255818
0.93400,13.73969666
0.93450,16.18125192
0.93500,15.87605752
0.93550,13.73969666
0.93600,11.90853022
0.93650,10.68775259
0.93700,9.161780548
0.93750,8.246197325
0.93800,8.246197325
0.93850,10.38255818
0.93900,14.35008548
0.93950,18.01241837
0.94000,18.92800159
0.94050,17.09683515
0.94100,14.35008548
0.94150,13.12930785
0.94200,11.2981414
0.94250,7.635808509
0.94300,3.973475617
0.94350,1.531920355
0.94400,0.005948316792
0.94450,-3.04599576
0.94500,-6.403134245
0.94550,-6.708328653
0.94600,-3.961578983
0.94650,-1.214829314
0.94700,0.3111427245
0.94750,2.447503578
0.94800,5.499447655
0.94850,7.635808509
0.94900,8.551391732
0.94950,9.161780548
0.95000,10.38255818
0.95050,11.2981414
0.95100,11.60333581
0.95150,11.2981414
0.95200,10.68775259
0.95250,10.68775259
0.95300,12.21372462
0.95350,13.43450226
0.95400,13.12930785
0.95450,11.60333581
0.95500,10.99294699
0.95550,12.21372462
0.95600,12.21372462
0.95650,9.161780548
0.95700,4.88905884
0.95750,3.363086802
0.95800,3.973475617
0.95850,4.88905884
0.95900,6.109836471
0.95950,9.161780548
0.96000,13.43450226
0.96050,16.79164074
0.96100,18.01241837
0.96150,18.92800159
0.96200,20.75916804
0.96250,23.81111212
0.96300,25.33708416
0.96350,23.2007233
0.96400,17.70722396
0.96450,12.51891903
0.96500,11.60333581
0.96550,12.51891903
0.96600,11.2981414
0.96650,7.025419694
0.96700,3.057892394
0.96750,2.142309171
0.96800,1.837114763
0.96850,0.6163371322
0.96900,-1.214829314
0.96950,-2.130412537
0.97000,-1.520023722
0.97050,-0.2992460909
0.97100,0.005948316792
0.97150,-1.825218129
0.97200,-6.097939837
0.97250,-10.67585595
0.97300,-16.4745497
0.97350,-26.24077075
0.97400,-37.22776942
0.97450,-43.02646317
0.97500,-41.50049113
0.97550,-39.05893587
0.97600,-37.83815824
0.97650,-29.59790923
0.97700,-6.708328653
0.97750,18.31761278
0.97800,29.30461146
0.97850,27.77863942
0.97900,32.96694435
0.97950,50.9734144
0.98000,65.31755156
0.98050,60.73963545
0.98100,42.7331654
0.98150,26.55786179
0.98200,16.79164074
0.98250,8.551391732
0.98300,1.531920355
0.98350,-2.130412537
0.98400,-8.844689507
0.98450,-23.18882667
0.98500,-39.05893587
0.98550,-46.68879606
0.98600,-46.07840725
0.98650,-45.46801843
0.98700,-46.07840725
0.98750,-40.58490791
0.98800,-28.07193719
0.98850,-16.4745497
0.98900,-10.98105036
0.98950,-8.234300691
0.99000,-4.266773391
0.99050,-3.04599576
0.99100,-5.487551022
0.99150,-4.571967799
0.99200,5.194253248
0.99250,18.62280719
0.99300,25.03188975
0.99350,22.89552889
0.99400,18.01241837
0.99450,13.73969666
0.99500,7.941002917
0.99550,2.142309171
0.99600,1.226725948
0.99650,3.057892394
0.99700,-0.2992460909
0.99750,-8.234300691
0.99800,-5.487551022
0.99850,13.43450226
0.99900,33.27213876
0.99950,33.57733316
1.00000,17.70722396
1.00050,8.551391732
1.00100,12.51891903
1.00150,13.12930785
1.00200,-3.04599576
1.00250,-25.93557634
1.00300,-40.2797135
1.00350,-48.51996251
1.00400,-63.16929408
1.00450,-82.09134735
1.00500,-91.55237399
1.00550,-87.8900411
1.00600,-81.78615295
1.00650,-79.64979209
1.00700,-75.37707039
1.00750,-60.72773882
1.00800,-39.97451909
1.00850,-21.96804904
1.00900,-9.149883914
1.00950,1.531920355
1.01000,12.51891903
1.01050,21.36955686
1.01100,25.64227856
1.01150,25.03188975
1.01200,21.67475126
1.01250,20.14877923
1.01300,21.06436245
1.01350,21.36955686
1.01400,16.18125192
1.01450,6.720225286
1.01500,-0.6044404986
1.01550,-2.740801353
1.01600,0.9215315399
1.01650,7.941002917
1.01700,14.04489107
1.01750,15.2656687
1.01800,10.07736377
1.01850,3.973475617
1.01900,2.752697986
1.01950,5.804642063
1.02000,7.025419694
1.02050,4.278670025
1.02100,2.142309171
1.02150,2.447503578
1.02200,3.057892394
1.02250,3.363086802
1.02300,7.330614102
1.02350,14.04489107
1.02400,17.40202956
1.02450,13.12930785
1.02500,6.720225286
1.02550,6.109836471
1.02600,11.60333581
1.02650,17.40202956
1.02700,19.53839041
1.02750,18.31761278
1.02800,16.48644633
1.02850,14.96047429
1.02900,14.96047429
1.02950,17.09683515
1.03000,18.01241837
1.03050,15.57086311
1.03100,10.07736377
1.03150,4.88905884
1.03200,1.226725948
1.03250,-2.130412537
1.03300,-5.79274543
1.03350,-7.929106283
1.03400,-8.234300691
1.03450,-7.623911876
1.03500,-6.403134245
1.03550,-4.266773391
1.03600,-2.740801353
1.03650,-5.79274543
1.03700,-14.33818885
1.03750,-21.05246581
1.03800,-20.13688259
1.03850,-14.33818885
1.03900,-10.06546714
1.03950,-8.539495099
1.04000,-6.708328653
1.04050,-2.435606945
1.04100,1.837114763
1.04150,6.109836471
1.04200,11.2981414
1.04250,16.18125192
1.04300,19.233196
1.04350,19.84358482
1.04400,19.53839041
1.04450,15.87605752
1.04500,6.109836471
1.04550,-4.266773391
1.04600,-6.708328653
1.04650,0.6163371322
1.04700,10.68775259
1.04750,21.36955686
1.04800,38.76563809
1.04850,62.8759963
1.04900,79.96688313
1.04950,79.35649432
1.05000,68.06430123
1.05050,59.82405223
1.05100,54.9409417
1.05150,42.42797099
1.05200,19.233196
1.05250,-6.708328653
1.05300,-30.51349245
1.05350,-53.09787862
1.05400,-74.15629275
1.05450,-88.80562432
1.05500,-93.99392926
1.05550,-93.07834603
1.05600,-89.41601314
1.05650,-80.26018091
1.05700,-64.39007171
1.05750,-45.16282402
1.05800,-28.07193719
1.05850,-13.11741121
1.05900,1.531920355
1.05950,15.57086311
1.06000,24.11630653
1.06050,25.94747297
1.06100,23.81111212
1.06150,19.84358482
1.06200,14.96047429
1.06250,8.85658614
1.06300,3.973475617
1.06350,1.226725948
1.06400,2.447503578
1.06450,8.246197325
1.06500,15.87605752
1.06550,20.45397363
1.06600,21.67475126
1.06650,28.38902823
1.06700,50.36302559
1.06750,81.79804958
1.06800,103.7720469
1.06850,102.8564637
1.06900,86.3759657
1.06950,69.28507887
1.07000,57.07730256
1.07050,43.64874862
1.07100,24.72669534
1.07150,0.9215315399
1.07200,-24.71479871
1.07250,-49.74074014
1.07300,-66.22123815
1.07350,-69.27318223
1.07400,-62.55890526
1.07450,-56.76021152
1.07500,-54.92904507
1.07550,-50.35112895
1.07600,-39.97451909
1.07650,-30.81868686
1.07700,-29.59790923
1.07750,-35.09140857
1.07800,-39.66932468
1.07850,-38.44854705
1.07900,-31.73427008
1.07950,-21.66285463
1.08000,-14.33818885
1.08050,-15.86416088
1.08100,-25.32518752
1.08150,-30.20829805
1.08200,-21.66285463
1.08250,-3.656384576
1.08300,11.60333581
1.08350,21.36955686
1.08400,30.83058349
1.08450,41.81758217
1.08500,48.83705355
1.08550,47.0058871
1.08600,39.0708325
1.08650,29.91500027
1.08700,18.62280719
1.08750,3.363086802
1.08800,-11.59143918
1.08850,-19.52649378
1.08900,-20.13688259
1.08950,-20.442077
1.09000,-26.85115956
1.09050,-35.70179738
1.09100,-41.19529672
1.09150,-41.19529672
1.09200,-37.53296383
1.09250,-32.3446589
1.09300,-24.10440989
1.09350,-13.11741121
1.09400,-3.351190168
1.09450,2.447503578
1.09500,7.635808509
1.09550,14.65527989
1.09600,21.67475126
1.09650,22.89552889
1.09700,17.40202956
1.09750,8.85658614
1.09800,0.3111427245
1.09850,-8.539495099
1.09900,-17.69532733
1.09950,-23.18882667
1.10000,-23.49402108
1.10050,-20.13688259
1.10100,-15.25377207
1.10150,-7.623911876
1.10200,3.363086802
1.10250,15.2656687
1.10300,27.1682506
1.10350,38.15524928
1.10400,46.39549829
1.10450,48.22666473
1.10500,42.12277658
1.10550,31.74616672
1.10600,21.67475126
1.10650,11.90853022
1.10700,1.531920355
1.10750,-8.234300691
1.10800,-18.00052174
1.10850,-28.68232601
1.10900,-37.53296383
1.10950,-39.36413028
1.11000,-32.95504771
1.11050,-26.54596515
1.11100,-24.71479871
1.11150,-24.10440989
1.11200,-20.13688259
1.11250,-16.4745497
1.11300,-19.22129937
1.11350,-24.10440989
1.11400,-23.18882667
1.11450,-15.86416088
1.11500,-9.149883914
1.11550,-4.266773391
1.11600,3.973475617
1.11650,16.18125192
1.11700,27.1682506
1.11750,33.27213876
1.11800,37.54486046
1.11850,41.81758217
1.11900,43.34355421
1.11950,43.0383598
1.12000,43.95394303
1.12050,47.31108151
1.12100,50.66822
1.12150,52.80458085
1.12200,54.9409417
1.12250,55.24613611
1.12300,49.44744236
1.12350,39.37602691
1.12400,29.91500027
1.12450,22.89552889
1.12500,12.21372462
1.12550,-4.877162206
1.12600,-24.71479871
1.12650,-39.97451909
1.12700,-46.99399047
1.12750,-47.29918488
1.12800,-45.77321284
1.12850,-45.46801843
1.12900,-46.07840725
1.12950,-41.80568554
1.13000,-28.07193719
1.13050,-9.455078322
1.13100,3.668281209
1.13150,9.466974956
1.13200,13.43450226
1.13250,19.233196
1.13300,24.42150093
1.13350,24.72669534
1.13400,20.45397363
1.13450,12.51891903
1.13500,2.447503578
1.13550,-6.097939837
1.13600,-8.234300691
1.13650,-5.79274543
1.13700,-7.01352306
1.13750,-15.25377207
1.13800,-22.88363226
1.13850,-21.66285463
1.13900,-14.94857766
1.13950,-11.89663358
1.14000,-12.81221681
1.14050,-11.59143918
1.14100,-7.01352306
1.14150,-4.877162206
1.14200,-5.79274543
1.14250,-2.740801353
1.14300,6.720225286
1.14350,15.57086311
1.14400,16.18125192
1.14450,11.90853022
1.14500,8.551391732
1.14550,6.109836471
1.14600,2.142309171
1.14650,-0.6044404986
1.14700,2.142309171
1.14750,5.804642063
1.14800,2.752697986
1.14850,-4.266773391
1.14900,-5.182356614
1.14950,3.057892394
1.15000,10.07736377
1.15050,7.941002917
1.15100,3.973475617
1.15150,7.941002917
1.15200,15.2656687
1.15250,15.87605752
1.15300,8.551391732
1.15350,2.447503578
1.15400,0.005948316792
1.15450,-5.79274543
1.15500,-21.35766022
1.15550,-38.14335265
1.15600,-45.46801843
1.15650,-42.41607435
1.15700,-35.39660298
1.15750,-29.29271482
1.15800,-20.442077
1.15850,-5.487551022
1.15900,11.90853022
1.15950,26.25266738
1.16000,34.49291639
1.16050,39.37602691
1.16100,42.42797099
1.16150,41.51238776
1.16200,33.88252757
1.16250,20.45397363
1.16300,4.583864432
1.16350,-10.98105036
1.16400,-24.71479871
1.16450,-34.17582535
1.16500,-37.22776942
1.16550,-36.3121862
1.16600,-34.17582535
1.16650,-31.12388127
1.16700,-24.71479871
1.16750,-16.16935529
1.16800,-10.67585595
1.16850,-9.76027273
1.16900,-9.455078322
1.16950,-4.877162206
1.17000,2.142309171
1.17050,7.941002917
1.17100,12.21372462
1.17150,16.48644633
1.17200,20.75916804
1.17250,23.2007233
1.17300,23.50591771
1.17350,22.89552889
1.17400,23.81111212
1.17450,28.99941705
1.17500,38.15524928
1.17550,45.17472066
1.17600,43.0383598
1.17650,31.1357779
1.17700,19.53839041
1.17750,17.40202956
1.17800,23.81111212
1.17850,29.30461146
1.17900,29.91500027
1.17950,28.38902823
1.18000,26.25266738
1.18050,21.97994567
1.18100,16.79164074
1.18150,13.43450226
1.18200,10.99294699
1.18250,4.583864432
1.18300,-6.097939837
1.18350,-15.86416088
1.18400,-20.74727141
1.18450,-24.71479871
1.18500,-30.51349245
1.18550,-34.78621416
1.18600,-33.87063094
1.18650,-28.68232601
1.18700,-19.83168818
1.18750,-4.877162206
1.18800,13.12930785
1.18850,25.94747297
1.18900,29.91500027
1.18950,32.05136113
1.19000,36.01888843
1.19050,32.66174994
1.19100,14.96047429
1.19150,-7.929106283
1.19200,-23.49402108
1.19250,-33.26024212
1.19300,-49.43554573
1.19350,-72.93551512
1.19400,-92.46795722
1.19450,-101.9289839
1.19500,-104.0653447
1.19550,-101.6237894
1.19600,-90.63679077
1.19650,-72.63032072
1.19700,-56.1498227
1.19750,-42.41607435
1.19800,-25.63038193
1.19850,-5.182356614
1.19900,11.2981414
1.19950,20.45397363
1.20000,28.99941705
1.20050,39.98641573
1.20100,48.53185914
1.20150,52.49938644
1.20200,58.29808019
1.20250,67.75910683
1.20300,70.8110509
1.20350,60.43444104
1.20400,43.95394303
1.20450,31.74616672
1.20500,23.50591771
1.20550,12.51891903
1.20600,-0.9096349063
1.20650,-14.64338325
1.20700,-28.07193719
1.20750,-38.75374146
1.20800,-39.05893587
1.20850,-27.76674278
1.20900,-14.33818885
1.20950,-9.149883914
1.21000,-7.318717468
1.21050,-0.6044404986
1.21100,9.161780548
1.21150,14.35008548
1.21200,14.65527989
1.21250,17.40202956
1.21300,23.81111212
1.21350,28.38902823
1.21400,26.86305619
1.21450,21.97994567
1.21500,15.2656687
1.21550,7.941002917
1.21600,3.363086802
1.21650,5.804642063
1.21700,12.21372462
1.21750,14.96047429
1.21800,12.51891903
1.21850,10.68775259
1.21900,10.99294699
1.21950,9.466974956
1.22000,2.447503578
1.22050,-7.01352306
1.22100,-16.16935529
1.22150,-24.71479871
1.22200,-33.87063094
1.22250,-43.02646317
1.22300,-50.35112895
1.22350,-54.62385066
1.22400,-54.01346185
1.22450,-46.99399047
1.22500,-35.39660298
1.22550,-22.27324345
1.22600,-10.37066155
1.22650,-0.2992460909
1.22700,7.635808509
1.22750,13.12930785
1.22800,15.57086311
1.22850,16.18125192
1.22900,14.96047429
1.22950,11.90853022
1.23000,7.025419694
1.23050,2.142309171
1.23100,-3.04599576
1.23150,-10.37066155
1.23200,-17.69532733
1.23250,-19.83168818
1.23300,-14.03299444
1.23350,-3.351190168
1.23400,6.109836471
1.23450,12.21372462
1.23500,17.40202956
1.23550,24.11630653
1.23600,30.83058349
1.23650,33.27213876
1.23700,32.05136113
1.23750,30.52538909
1.23800,32.96694435
1.23850,37.23966606
1.23900,38.46044369
1.23950,33.27213876
1.24000,26.55786179
1.24050,24.42150093
1.24100,26.25266738
1.24150,26.55786179
1.24200,21.67475126
1.24250,14.96047429
1.24300,10.07736377
1.24350,5.194253248
1.24400,-1.520023722
1.24450,-10.06546714
1.24500,-18.91610496
1.24550,-27.76674278
1.24600,-36.3121862
1.24650,-40.2797135
1.24700,-39.66932468
1.24750,-38.44854705
1.24800,-39.05893587
1.24850,-36.3121862
1.24900,-26.85115956
1.24950,-16.4745497
1.25000,-14.64338325
1.25050,-18.61091055
1.25100,-18.30571615
1.25150,-10.98105036
1.25200,-5.79274543
1.25250,-6.403134245
1.25300,-6.403134245
1.25350,-0.6044404986
1.25400,6.720225286
1.25450,10.68775259
1.25500,14.35008548
1.25550,22.59033449
1.25600,33.27213876
1.25650,41.20719336
1.25700,48.83705355
1.25750,61.65521867
1.25800,78.13571669
1.25850,89.73310418
1.25900,89.42790977
1.25950,79.66168873
1.26000,66.8435236
1.26050,54.6357473
1.26100,41.20719336
1.26150,23.2007233
1.26200,0.6163371322
1.26250,-22.88363226
1.26300,-42.72126876
1.26350,-53.40307303
1.26400,-54.31865625
1.26450,-50.35112895
1.26500,-49.74074014
1.26550,-54.01346185
1.26600,-58.28618355
1.26650,-56.76021152
1.26700,-51.57190658
1.26750,-46.99399047
1.26800,-41.80568554
1.26850,-30.20829805
1.26900,-14.33818885
1.26950,-5.79274543
1.27000,-8.234300691
1.27050,-10.37066155
1.27100,-0.9096349063
1.27150,14.04489107
1.27200,22.28514008
1.27250,20.75916804
1.27300,19.233196
1.27350,20.14877923
1.27400,14.96047429
1.27450,-2.130412537
1.27500,-22.88363226
1.27550,-36.92257502
1.27600,-44.55243521
1.27650,-53.09787862
1.27700,-64.39007171
1.27750,-72.93551512
1.27800,-74.15629275
1.27850,-69.27318223
1.27900,-62.25371085
1.27950,-52.79268422
1.28000,-39.97451909
1.28050,-26.54596515
1.28100,-15.25377207
1.28150,-5.79274543
1.28200,4.278670025
1.28250,16.18125192
1.28300,26.25266738
1.28350,34.79811079
1.28400,44.56433184
1.28450,58.29808019
1.28500,70.5058565
1.28550,75.69416143
1.28600,73.25260617
1.28650,67.75910683
1.28700,61.04482986
1.28750,51.27860881
1.28800,39.0708325
1.28850,26.55786179
1.28900,14.35008548
1.28950,2.447503578
1.29000,-8.234300691
1.29050,-16.77974411
1.29100,-24.71479871
1.29150,-32.95504771
1.29200,-37.22776942
1.29250,-34.17582535
1.29300,-26.85115956
1.29350,-21.66285463
1.29400,-16.4745497
1.29450,-4.266773391
1.29500,12.51891903
1.29550,24.42150093
1.29600,25.03188975
1.29650,20.45397363
1.29700,18.31761278
1.29750,18.01241837
1.29800,17.09683515
1.29850,17.09683515
1.29900,19.84358482
1.29950,23.81111212
1.30000,26.25266738
1.30050,27.77863942
1.30100,29.91500027
1.30150,31.1357779
1.30200,28.38902823
1.30250,20.45397363
1.30300,9.466974956
1.30350,0.005948316792
1.30400,-3.351190168
1.30450,-3.04599576
1.30500,-5.79274543
1.30550,-16.4745497
1.30600,-29.59790923
1.30650,-36.00699179
1.30700,-34.17582535
1.30750,-31.42907568
1.30800,-31.42907568
1.30850,-30.81868686
1.30900,-27.15635397
1.30950,-21.05246581
1.31000,-15.86416088
1.31050,-11.59143918
1.31100,-7.929106283
1.31150,-5.487551022
1.31200,-3.351190168
1.31250,-0.2992460909
1.31300,0.3111427245
1.31350,-4.571967799
1.31400,-10.98105036
1.31450,-8.539495099
1.31500,6.109836471
1.31550,26.86305619
1.31600,45.17472066
1.31650,60.43444104
1.31700,73.25260617
1.31750,81.49285517
1.31800,82.7136328
1.31850,79.66168873
1.31900,74.7785782
1.31950,65.01235716
1.32000,46.09030388
1.32050,18.31761278
1.32100,-10.98105036
1.32150,-36.61738061
1.32200,-54.31865625
1.32250,-63.47448849
1.32300,-67.44201579
1.32350,-70.49395986
1.32400,-72.63032072
1.32450,-70.49395986
1.32500,-61.33812763
1.32550,-50.04593455
1.32600,-42.11087995
1.32650,-41.19529672
1.32700,-45.77321284
1.32750,-50.65632336
1.32800,-49.43554573
1.32850,-39.97451909
1.32900,-30.20829805
1.32950,-29.90310364
1.33000,-36.92257502
1.33050,-38.44854705
1.33100,-27.46154838
1.33150,-10.98105036
1.33200,0.9215315399
1.33250,8.246197325
1.33300,14.35008548
1.33350,18.62280719
1.33400,18.31761278
1.33450,16.18125192
1.33500,15.57086311
1.33550,15.57086311
1.33600,12.51891903
1.33650,10.38255818
1.33700,15.2656687
1.33750,26.55786179
1.33800,36.62927724
1.33850,43.64874862
1.33900,53.10977526
1.33950,66.5383292
1.34000,76.30455024
1.34050,76.30455024
1.34100,69.59027327
1.34150,62.26560749
1.34200,53.41496966
1.34250,38.15524928
1.34300,16.79164074
1.34350,-2.130412537
1.34400,-14.64338325
1.34450,-21.96804904
1.34500,-28.07193719
1.34550,-32.3446589
1.34600,-31.73427008
1.34650,-26.24077075
1.34700,-20.74727141
1.34750,-20.13688259
1.34800,-23.18882667
1.34850,-23.79921548
1.34900,-20.442077
1.34950,-18.91610496
1.35000,-25.63038193
1.35050,-37.22776942
1.35100,-43.33165758
1.35150,-37.53296383
1.35200,-26.24077075
1.35250,-19.22129937
1.35300,-17.69532733
1.35350,-14.33818885
1.35400,-4.571967799
1.35450,7.941002917
1.35500,18.62280719
1.35550,25.33708416
1.35600,28.69422264
1.35650,30.22019468
1.35700,29.91500027
1.35750,31.1357779
1.35800,35.40849961
1.35850,40.59680454
1.35900,39.37602691
1.35950,27.1682506
1.36000,8.551391732
1.36050,-6.403134245
1.36100,-13.72780003
1.36150,-17.69532733
1.36200,-22.88363226
1.36250,-26.54596515
1.36300,-24.10440989
1.36350,-16.4745497
1.36400,-7.929106283
1.36450,0.3111427245
1.36500,8.85658614
1.36550,15.57086311
1.36600,19.84358482
1.36650,25.33708416
1.36700,31.74616672
1.36750,31.44097231
1.36800,18.62280719
1.36850,1.226725948
1.36900,-7.318717468
1.36950,-7.929106283
1.37000,-9.455078322
1.37050,-15.25377207
1.37100,-18.30571615
1.37150,-18.00052174
1.37200,-20.74727141
1.37250,-26.24077075
1.37300,-25.32518752
1.37350,-16.16935529
1.37400,-10.06546714
1.37450,-13.72780003
1.37500,-19.22129937
1.37550,-18.00052174
1.37600,-12.81221681
1.37650,-8.539495099
1.37700,-0.9096349063
1.37750,13.43450226
1.37800,26.55786179
1.37850,28.08383383
1.37900,23.2007233
1.37950,27.77863942
1.38000,45.17472066
1.38050,63.18119071
1.38100,70.8110509
1.38150,67.45391242
1.38200,58.6032746
1.38250,44.25913743
1.38300,23.2007233
1.38350,-2.130412537
1.38400,-23.18882667
1.38450,-35.39660298
1.38500,-43.33165758
1.38550,-54.92904507
1.38600,-68.66279342
1.38650,-73.54590394
1.38700,-61.64332204
1.38750,-38.44854705
1.38800,-18.30571615
1.38850,-10.37066155
1.38900,-8.844689507
1.38950,-3.351190168
1.39000,9.772169363
1.39050,27.1682506
1.39100,40.90199895
1.39150,48.83705355
1.39200,54.02535848
1.39250,58.6032746
1.39300,58.29808019
1.39350,50.9734144
1.39400,43.0383598
1.39450,42.12277658
1.39500,44.56433184
1.39550,36.32408283
1.39600,13.73969666
1.39650,-12.81221681
1.39700,-34.78621416
1.39750,-53.70826744
1.39800,-72.0199319
1.39850,-84.83809702
1.39900,-89.11081873
1.39950,-90.63679077
1.40000,-93.99392926
1.40050,-92.16276281
1.40100,-78.73420887
1.40150,-58.59137796
1.40200,-40.89010232
1.40250,-23.49402108
1.40300,-0.9096349063
1.40350,17.40202956
1.40400,18.92800159
1.40450,4.278670025
1.40500,-8.234300691
1.40550,-8.539495099
1.40600,-2.435606945
1.40650,0.6163371322
1.40700,0.3111427245
1.40750,-1.825218129
1.40800,-6.708328653
1.40850,-12.5070224
1.40900,-16.16935529
1.40950,-14.64338325
1.41000,-10.06546714
1.41050,-5.182356614
1.41100,-1.825218129
1.41150,0.005948316792
1.41200,0.9215315399
1.41250,4.88905884
1.41300,14.04489107
1.41350,24.72669534
1.41400,31.44097231
1.41450,33.88252757
1.41500,35.71369402
1.41550,37.85005487
1.41600,37.54486046
1.41650,33.27213876
1.41700,26.25266738
1.41750,18.31761278
1.41800,9.466974956
1.41850,-1.214829314
1.41900,-14.64338325
1.41950,-28.07193719
1.42000,-35.39660298
1.42050,-33.26024212
1.42100,-23.49402108
1.42150,-11.59143918
1.42200,1.837114763
1.42250,18.31761278
1.42300,34.49291639
1.42350,43.95394303
1.42400,43.95394303
1.42450,40.29161013
1.42500,37.85005487
1.42550,35.40849961
1.42600,29.60980586
1.42650,20.75916804
1.42700,10.68775259
1.42750,0.9215315399
1.42800,-7.623911876
1.42850,-11.59143918
1.42900,-10.67585595
1.42950,-7.623911876
1.43000,-5.487551022
1.43050,-3.961578983
1.43100,-2.435606945
1.43150,0.6163371322
1.43200,10.38255818
1.43250,28.99941705
1.43300,49.44744236
1.43350,60.73963545
1.43400,61.35002426
1.43450,62.5708019
1.43500,72.03182853
1.43550,79.66168873
1.43600,72.94741176
1.43650,53.10977526
1.43700,31.74616672
1.43750,14.04489107
1.43800,-6.708328653
1.43850,-32.95504771
1.43900,-57.37060033
1.43950,-72.32512631
1.44000,-78.73420887
1.44050,-80.26018091
1.44100,-75.68226479
1.44150,-63.16929408
1.44200,-48.2147681
1.44250,-39.05893587
1.44300,-37.53296383
1.44350,-36.61738061
1.44400,-29.59790923
1.44450,-18.91610496
1.44500,-9.455078322
1.44550,-3.961578983
1.44600,0.005948316792
1.44650,1.837114763
1.44700,0.005948316792
1.44750,-7.623911876
1.44800,-18.61091055
1.44850,-25.93557634
1.44900,-25.63038193
1.44950,-16.77974411
1.45000,-5.487551022
1.45050,2.142309171
1.45100,2.752697986
1.45150,-0.6044404986
1.45200,-3.656384576
1.45250,-3.04599576
1.45300,-2.130412537
1.45350,-4.877162206
1.45400,-11.89663358
1.45450,-16.77974411
1.45500,-15.55896648
1.45550,-10.98105036
1.45600,-9.149883914
1.45650,-10.67585595
1.45700,-9.149883914
1.45750,-2.130412537
1.45800,4.88905884
1.45850,5.499447655
1.45900,3.057892394
1.45950,5.804642063
1.46000,16.79164074
1.46050,31.74616672
1.46100,44.86952625
1.46150,53.10977526
1.46200,55.24613611
1.46250,50.9734144
1.46300,44.86952625
1.46350,39.98641573
1.46400,34.49291639
1.46450,22.59033449
1.46500,3.973475617
1.46550,-14.64338325
1.46600,-30.81868686
1.46650,-46.38360165
1.46700,-60.11735
1.46750,-66.22123815
1.46800,-63.47448849
1.46850,-59.20176678
1.46900,-58.89657237
1.46950,-57.06540592
1.47000,-43.02646317
1.47050,-16.16935529
1.47100,12.51891903
1.47150,33.57733316
1.47200,47.0058871
1.47250,57.99288578
1.47300,68.97988446
1.47350,76.91493906
1.47400,78.4409111
1.47450,73.86299498
1.47500,64.40196834
1.47550,51.58380322
1.47600,35.71369402
1.47650,18.01241837
1.47700,1.837114763
1.47750,-11.28624477
1.47800,-21.96804904
1.47850,-28.68232601
1.47900,-28.07193719
1.47950,-16.4745497
1.48000,1.837114763
1.48050,18.01241837
1.48100,25.64227856
1.48150,26.55786179
1.48200,24.42150093
1.48250,18.31761278
1.48300,5.499447655
1.48350,-10.98105036
1.48400,-24.71479871
1.48450,-29.90310364
1.48500,-29.59790923
1.48550,-28.68232601
1.48600,-29.29271482
1.48650,-27.15635397
1.48700,-19.52649378
1.48750,-10.06546714
1.48800,-3.656384576
1.48850,-2.435606945
1.48900,-5.487551022
1.48950,-11.59143918
1.49000,-20.13688259
1.49050,-27.76674278
1.49100,-29.90310364
1.49150,-26.85115956
1.49200,-24.71479871
1.49250,-26.85115956
1.49300,-28.68232601
1.49350,-25.01999311
1.49400,-17.08493851
1.49450,-11.59143918
1.49500,-7.929106283
1.49550,-1.520023722
1.49600,8.551391732
1.49650,15.87605752
1.49700,15.87605752
1.49750,12.82411344
1.49800,14.04489107
1.49850,18.62280719
1.49900,20.14877923
1.49950,17.70722396
1.50000,17.40202956
1.50050,23.81111212
1.50100,33.57733316
1.50150,40.90199895
1.50200,46.09030388
1.50250,52.80458085
1.50300,60.12924663
1.50350,61.65521867
1.50400,52.49938644
1.50450,37.23966606
1.50500,23.50591771
1.50550,14.04489107
1.50600,4.583864432
1.50650,-9.149883914
1.50700,-27.15635397
1.50750,-43.94204639
1.50800,-54.01346185
1.50850,-56.45501711
1.50900,-55.84462829
1.50950,-57.37060033
1.51000,-59.50696118
1.51050,-54.31865625
1.51100,-39.66932468
1.51150,-25.32518752
1.51200,-20.74727141
1.51250,-20.442077
1.51300,-14.64338325
1.51350,-4.266773391
1.51400,1.837114763
1.51450,3.668281209
1.51500,8.85658614
1.51550,15.87605752
1.51600,15.2656687
1.51650,6.109836471
1.51700,1.226725948
1.51750,7.330614102
1.51800,14.35008548
1.51850,12.51891903
1.51900,4.88905884
1.51950,-0.9096349063
1.52000,-6.403134245
1.52050,-11.89663358
1.52100,-10.98105036
1.52150,0.005948316792
1.52200,12.51891903
1.52250,13.73969666
1.52300,5.499447655
1.52350,0.005948316792
1.52400,2.142309171
1.52450,8.551391732
1.52500,14.04489107
1.52550,16.18125192
1.52600,14.96047429
1.52650,9.772169363
1.52700,3.668281209
1.52750,0.005948316792
1.52800,-0.6044404986
1.52850,2.752697986
1.52900,9.772169363
1.52950,16.48644633
1.53000,18.92800159
1.53050,17.09683515
1.53100,14.65527989
1.53150,11.90853022
1.53200,9.772169363
1.53250,10.07736377
1.53300,12.82411344
1.53350,11.2981414
1.53400,1.226725948
1.53450,-10.37066155
1.53500,-15.55896648
1.53550,-19.22129937
1.53600,-34.48101975
1.53650,-58.59137796
1.53700,-71.71473749
1.53750,-63.77968289
1.53800,-42.41607435
1.53850,-17.39013292
1.53900,11.60333581
1.53950,43.0383598
1.54000,64.09677393
1.54050,69.89546768
1.54100,70.8110509
1.54150,78.7461055
1.54200,90.6486874
1.54250,98.583742
1.54300,101.9408805
1.54350,100.4149085
1.54400,86.3759657
1.54450,54.02535848
1.54500,11.60333581
1.54550,-25.93557634
1.54600,-54.62385066
1.54650,-75.9874592
1.54700,-91.55237399
1.54750,-102.5393727
1.54800,-111.3900105
1.54850,-114.4419546
1.54900,-104.6757335
1.54950,-82.09134735
1.55000,-58.59137796
1.55050,-40.58490791
1.55100,-23.18882667
1.55150,-3.656384576
1.55200,9.161780548
1.55250,13.43450226
1.55300,18.92800159
1.55350,28.69422264
1.55400,30.22019468
1.55450,15.57086311
1.55500,-1.214829314
1.55550,-5.182356614
1.55600,-2.740801353
1.55650,-7.318717468
1.55700,-12.20182799
1.55750,-3.656384576
1.55800,9.466974956
1.55850,7.330614102
1.55900,-9.455078322
1.55950,-21.96804904
1.56000,-22.88363226
1.56050,-22.57843785
1.56100,-25.32518752
1.56150,-20.442077
1.56200,-7.01352306
1.56250,0.3111427245
1.56300,-7.01352306
1.56350,-18.91610496
1.56400,-21.35766022
1.56450,-14.64338325
1.56500,-7.01352306
1.56550,-1.214829314
1.56600,3.363086802
1.56650,7.025419694
1.56700,9.161780548
1.56750,10.38255818
1.56800,9.772169363
1.56850,6.109836471
1.56900,3.057892394
1.56950,4.583864432
1.57000,8.246197325
1.57050,10.07736377
1.57100,13.12930785
1.57150,22.59033449
1.57200,34.18772198
1.57250,38.46044369
1.57300,35.71369402
1.57350,38.46044369
1.57400,51.27860881
1.57450,62.8759963
1.57500,59.51885782
1.57550,43.34355421
1.57600,27.1682506
1.57650,16.79164074
1.57700,7.635808509
1.57750,-7.318717468
1.57800,-27.46154838
1.57850,-46.99399047
1.57900,-60.42254441
1.57950,-67.74721019
1.58000,-69.57837664
1.58050,-66.52643256
1.58100,-56.1498227
1.58150,-36.92257502
1.58200,-11.28624477
1.58250,12.82411344
1.58300,25.94747297
1.58350,23.81111212
1.58400,11.90853022
1.58450,1.837114763
1.58500,0.9215315399
1.58550,6.720225286
1.58600,13.73969666
1.58650,19.53839041
1.58700,26.86305619
1.58750,37.54486046
1.58800,49.44744236
1.58850,58.6032746
1.58900,62.26560749
1.58950,60.43444104
1.59000,54.02535848
1.59050,44.86952625
1.59100,35.1033052
1.59150,23.50591771
1.59200,7.941002917
1.59250,-12.81221681
1.59300,-34.48101975
1.59350,-50.04593455
1.59400,-56.76021152
1.59450,-59.20176678
1.59500,-61.03293322
1.59550,-58.28618355
1.59600,-42.41607435
1.59650,-14.33818885
1.59700,13.12930785
1.59750,28.38902823
1.59800,32.35655553
1.59850,32.35655553
1.59900,29.60980586
1.59950,21.06436245
1.60000,7.941002917
1.60050,-3.351190168
1.60100,-12.20182799
1.60150,-24.4096043
1.60200,-40.2797135
1.60250,-52.48748981
1.60300,-57.06540592
1.60350,-57.06540592
1.60400,-52.48748981
1.60450,-38.14335265
1.60500,-14.64338325
1.60550,6.415030879
1.60600,17.09683515
1.60650,20.75916804
1.60700,25.64227856
1.60750,29.91500027
1.60800,27.77863942
1.60850,19.233196
1.60900,11.2981414
1.60950,8.551391732
1.61000,9.466974956
1.61050,12.21372462
1.61100,14.96047429
1.61150,15.87605752
1.61200,16.48644633
1.61250,22.28514008
1.61300,34.18772198
1.61350,47.0058871
1.61400,55.85652493
1.61450,59.82405223
1.61500,57.68769137
1.61550,46.39549829
1.61600,27.77863942
1.61650,11.60333581
1.61700,2.142309171
1.61750,-6.403134245
1.61800,-20.13688259
1.61850,-34.17582535
1.61900,-40.89010232
1.61950,-40.89010232
1.62000,-39.36413028
1.62050,-37.53296383
1.62100,-33.26024212
1.62150,-28.3771316
1.62200,-24.71479871
1.62250,-21.05246581
1.62300,-15.86416088
1.62350,-10.98105036
1.62400,-7.318717468
1.62450,-2.740801353
1.62500,0.9215315399
1.62550,-2.435606945
1.62600,-16.16935529
1.62650,-30.20829805
1.62700,-33.56543653
1.62750,-26.54596515
1.62800,-17.39013292
1.62850,-8.844689507
1.62900,1.226725948
1.62950,10.99294699
1.63000,12.82411344
1.63050,4.88905884
1.63100,-3.656384576
1.63150,-4.571967799
1.63200,0.005948316792
1.63250,3.057892394
1.63300,0.005948316792
1.63350,-1.825218129
1.63400,3.973475617
1.63450,13.12930785
1.63500,14.04489107
1.63550,4.88905884
1.63600,-3.351190168
1.63650,-5.182356614
1.63700,-7.623911876
1.63750,-17.39013292
1.63800,-27.76674278
1.63850,-28.3771316
1.63900,-22.57843785
1.63950,-18.00052174
1.64000,-12.5070224
1.64050,0.005948316792
1.64100,16.48644633
1.64150,26.55786179
1.64200,28.99941705
1.64250,30.22019468
1.64300,31.1357779
1.64350,26.55786179
1.64400,18.62280719
1.64450,14.65527989
1.64500,13.73969666
1.64550,8.551391732
1.64600,1.837114763
1.64650,2.447503578
1.64700,8.551391732
1.64750,8.551391732
1.64800,3.363086802
1.64850,4.88905884
1.64900,13.73969666
1.64950,13.73969666
1.65000,-1.214829314
1.65050,-17.69532733
1.65100,-21.96804904
1.65150,-19.22129937
1.65200,-20.74727141
1.65250,-23.18882667
1.65300,-19.22129937
1.65350,-11.28624477
1.65400,-7.318717468
1.65450,-5.182356614
1.65500,2.447503578
1.65550,14.65527989
1.65600,22.59033449
1.65650,22.28514008
1.65700,18.92800159
1.65750,16.18125192
1.65800,13.43450226
1.65850,11.2981414
1.65900,12.51891903
1.65950,17.40202956
1.66000,22.59033449
1.66050,22.89552889
1.66100,18.62280719
1.66150,14.65527989
1.66200,16.48644633
1.66250,22.59033449
1.66300,23.2007233
1.66350,13.43450226
1.66400,-0.9096349063
1.66450,-12.20182799
1.66500,-18.91610496
1.66550,-25.93557634
1.66600,-34.48101975
1.66650,-41.19529672
1.66700,-43.63685198
1.66750,-38.44854705
1.66800,-21.35766022
1.66850,4.278670025
1.66900,23.81111212
1.66950,24.11630653
1.67000,13.12930785
1.67050,11.2981414
1.67100,24.72669534
1.67150,39.0708325
1.67200,40.29161013
1.67250,31.74616672
1.67300,25.64227856
1.67350,21.06436245
1.67400,8.246197325
1.67450,-15.25377207
1.67500,-38.44854705
1.67550,-50.35112895
1.67600,-55.53943388
1.67650,-65.91604375
1.67700,-79.9549865
1.67750,-79.34459769
1.67800,-51.57190658
1.67850,-11.89663358
1.67900,11.2981414
1.67950,8.85658614
1.68000,-3.656384576
1.68050,-9.455078322
1.68100,-5.487551022
1.68150,2.142309171
1.68200,11.90853022
1.68250,19.53839041
1.68300,17.40202956
1.68350,7.330614102
1.68400,2.752697986
1.68450,11.60333581
1.68500,25.64227856
1.68550,33.88252757
1.68600,37.54486046
1.68650,42.12277658
1.68700,43.64874862
1.68750,37.54486046
1.68800,29.60980586
1.68850,26.86305619
1.68900,22.28514008
1.68950,4.88905884
1.69000,-20.442077
1.69050,-38.14335265
1.69100,-42.41607435
1.69150,-43.63685198
1.69200,-47.90957369
1.69250,-50.04593455
1.69300,-43.94204639
1.69350,-33.56543653
1.69400,-25.63038193
1.69450,-20.74727141
1.69500,-17.69532733
1.69550,-18.61091055
1.69600,-23.49402108
1.69650,-27.46154838
1.69700,-24.10440989
1.69750,-14.03299444
1.69800,-4.877162206
1.69850,-1.520023722
1.69900,-3.656384576
1.69950,-7.623911876
1.70000,-7.929106283
1.70050,-1.520023722
1.70100,10.07736377
1.70150,23.50591771
1.70200,34.18772198
1.70250,41.51238776
1.70300,46.7006927
1.70350,49.44744236
1.70400,49.14224796
1.70450,45.17472066
1.70500,37.85005487
1.70550,29.60980586
1.70600,23.81111212
1.70650,22.89552889
1.70700,23.81111212
1.70750,21.97994567
1.70800,14.65527989
1.70850,6.415030879
1.70900,3.973475617
1.70950,10.68775259
1.71000,20.14877923
1.71050,22.89552889
1.71100,17.09683515
1.71150,10.68775259
1.71200,8.85658614
1.71250,6.720225286
1.71300,-1.520023722
1.71350,-11.89663358
1.71400,-15.55896648
1.71450,-15.86416088
1.71500,-23.79921548
1.71550,-36.00699179
1.71600,-34.17582535
1.71650,-15.25377207
1.71700,0.005948316792
1.71750,-6.403134245
1.71800,-20.74727141
1.71850,-17.69532733
1.71900,4.583864432
1.71950,25.03188975
1.72000,28.38902823
1.72050,19.233196
1.72100,5.804642063
1.72150,-8.844689507
1.72200,-18.91610496
1.72250,-14.64338325
1.72300,0.9215315399
1.72350,12.21372462
1.72400,7.941002917
1.72450,-2.435606945
1.72500,-3.04599576
1.72550,8.246197325
1.72600,18.31761278
1.72650,10.99294699
1.72700,-14.64338325
1.72750,-43.63685198
1.72800,-55.53943388
1.72850,-47.90957369
1.72900,-37.83815824
1.72950,-40.2797135
1.73000,-47.90957369
1.73050,-42.72126876
1.73100,-27.15635397
1.73150,-20.442077
1.73200,-26.24077075
1.73250,-26.54596515
1.73300,-10.06546714
1.73350,6.415030879
1.73400,3.668281209
1.73450,-11.28624477
1.73500,-17.08493851
1.73550,-6.403134245
1.73600,6.720225286
1.73650,12.21372462
1.73700,12.82411344
1.73750,13.43450226
1.73800,13.43450226
1.73850,11.60333581
1.73900,10.38255818
1.73950,10.68775259
1.74000,10.38255818
1.74050,9.772169363
1.74100,12.82411344
1.74150,19.233196
1.74200,24.42150093
1.74250,24.72669534
1.74300,22.89552889
1.74350,20.75916804
1.74400,19.233196
1.74450,18.31761278
1.74500,19.53839041
1.74550,22.59033449
1.74600,24.11630653
1.74650,24.42150093
1.74700,26.55786179
1.74750,31.74616672
1.74800,34.18772198
1.74850,28.38902823
1.74900,15.57086311
1.74950,3.973475617
1.75000,1.531920355
1.75050,8.85658614
1.75100,17.09683515
1.75150,19.233196
1.75200,15.2656687
1.75250,10.99294699
1.75300,9.466974956
1.75350,7.330614102
1.75400,0.005948316792
1.75450,-11.59143918
1.75500,-22.27324345
1.75550,-27.15635397
1.75600,-28.07193719
1.75650,-32.95504771
1.75700,-47.90957369
1.75750,-66.52643256
1.75800,-72.63032072
1.75850,-61.03293322
1.75900,-43.33165758
1.75950,-34.48101975
1.76000,-33.56543653
1.76050,-27.46154838
1.76100,-12.20182799
1.76150,3.363086802
1.76200,11.90853022
1.76250,12.21372462
1.76300,8.551391732
1.76350,4.583864432
1.76400,6.109836471
1.76450,13.73969666
1.76500,21.06436245
1.76550,23.2007233
1.76600,26.55786179
1.76650,37.85005487
1.76700,50.9734144
1.76750,56.46691374
1.76800,57.07730256
1.76850,62.5708019
1.76900,70.5058565
1.76950,67.14871801
1.77000,48.53185914
1.77050,25.94747297
1.77100,6.415030879
1.77150,-13.72780003
1.77200,-38.14335265
1.77250,-58.28618355
1.77300,-63.47448849
1.77350,-52.79268422
1.77400,-32.3446589
1.77450,-13.42260562
1.77500,-8.539495099
1.77550,-18.61091055
1.77600,-26.54596515
1.77650,-16.4745497
1.77700,2.752697986
1.77750,9.161780548
1.77800,-0.9096349063
1.77850,-7.929106283
1.77900,-0.2992460909
1.77950,4.278670025
1.78000,-12.81221681
1.78050,-45.77321284
1.78100,-66.22123815
1.78150,-55.53943388
1.78200,-20.74727141
1.78250,12.21372462
1.78300,22.28514008
1.78350,7.025419694
1.78400,-13.72780003
1.78450,-18.00052174
1.78500,-4.266773391
1.78550,10.38255818
1.78600,14.35008548
1.78650,12.51891903
1.78700,12.51891903
1.78750,11.60333581
1.78800,4.88905884
1.78850,-1.520023722
1.78900,-0.6044404986
1.78950,5.499447655
1.79000,7.635808509
1.79050,3.668281209
1.79100,0.005948316792
1.79150,1.837114763
1.79200,6.415030879
1.79250,10.68775259
1.79300,14.35008548
1.79350,16.79164074
1.79400,14.65527989
1.79450,10.07736377
1.79500,10.07736377
1.79550,16.48644633
1.79600,18.62280719
1.79650,7.330614102
1.79700,-10.06546714
1.79750,-19.83168818
1.79800,-17.08493851
1.79850,-11.59143918
1.79900,-12.20182799
1.79950,-14.94857766
1.80000,-12.20182799
1.80050,-3.656384576
1.80100,6.109836471
1.80150,14.65527989
1.80200,20.14877923
1.80250,21.06436245
1.80300,17.70722396
1.80350,13.12930785
1.80400,11.60333581
1.80450,12.82411344
1.80500,15.2656687
1.80550,14.65527989
1.80600,6.720225286
1.80650,-8.234300691
1.80700,-21.05246581
1.80750,-21.96804904
1.80800,-11.89663358
1.80850,-0.2992460909
1.80900,7.635808509
1.80950,12.82411344
1.81000,11.90853022
1.81050,0.005948316792
1.81100,-14.64338325
1.81150,-14.64338325
1.81200,1.531920355
1.81250,14.96047429
1.81300,11.60333581
1.81350,0.6163371322
1.81400,-3.04599576
1.81450,-2.740801353
1.81500,-7.318717468
1.81550,-12.81221681
1.81600,-10.06546714
1.81650,-0.2992460909
1.81700,4.583864432
1.81750,0.005948316792
1.81800,-10.06546714
1.81850,-20.13688259
1.81900,-28.07193719
1.81950,-29.59790923
1.82000,-23.18882667
1.82050,-14.33818885
1.82100,-8.539495099
1.82150,-3.656384576
1.82200,4.583864432
1.82250,11.2981414
1.82300,10.07736377
1.82350,5.194253248
1.82400,4.278670025
1.82450,4.583864432
1.82500,0.3111427245
1.82550,-3.656384576
1.82600,-0.2992460909
1.82650,6.109836471
1.82700,5.804642063
1.82750,4.278670025
1.82800,16.48644633
1.82850,41.20719336
1.82900,58.6032746
1.82950,57.07730256
1.83000,46.7006927
1.83050,38.15524928
1.83100,28.69422264
1.83150,12.21372462
1.83200,-6.403134245
1.83250,-24.10440989
1.83300,-46.99399047
1.83350,-76.29265361
1.83400,-92.46795722
1.83450,-72.63032072
1.83500,-25.01999311
1.83550,15.87605752
1.83600,25.33708416
1.83650,10.68775259
1.83700,-3.04599576
1.83750,-1.520023722
1.83800,11.2981414
1.83850,26.25266738
1.83900,34.79811079
1.83950,34.79811079
1.84000,30.22019468
1.84050,30.52538909
1.84100,39.0708325
1.84150,46.09030388
1.84200,35.71369402
1.84250,7.330614102
1.84300,-18.61091055
1.84350,-21.96804904
1.84400,-7.01352306
1.84450,1.226725948
1.84500,-10.06546714
1.84550,-28.68232601
1.84600,-35.70179738
1.84650,-35.39660298
1.84700,-43.94204639
1.84750,-59.20176678
1.84800,-60.72773882
1.84850,-39.36413028
1.84900,-13.42260562
1.84950,-4.571967799
1.85000,-10.37066155
1.85050,-10.98105036
1.85100,1.226725948
1.85150,20.45397363
1.85200,39.68122132
1.85250,56.46691374
1.85300,63.18119071
1.85350,50.36302559
1.85400,25.03188975
1.85450,6.109836471
1.85500,0.9215315399
1.85550,-5.182356614
1.85600,-24.4096043
1.85650,-47.90957369
1.85700,-60.11735
1.85750,-61.64332204
1.85800,-62.86409967
1.85850,-65.30565493
1.85900,-63.47448849
1.85950,-57.06540592
1.86000,-50.04593455
1.86050,-39.36413028
1.86100,-18.30571615
1.86150,8.246197325
1.86200,28.08383383
1.86250,34.79811079
1.86300,36.01888843
1.86350,36.32408283
1.86400,34.79811079
1.86450,29.60980586
1.86500,25.94747297
1.86550,25.94747297
1.86600,26.86305619
1.86650,24.42150093
1.86700,20.45397363
1.86750,20.45397363
1.86800,23.50591771
1.86850,24.42150093
1.86900,19.233196
1.86950,10.07736377
1.87000,3.668281209
1.87050,2.752697986
1.87100,2.752697986
1.87150,-0.2992460909
1.87200,-4.266773391
1.87250,-4.877162206
1.87300,-5.487551022
1.87350,-11.89663358
1.87400,-21.66285463
1.87450,-27.46154838
1.87500,-28.07193719
1.87550,-25.63038193
1.87600,-17.08493851
1.87650,-0.6044404986
1.87700,11.90853022
1.87750,7.025419694
1.87800,-7.623911876
1.87850,-8.844689507
1.87900,8.551391732
1.87950,22.28514008
1.88000,13.73969666
1.88050,-4.877162206
1.88100,-11.89663358
1.88150,-3.351190168
1.88200,9.466974956
1.88250,19.233196
1.88300,23.2007233
1.88350,18.92800159
1.88400,11.60333581
1.88450,14.96047429
1.88500,34.79811079
1.88550,55.85652493
1.88600,60.12924663
1.88650,51.58380322
1.88700,44.56433184
1.88750,34.79811079
1.88800,5.194253248
1.88850,-44.2472408
1.88900,-82.70173617
1.88950,-79.34459769
1.89000,-38.14335265
1.89050,2.447503578
1.89100,10.07736377
1.89150,-11.59143918
1.89200,-28.07193719
1.89250,-13.42260562
1.89300,21.67475126
1.89350,46.7006927
1.89400,48.22666473
1.89450,40.29161013
1.89500,36.93447165
1.89550,32.35655553
1.89600,14.04489107
1.89650,-15.55896648
1.89700,-41.50049113
1.89750,-50.96151777
1.89800,-45.46801843
1.89850,-36.61738061
1.89900,-38.14335265
1.89950,-51.57190658
1.90000,-60.11735
1.90050,-46.99399047
1.90100,-17.08493851
1.90150,5.194253248
1.90200,7.941002917
1.90250,-0.2992460909
1.90300,-6.708328653
1.90350,-10.06546714
1.90400,-10.98105036
1.90450,-4.266773391
1.90500,12.82411344
1.90550,30.83058349
1.90600,37.85005487
1.90650,35.71369402
1.90700,33.27213876
1.90750,32.66174994
1.90800,27.77863942
1.90850,19.84358482
1.90900,17.09683515
1.90950,19.84358482
1.91000,16.79164074
1.91050,0.005948316792
1.91100,-20.13688259
1.91150,-23.18882667
1.91200,-4.571967799
1.91250,20.14877923
1.91300,32.66174994
1.91350,28.38902823
1.91400,15.2656687
1.91450,0.005948316792
1.91500,-14.33818885
1.91550,-24.4096043
1.91600,-28.98752041
1.91650,-30.20829805
1.91700,-27.15635397
1.91750,-15.25377207
1.91800,2.447503578
1.91850,14.35008548
1.91900,10.68775259
1.91950,-0.2992460909
1.92000,-5.487551022
1.92050,-2.740801353
1.92100,2.447503578
1.92150,8.551391732
1.92200,14.35008548
1.92250,11.90853022
1.92300,-3.04599576
1.92350,-23.18882667
1.92400,-36.92257502
1.92450,-44.85762962
1.92500,-50.65632336
1.92550,-48.82515692
1.92600,-32.3446589
1.92650,-10.06546714
1.92700,7.025419694
1.92750,23.2007233
1.92800,45.78510947
1.92850,64.09677393
1.92900,61.35002426
1.92950,44.25913743
1.93000,37.54486046
1.93050,47.0058871
1.93100,51.27860881
1.93150,34.79811079
1.93200,7.635808509
1.93250,-10.06546714
1.93300,-18.00052174
1.93350,-26.54596515
1.93400,-38.14335265
1.93450,-45.46801843
1.93500,-43.63685198
1.93550,-37.22776942
1.93600,-34.78621416
1.93650,-39.05893587
1.93700,-43.33165758
1.93750,-37.53296383
1.93800,-17.39013292
1.93850,7.941002917
1.93900,26.25266738
1.93950,28.99941705
1.94000,18.01241837
1.94050,3.363086802
1.94100,-4.571967799
1.94150,-2.130412537
1.94200,5.804642063
1.94250,13.12930785
1.94300,16.48644633
1.94350,16.79164074
1.94400,15.87605752
1.94450,16.79164074
1.94500,21.97994567
1.94550,26.25266738
1.94600,20.14877923
1.94650,0.6163371322
1.94700,-19.52649378
1.94750,-28.3771316
1.94800,-27.76674278
1.94850,-28.68232601
1.94900,-34.17582535
1.94950,-39.05893587
1.95000,-42.72126876
1.95050,-46.68879606
1.95100,-40.58490791
1.95150,-14.64338325
1.95200,21.36955686
1.95250,40.29161013
1.95300,30.22019468
1.95350,8.551391732
1.95400,-1.520023722
1.95450,3.057892394
1.95500,10.07736377
1.95550,11.60333581
1.95600,12.51891903
1.95650,21.97994567
1.95700,40.59680454
1.95750,56.16171933
1.95800,53.41496966
1.95850,31.44097231
1.95900,9.466974956
1.95950,5.194253248
1.96000,13.12930785
1.96050,10.07736377
1.96100,-14.03299444
1.96150,-43.33165758
1.96200,-53.40307303
1.96250,-36.61738061
1.96300,-6.708328653
1.96350,14.96047429
1.96400,17.40202956
1.96450,7.330614102
1.96500,1.837114763
1.96550,8.246197325
1.96600,15.2656687
1.96650,8.551391732
1.96700,-9.76027273
1.96750,-22.57843785
1.96800,-18.61091055
1.96850,-5.487551022
1.96900,4.278670025
1.96950,7.330614102
1.97000,7.330614102
1.97050,6.109836471
1.97100,5.499447655
1.97150,8.551391732
1.97200,14.96047429
1.97250,17.09683515
1.97300,8.246197325
1.97350,-6.403134245
1.97400,-18.91610496
1.97450,-30.51349245
1.97500,-46.99399047
1.97550,-63.16929408
1.97600,-64.0848773
1.97650,-45.77321284
1.97700,-22.88363226
1.97750,-7.318717468
1.97800,4.583864432
1.97850,21.36955686
1.97900,37.23966606
1.97950,42.12277658
1.98000,37.54486046
1.98050,32.96694435
1.98100,29.60980586
1.98150,20.75916804
1.98200,8.551391732
1.98250,4.88905884
1.98300,11.90853022
1.98350,17.70722396
1.98400,11.2981414
1.98450,-2.740801353
1.98500,-12.5070224
1.98550,-13.42260562
1.98600,-9.455078322
1.98650,-8.539495099
1.98700,-15.25377207
1.98750,-26.54596515
1.98800,-33.26024212
1.98850,-28.68232601
1.98900,-14.94857766
1.98950,-1.520023722
1.99000,6.720225286
1.99050,14.35008548
1.99100,25.64227856
1.99150,37.85005487
1.99200,42.42797099
1.99250,36.32408283
1.99300,26.55786179
1.99350,23.2007233
1.99400,27.1682506
1.99450,28.69422264
1.99500,21.67475126
1.99550,11.60333581
1.99600,4.278670025
1.99650,-3.961578983
1.99700,-18.91610496
1.99750,-35.70179738
1.99800,-44.55243521
1.99850,-46.99399047
1.99900,-49.13035132
1.99950,-47.60437928
2.00000,-36.00699179
2.00050,-20.13688259
2.00100,-13.11741121
2.00150,-11.28624477
2.00200,0.005948316792
2.00250,20.14877923
2.00300,29.60980586
2.00350,18.62280719
2.00400,3.973475617
2.00450,3.973475617
2.00500,14.04489107
2.00550,17.09683515
2.00600,9.466974956
2.00650,-0.2992460909
2.00700,-5.79274543
2.00750,-5.182356614
2.00800,0.9215315399
2.00850,9.161780548
2.00900,12.51891903
2.00950,9.466974956
2.01000,7.330614102
2.01050,11.2981414
2.01100,15.2656687
2.01150,14.35008548
2.01200,12.82411344
2.01250,17.40202956
2.01300,20.45397363
2.01350,9.161780548
2.01400,-12.20182799
2.01450,-23.18882667
2.01500,-12.20182799
2.01550,3.973475617
2.01600,1.226725948
2.01650,-21.35766022
2.01700,-39.97451909
2.01750,-36.61738061
2.01800,-19.22129937
2.01850,-7.318717468
2.01900,-8.539495099
2.01950,-14.64338325
2.02000,-14.03299444
2.02050,-3.961578983
2.02100,11.90853022
2.02150,24.11630653
2.02200,24.42150093
2.02250,14.35008548
2.02300,3.973475617
2.02350,3.057892394
2.02400,9.161780548
2.02450,14.04489107
2.02500,10.99294699
2.02550,0.005948316792
2.02600,-10.06546714
2.02650,-4.266773391
2.02700,22.28514008
2.02750,49.75263677
2.02800,53.72016407
2.02850,37.23966606
2.02900,25.64227856
2.02950,25.94747297
2.03000,19.233196
2.03050,-1.520023722
2.03100,-12.5070224
2.03150,3.973475617
2.03200,25.33708416
2.03250,15.87605752
2.03300,-21.35766022
2.03350,-51.87710099
2.03400,-53.40307303
2.03450,-34.17582535
2.03500,-14.94857766
2.03550,-9.76027273
2.03600,-18.61091055
2.03650,-25.63038193
2.03700,-14.64338325
2.03750,9.161780548
2.03800,22.28514008
2.03850,15.57086311
2.03900,7.941002917
2.03950,10.68775259
2.04000,9.466974956
2.04050,-4.877162206
2.04100,-10.67585595
2.04150,10.38255818
2.04200,37.23966606
2.04250,35.1033052
2.04300,10.68775259
2.04350,-4.266773391
2.04400,-2.130412537
2.04450,-0.9096349063
2.04500,-9.149883914
2.04550,-18.30571615
2.04600,-28.68232601
2.04650,-44.85762962
2.04700,-52.79268422
2.04750,-36.61738061
2.04800,-14.03299444
2.04850,-19.52649378
2.04900,-49.74074014
2.04950,-61.94851645
2.05000,-34.48101975
2.05050,3.668281209
2.05100,18.62280719
2.05150,14.96047429
2.05200,15.2656687
2.05250,21.97994567
2.05300,23.81111212
2.05350,24.72669534
2.05400,36.62927724
2.05450,54.33055289
2.05500,61.65521867
2.05550,58.908469
2.05600,63.48638512
2.05650,75.69416143
2.05700,71.72663413
2.05750,38.76563809
2.05800,-0.2992460909
2.05850,-17.69532733
2.05900,-21.05246581
2.05950,-41.80568554
2.06000,-81.78615295
2.06050,-103.1497615
2.06100,-82.39654176
2.06150,-43.63685198
2.06200,-22.88363226
2.06250,-22.27324345
2.06300,-19.22129937
2.06350,-8.539495099
2.06400,-4.571967799
2.06450,-10.98105036
2.06500,-14.03299444
2.06550,-7.01352306
2.06600,-0.6044404986
2.06650,-0.9096349063
2.06700,-0.9096349063
2.06750,5.499447655
2.06800,15.57086311
2.06850,24.42150093
2.06900,32.05136113
2.06950,36.62927724
2.07000,33.57733316
2.07050,21.67475126
2.07100,6.415030879
2.07150,-4.571967799
2.07200,-5.79274543
2.07250,0.005948316792
2.07300,-2.130412537
2.07350,-23.49402108
2.07400,-50.35112895
2.07450,-50.65632336
2.07500,-18.30571615
2.07550,14.96047429
2.07600,20.75916804
2.07650,10.07736377
2.07700,7.025419694
2.07750,10.38255818
2.07800,3.668281209
2.07850,-8.844689507
2.07900,-13.72780003
2.07950,-12.20182799
2.08000,-15.55896648
2.08050,-16.16935529
2.08100,0.005948316792
2.08150,24.11630653
2.08200,35.1033052
2.08250,36.93447165
2.08300,50.9734144
2.08350,73.86299498
2.08400,81.49285517
2.08450,68.97988446
2.08500,58.6032746
2.08550,57.99288578
2.08600,43.34355421
2.08650,3.668281209
2.08700,-37.83815824
2.08750,-56.76021152
2.08800,-59.20176678
2.08850,-66.83162697
2.08900,-83.61731939
2.08950,-97.35106774
2.09000,-97.04587333
2.09050,-78.12382005
2.09100,-40.58490791
2.09150,0.9215315399
2.09200,25.03188975
2.09250,24.11630653
2.09300,15.2656687
2.09350,16.18125192
2.09400,21.67475126
2.09450,18.62280719
2.09500,10.68775259
2.09550,13.12930785
2.09600,28.08383383
2.09650,37.54486046
2.09700,30.83058349
2.09750,17.70722396
2.09800,9.466974956
2.09850,-0.9096349063
2.09900,-26.85115956
2.09950,-56.76021152
2.10000,-59.50696118
2.10050,-25.63038193
2.10100,13.43450226
2.10150,22.59033449
2.10200,4.278670025
2.10250,-9.455078322
2.10300,-4.266773391
2.10350,6.109836471
2.10400,7.941002917
2.10450,4.88905884
2.10500,3.973475617
2.10550,1.226725948
2.10600,-3.656384576
2.10650,-2.130412537
2.10700,7.941002917
2.10750,14.65527989
2.10800,9.466974956
2.10850,2.447503578
2.10900,2.447503578
2.10950,4.583864432
2.11000,0.9215315399
2.11050,0.005948316792
2.11100,8.85658614
2.11150,18.62280719
2.11200,15.57086311
2.11250,5.499447655
2.11300,7.635808509
2.11350,21.36955686
2.11400,26.55786179
2.11450,12.51891903
2.11500,-4.571967799
2.11550,-3.961578983
2.11600,12.51891903
2.11650,23.2007233
2.11700,15.2656687
2.11750,-2.740801353
2.11800,-16.16935529
2.11850,-19.52649378
2.11900,-17.69532733
2.11950,-14.64338325
2.12000,-8.844689507
2.12050,-0.6044404986
2.12100,3.973475617
2.12150,2.142309171
2.12200,-0.2992460909
2.12250,3.668281209
2.12300,13.12930785
2.12350,20.75916804
2.12400,23.50591771
2.12450,25.33708416
2.12500,27.47344501
2.12550,25.03188975
2.12600,14.96047429
2.12650,3.057892394
2.12700,-4.571967799
2.12750,-11.59143918
2.12800,-23.18882667
2.12850,-36.00699179
2.12900,-40.58490791
2.12950,-36.61738061
2.13000,-33.26024212
2.13050,-34.48101975
2.13100,-30.51349245
2.13150,-14.03299444
2.13200,6.109836471
2.13250,19.233196
2.13300,24.42150093
2.13350,24.11630653
2.13400,12.21372462
2.13450,-13.42260562
2.13500,-33.56543653
2.13550,-23.18882667
2.13600,8.551391732
2.13650,27.47344501
2.13700,16.79164074
2.13750,0.005948316792
2.13800,-1.214829314
2.13850,3.973475617
2.13900,-1.825218129
2.13950,-11.59143918
2.14000,-7.929106283
2.14050,4.278670025
2.14100,7.941002917
2.14150,4.583864432
2.14200,10.38255818
2.14250,24.11630653
2.14300,30.52538909
2.14350,26.86305619
2.14400,26.55786179
2.14450,30.52538909
2.14500,24.11630653
2.14550,7.330614102
2.14600,-2.130412537
2.14650,-1.825218129
2.14700,-9.455078322
2.14750,-32.95504771
2.14800,-54.01346185
2.14850,-58.89657237
2.14900,-56.1498227
2.14950,-52.48748981
2.15000,-34.48101975
2.15050,2.752697986
2.15100,33.88252757
2.15150,33.57733316
2.15200,14.65527989
2.15250,9.466974956
2.15300,21.06436245
2.15350,26.25266738
2.15400,17.40202956
2.15450,10.07736377
2.15500,10.38255818
2.15550,5.499447655
2.15600,-7.01352306
2.15650,-10.98105036
2.15700,2.142309171
2.15750,15.87605752
2.15800,12.21372462
2.15850,-2.130412537
2.15900,-12.5070224
2.15950,-16.77974411
2.16000,-20.442077
2.16050,-23.49402108
2.16100,-22.27324345
2.16150,-18.30571615
2.16200,-14.94857766
2.16250,-10.98105036
2.16300,-6.708328653
2.16350,-9.149883914
2.16400,-20.74727141
2.16450,-31.42907568
2.16500,-32.64985331
2.16550,-26.54596515
2.16600,-20.442077
2.16650,-13.42260562
2.16700,-1.520023722
2.16750,9.772169363
2.16800,12.82411344
2.16850,10.07736377
2.16900,12.21372462
2.16950,21.97994567
2.17000,32.05136113
2.17050,37.85005487
2.17100,43.64874862
2.17150,50.05783118
2.17200,48.22666473
2.17250,31.74616672
2.17300,7.635808509
2.17350,-11.28624477
2.17400,-22.88363226
2.17450,-31.42907568
2.17500,-36.92257502
2.17550,-35.09140857
2.17600,-28.07193719
2.17650,-25.93557634
2.17700,-30.20829805
2.17750,-30.81868686
2.17800,-22.57843785
2.17850,-16.16935529
2.17900,-21.05246581
2.17950,-28.98752041
2.18000,-22.57843785
2.18050,-0.6044404986
2.18100,18.62280719
2.18150,23.2007233
2.18200,18.01241837
2.18250,15.87605752
2.18300,19.84358482
2.18350,24.42150093
2.18400,23.81111212
2.18450,18.01241837
2.18500,10.68775259
2.18550,6.720225286
2.18600,7.025419694
2.18650,6.415030879
2.18700,0.9215315399
2.18750,-3.351190168
2.18800,-1.214829314
2.18850,1.531920355
2.18900,-3.656384576
2.18950,-15.25377207
2.19000,-18.30571615
2.19050,-8.539495099
2.19100,2.142309171
2.19150,4.88905884
2.19200,4.88905884
2.19250,10.99294699
2.19300,18.31761278
2.19350,18.92800159
2.19400,15.87605752
2.19450,18.01241837
2.19500,23.2007233
2.19550,18.31761278
2.19600,-0.6044404986
2.19650,-21.05246581
2.19700,-26.24077075
2.19750,-15.25377207
2.19800,-3.656384576
2.19850,-2.130412537
2.19900,-6.708328653
2.19950,-7.623911876
2.20000,-4.877162206
2.20050,-3.961578983
2.20100,-4.266773391
2.20150,1.531920355
2.20200,11.2981414
2.20250,12.21372462
2.20300,1.837114763
2.20350,-4.266773391
2.20400,1.531920355
2.20450,3.363086802
2.20500,-14.94857766
2.20550,-40.58490791
2.20600,-45.16282402
2.20650,-25.93557634
2.20700,-7.01352306
2.20750,-5.487551022
2.20800,-10.06546714
2.20850,-4.877162206
2.20900,7.330614102
2.20950,14.96047429
2.21000,16.18125192
2.21050,16.18125192
2.21100,17.09683515
2.21150,16.48644633
2.21200,13.43450226
2.21250,10.07736377
2.21300,6.415030879
2.21350,2.447503578
2.21400,1.226725948
2.21450,3.973475617
2.21500,6.415030879
2.21550,6.720225286
2.21600,10.07736377
2.21650,20.45397363
2.21700,29.91500027
2.21750,25.03188975
2.21800,6.415030879
2.21850,-10.37066155
2.21900,-16.77974411
2.21950,-19.52649378
2.22000,-25.01999311
2.22050,-25.32518752
2.22100,-11.59143918
2.22150,6.109836471
2.22200,7.941002917
2.22250,-5.182356614
2.22300,-13.42260562
2.22350,-9.455078322
2.22400,-10.67585595
2.22450,-28.68232601
2.22500,-45.46801843
2.22550,-37.53296383
2.22600,-10.98105036
2.22650,7.635808509
2.22700,7.635808509
2.22750,0.3111427245
2.22800,-3.04599576
2.22850,-3.351190168
2.22900,-0.9096349063
2.22950,4.88905884
2.23000,9.772169363
2.23050,5.194253248
2.23100,-3.351190168
2.23150,-3.04599576
2.23200,8.551391732
2.23250,18.92800159
2.23300,18.92800159
2.23350,16.48644633
2.23400,19.233196
2.23450,22.89552889
2.23500,19.53839041
2.23550,8.551391732
2.23600,-3.351190168
2.23650,-9.149883914
2.23700,-5.487551022
2.23750,6.109836471
2.23800,16.48644633
2.23850,13.73969666
2.23900,1.531920355
2.23950,-5.182356614
2.24000,-0.2992460909
2.24050,3.973475617
2.24100,-3.656384576
2.24150,-18.91610496
2.24200,-25.32518752
2.24250,-17.39013292
2.24300,-4.571967799
2.24350,2.142309171
2.24400,0.9215315399
2.24450,-2.435606945
2.24500,-2.435606945
2.24550,3.363086802
2.24600,9.161780548
2.24650,6.720225286
2.24700,-1.520023722
2.24750,-4.266773391
2.24800,3.973475617
2.24850,11.90853022
2.24900,7.025419694
2.24950,-5.487551022
2.25000,-11.28624477
2.25050,-8.844689507
2.25100,-7.623911876
2.25150,-11.89663358
2.25200,-14.94857766
2.25250,-10.98105036
2.25300,0.3111427245
2.25350,18.31761278
2.25400,34.79811079
2.25450,34.79811079
2.25500,12.21372462
2.25550,-14.94857766
2.25600,-21.35766022
2.25650,-7.01352306
2.25700,5.194253248
2.25750,4.278670025
2.25800,3.057892394
2.25850,12.21372462
2.25900,22.28514008
2.25950,21.06436245
2.26000,12.21372462
2.26050,7.025419694
2.26100,6.415030879
2.26150,5.499447655
2.26200,4.278670025
2.26250,2.142309171
2.26300,-3.656384576
2.26350,-15.86416088
2.26400,-26.54596515
2.26450,-28.98752041
2.26500,-25.63038193
2.26550,-22.88363226
2.26600,-20.74727141
2.26650,-16.77974411
2.26700,-10.98105036
2.26750,-5.487551022
2.26800,0.005948316792
2.26850,6.720225286
2.26900,14.96047429
2.26950,21.06436245
2.27000,25.33708416
2.27050,28.99941705
2.27100,32.35655553
2.27150,33.27213876
2.27200,28.99941705
2.27250,16.48644633
2.27300,-0.9096349063
2.27350,-15.25377207
2.27400,-19.22129937
2.27450,-14.03299444
2.27500,-6.708328653
2.27550,-2.740801353
2.27600,-3.351190168
2.27650,-6.708328653
2.27700,-8.844689507
2.27750,-5.182356614
2.27800,2.142309171
2.27850,6.720225286
2.27900,5.194253248
2.27950,2.752697986
2.28000,1.837114763
2.28050,-3.04599576
2.28100,-14.64338325
2.28150,-21.05246581
2.28200,-12.81221681
2.28250,2.752697986
2.28300,11.2981414
2.28350,12.21372462
2.28400,18.01241837
2.28450,29.30461146
2.28500,33.27213876
2.28550,23.81111212
2.28600,10.68775259
2.28650,3.668281209
2.28700,0.005948316792
2.28750,-5.79274543
2.28800,-11.59143918
2.28850,-14.33818885
2.28900,-16.4745497
2.28950,-17.39013292
2.29000,-8.844689507
2.29050,10.07736377
2.29100,26.25266738
2.29150,28.08383383
2.29200,22.59033449
2.29250,21.36955686
2.29300,20.14877923
2.29350,8.551391732
2.29400,-8.844689507
2.29450,-18.61091055
2.29500,-17.08493851
2.29550,-16.16935529
2.29600,-21.96804904
2.29650,-26.24077075
2.29700,-20.442077
2.29750,-8.844689507
2.29800,0.005948316792
2.29850,4.278670025
2.29900,5.194253248
2.29950,4.88905884
2.30000,5.499447655
2.30050,7.635808509
2.30100,11.60333581
2.30150,16.18125192
2.30200,20.14877923
2.30250,20.14877923
2.30300,11.60333581
2.30350,-1.214829314
2.30400,-7.01352306
2.30450,0.3111427245
2.30500,10.99294699
2.30550,10.68775259
2.30600,-0.2992460909
2.30650,-10.67585595
2.30700,-11.28624477
2.30750,-3.04599576
2.30800,7.025419694
2.30850,13.12930785
2.30900,9.466974956
2.30950,-3.656384576
2.31000,-18.61091055
2.31050,-25.63038193
2.31100,-25.32518752
2.31150,-23.49402108
2.31200,-21.96804904
2.31250,-15.86416088
2.31300,-3.961578983
2.31350,6.415030879
2.31400,10.38255818
2.31450,9.161780548
2.31500,6.720225286
2.31550,6.720225286
2.31600,10.07736377
2.31650,17.40202956
2.31700,24.72669534
2.31750,25.03188975
2.31800,13.12930785
2.31850,-4.266773391
2.31900,-15.25377207
2.31950,-15.25377207
2.32000,-10.98105036
2.32050,-10.37066155
2.32100,-11.59143918
2.32150,-8.234300691
2.32200,-0.6044404986
2.32250,1.226725948
2.32300,-3.961578983
2.32350,-8.539495099
2.32400,-3.656384576
2.32450,7.025419694
2.32500,13.12930785
2.32550,10.68775259
2.32600,4.278670025
2.32650,0.005948316792
2.32700,-0.6044404986
2.32750,0.3111427245
2.32800,2.142309171
2.32850,3.057892394
2.32900,4.278670025
2.32950,7.635808509
2.33000,11.90853022
2.33050,11.60333581
2.33100,2.142309171
2.33150,-10.06546714
2.33200,-16.4745497
2.33250,-14.03299444
2.33300,-9.149883914
2.33350,-7.318717468
2.33400,-6.097939837
2.33450,-3.961578983
2.33500,-3.351190168
2.33550,-7.01352306
2.33600,-11.59143918
2.33650,-11.28624477
2.33700,-6.708328653
2.33750,-1.825218129
2.33800,2.752697986
2.33850,11.2981414
2.33900,21.67475126
2.33950,25.64227856
2.34000,17.40202956
2.34050,3.363086802
2.34100,-4.571967799
2.34150,-5.182356614
2.34200,-6.097939837
2.34250,-9.76027273
2.34300,-10.37066155
2.34350,-6.403134245
2.34400,-8.844689507
2.34450,-25.93557634
2.34500,-44.55243521
2.34550,-42.72126876
2.34600,-19.52649378
2.34650,0.6163371322
2.34700,1.531920355
2.34750,-7.01352306
2.34800,-5.182356614
2.34850,7.941002917
2.34900,16.79164074
2.34950,11.60333581
2.35000,2.447503578
2.35050,2.752697986
2.35100,13.12930785
2.35150,25.03188975
2.35200,32.05136113
2.35250,34.18772198
2.35300,31.74616672
2.35350,23.2007233
2.35400,10.38255818
2.35450,1.226725948
2.35500,0.3111427245
2.35550,0.9215315399
2.35600,-4.877162206
2.35650,-13.72780003
2.35700,-12.81221681
2.35750,-1.214829314
2.35800,7.330614102
2.35850,4.278670025
2.35900,-5.182356614
2.35950,-14.94857766
2.36000,-27.46154838
2.36050,-42.11087995
2.36100,-47.60437928
2.36150,-35.09140857
2.36200,-12.81221681
2.36250,2.752697986
2.36300,8.551391732
2.36350,8.85658614
2.36400,6.415030879
2.36450,3.973475617
2.36500,7.635808509
2.36550,16.79164074
2.36600,19.53839041
2.36650,12.82411344
2.36700,10.38255818
2.36750,21.97994567
2.36800,34.79811079
2.36850,34.49291639
2.36900,29.60980586
2.36950,33.88252757
2.37000,38.15524928
2.37050,26.25266738
2.37100,3.973475617
2.37150,-10.67585595
2.37200,-23.49402108
2.37250,-49.74074014
2.37300,-77.81862565
2.37350,-73.85109835
2.37400,-31.12388127
2.37450,14.65527989
2.37500,27.77863942
2.37550,10.99294699
2.37600,-10.37066155
2.37650,-21.66285463
2.37700,-24.10440989
2.37750,-20.13688259
2.37800,-10.06546714
2.37850,5.499447655
2.37900,23.2007233
2.37950,37.23966606
2.38000,42.12277658
2.38050,36.01888843
2.38100,21.67475126
2.38150,3.057892394
2.38200,-17.69532733
2.38250,-36.61738061
2.38300,-44.85762962
2.38350,-40.58490791
2.38400,-34.48101975
2.38450,-35.39660298
2.38500,-37.22776942
2.38550,-27.46154838
2.38600,-7.623911876
2.38650,7.330614102
2.38700,12.21372462
2.38750,14.65527989
2.38800,21.06436245
2.38850,25.33708416
2.38900,20.45397363
2.38950,11.2981414
2.39000,7.941002917
2.39050,12.51891903
2.39100,17.09683515
2.39150,16.48644633
2.39200,13.43450226
2.39250,13.43450226
2.39300,14.96047429
2.39350,16.48644633
2.39400,19.53839041
2.39450,24.42150093
2.39500,26.86305619
2.39550,22.89552889
2.39600,15.2656687
2.39650,8.246197325
2.39700,1.837114763
2.39750,-5.79274543
2.39800,-12.5070224
2.39850,-16.4745497
2.39900,-21.35766022
2.39950,-29.29271482
2.40000,-34.48101975
2.40050,-29.29271482
2.40100,-19.22129937
2.40150,-15.25377207
2.40200,-17.08493851
2.40250,-12.81221681
2.40300,-0.2992460909
2.40350,8.85658614
2.40400,6.109836471
2.40450,-2.435606945
2.40500,-7.318717468
2.40550,-7.623911876
2.40600,-7.929106283
2.40650,-7.318717468
2.40700,-2.740801353
2.40750,2.752697986
2.40800,4.88905884
2.40850,4.583864432
2.40900,7.025419694
2.40950,13.12930785
2.41000,17.70722396
2.41050,15.2656687
2.41100,6.720225286
2.41150,-3.961578983
2.41200,-13.72780003
2.41250,-18.91610496
2.41300,-16.77974411
2.41350,-10.06546714
2.41400,-5.79274543
2.41450,-7.929106283
2.41500,-13.42260562
2.41550,-15.25377207
2.41600,-9.455078322
2.41650,-0.6044404986
2.41700,4.278670025
2.41750,4.583864432
2.41800,4.583864432
2.41850,8.246197325
2.41900,14.96047429
2.41950,20.45397363
2.42000,20.45397363
2.42050,14.96047429
2.42100,8.246197325
2.42150,4.278670025
2.42200,2.447503578
2.42250,-0.9096349063
2.42300,-7.01352306
2.42350,-10.67585595
2.42400,-10.67585595
2.42450,-12.81221681
2.42500,-20.74727141
2.42550,-27.15635397
2.42600,-21.66285463
2.42650,-6.097939837
2.42700,4.88905884
2.42750,5.194253248
2.42800,3.057892394
2.42850,6.109836471
2.42900,8.551391732
2.42950,4.278670025
2.43000,-0.6044404986
2.43050,3.057892394
2.43100,10.99294699
2.43150,10.07736377
2.43200,0.9215315399
2.43250,-1.520023722
2.43300,7.025419694
2.43350,15.2656687
2.43400,13.73969666
2.43450,11.60333581
2.43500,17.09683515
2.43550,21.97994567
2.43600,14.04489107
2.43650,-0.2992460909
2.43700,-6.403134245
2.43750,-2.740801353
2.43800,-0.2992460909
2.43850,-2.740801353
2.43900,-4.266773391
2.43950,-6.097939837
2.44000,-14.33818885
2.44050,-25.01999311
2.44100,-22.27324345
2.44150,-3.351190168
2.44200,12.51891903
2.44250,9.161780548
2.44300,-5.79274543
2.44350,-10.67585595
2.44400,1.531920355
2.44450,15.57086311
2.44500,14.96047429
2.44550,3.057892394
2.44600,-3.961578983
2.44650,0.005948316792
2.44700,4.583864432
2.44750,0.3111427245
2.44800,-9.149883914
2.44850,-13.11741121
2.44900,-7.929106283
2.44950,-1.520023722
2.45000,-0.9096349063
2.45050,-3.656384576
2.45100,-4.877162206
2.45150,-3.656384576
2.45200,-1.214829314
2.45250,2.142309171
2.45300,10.07736377
2.45350,21.36955686
2.45400,31.44097231
2.45450,34.18772198
2.45500,28.99941705
2.45550,19.53839041
2.45600,10.38255818
2.45650,1.531920355
2.45700,-8.844689507
2.45750,-21.35766022
2.45800,-32.03946449
2.45850,-36.61738061
2.45900,-34.48101975
2.45950,-29.90310364
2.46000,-25.01999311
2.46050,-19.52649378
2.46100,-12.20182799
2.46150,-6.097939837
2.46200,-7.929106283
2.46250,-15.55896648
2.46300,-16.77974411
2.46350,-1.520023722
2.46400,21.97994567
2.46450,36.93447165
2.46500,37.23966606
2.46550,32.96694435
2.46600,32.05136113
2.46650,28.69422264
2.46700,17.09683515
2.46750,4.583864432
2.46800,0.005948316792
2.46850,-3.04599576
2.46900,-18.00052174
2.46950,-39.36413028
2.47000,-46.99399047
2.47050,-32.3446589
2.47100,-10.37066155
2.47150,0.9215315399
2.47200,0.005948316792
2.47250,-3.351190168
2.47300,-3.351190168
2.47350,0.6163371322
2.47400,6.109836471
2.47450,10.68775259
2.47500,11.90853022
2.47550,10.68775259
2.47600,9.161780548
2.47650,7.025419694
2.47700,5.194253248
2.47750,6.109836471
2.47800,11.2981414
2.47850,17.40202956
2.47900,19.53839041
2.47950,17.70722396
2.48000,16.79164074
2.48050,16.18125192
2.48100,11.2981414
2.48150,1.837114763
2.48200,-5.487551022
2.48250,-7.623911876
2.48300,-7.929106283
2.48350,-10.98105036
2.48400,-15.55896648
2.48450,-17.08493851
2.48500,-10.98105036
2.48550,2.142309171
2.48600,17.09683515
2.48650,24.42150093
2.48700,19.84358482
2.48750,9.161780548
2.48800,3.363086802
2.48850,5.194253248
2.48900,7.635808509
2.48950,3.057892394
2.49000,-5.487551022
2.49050,-11.59143918
2.49100,-13.72780003
2.49150,-16.16935529
2.49200,-21.05246581
2.49250,-25.63038193
2.49300,-26.24077075
2.49350,-20.74727141
2.49400,-12.20182799
2.49450,-5.487551022
2.49500,-3.351190168
2.49550,-2.130412537
2.49600,3.668281209
2.49650,12.51891903
2.49700,14.04489107
2.49750,2.752697986
2.49800,-12.5070224
2.49850,-18.61091055
2.49900,-11.28624477
2.49950,1.837114763
2.50000,10.99294699
2.50050,12.82411344
2.50100,8.551391732
2.50150,1.226725948
2.50200,-5.487551022
2.50250,-7.929106283
2.50300,-3.961578983
2.50350,4.278670025
2.50400,12.51891903
2.50450,14.35008548
2.50500,7.635808509
2.50550,-3.961578983
2.50600,-14.94857766
2.50650,-20.442077
2.50700,-23.18882667
2.50750,-25.93557634
2.50800,-27.15635397
2.50850,-22.27324345
2.50900,-8.539495099
2.50950,10.07736377
2.51000,27.1682506
2.51050,37.23966606
2.51100,38.15524928
2.51150,31.1357779
2.51200,20.75916804
2.51250,10.99294699
2.51300,5.194253248
2.51350,3.973475617
2.51400,4.583864432
2.51450,4.278670025
2.51500,3.668281209
2.51550,6.109836471
2.51600,10.68775259
2.51650,13.12930785
2.51700,10.99294699
2.51750,8.85658614
2.51800,10.68775259
2.51850,11.60333581
2.51900,4.278670025
2.51950,-9.455078322
2.52000,-19.83168818
2.52050,-21.66285463
2.52100,-19.22129937
2.52150,-17.39013292
2.52200,-18.30571615
2.52250,-22.27324345
2.52300,-28.3771316
2.52350,-29.90310364
2.52400,-20.13688259
2.52450,-1.214829314
2.52500,15.87605752
2.52550,25.33708416
2.52600,29.60980586
2.52650,30.22019468
2.52700,22.28514008
2.52750,8.246197325
2.52800,0.005948316792
2.52850,3.057892394
2.52900,10.99294699
2.52950,12.82411344
2.53000,8.85658614
2.53050,2.142309171
2.53100,-7.623911876
2.53150,-18.91610496
2.53200,-20.13688259
2.53250,-3.961578983
2.53300,15.87605752
2.53350,20.14877923
2.53400,7.941002917
2.53450,-3.656384576
2.53500,-4.266773391
2.53550,-1.214829314
2.53600,-3.04599576
2.53650,-5.487551022
2.53700,-2.740801353
2.53750,0.9215315399
2.53800,-1.214829314
2.53850,-7.01352306
2.53900,-5.182356614
2.53950,6.720225286
2.54000,20.75916804
2.54050,25.64227856
2.54100,20.14877923
2.54150,10.38255818
2.54200,0.005948316792
2.54250,-11.28624477
2.54300,-24.4096043
2.54350,-34.78621416
2.54400,-37.22776942
2.54450,-32.64985331
2.54500,-26.24077075
2.54550,-19.22129937
2.54600,-10.37066155
2.54650,-0.2992460909
2.54700,6.415030879
2.54750,8.85658614
2.54800,10.68775259
2.54850,14.04489107
2.54900,13.43450226
2.54950,5.194253248
2.55000,-3.961578983
2.55050,-4.266773391
2.55100,3.363086802
2.55150,9.161780548
2.55200,7.941002917
2.55250,6.720225286
2.55300,10.68775259
2.55350,15.87605752
2.55400,14.04489107
2.55450,5.804642063
2.55500,-1.825218129
2.55550,-4.266773391
2.55600,-2.435606945
2.55650,-0.2992460909
2.55700,-0.6044404986
2.55750,-4.266773391
2.55800,-8.844689507
2.55850,-10.98105036
2.55900,-8.539495099
2.55950,-5.182356614
2.56000,-3.04599576
2.56050,-1.825218129
2.56100,-1.214829314
2.56150,-0.9096349063
2.56200,0.3111427245
2.56250,6.720225286
2.56300,18.92800159
2.56350,30.52538909
2.56400,32.66174994
2.56450,24.42150093
2.56500,14.04489107
2.56550,7.941002917
2.56600,6.109836471
2.56650,5.499447655
2.56700,4.583864432
2.56750,3.973475617
2.56800,3.363086802
2.56850,3.363086802
2.56900,1.531920355
2.56950,-3.656384576
2.57000,-12.81221681
2.57050,-20.74727141
2.57100,-21.96804904
2.57150,-17.08493851
2.57200,-12.20182799
2.57250,-12.81221681
2.57300,-15.86416088
2.57350,-14.03299444
2.57400,-3.961578983
2.57450,11.90853022
2.57500,25.33708416
2.57550,28.38902823
2.57600,19.233196
2.57650,5.804642063
2.57700,-1.520023722
2.57750,-0.9096349063
2.57800,1.531920355
2.57850,1.226725948
2.57900,-0.6044404986
2.57950,0.005948316792
2.58000,2.752697986
2.58050,4.88905884
2.58100,3.057892394
2.58150,-1.214829314
2.58200,-6.708328653
2.58250,-10.37066155
2.58300,-9.76027273
2.58350,-5.79274543
2.58400,-2.130412537
2.58450,-0.6044404986
2.58500,0.6163371322
2.58550,3.973475617
2.58600,7.941002917
2.58650,9.466974956
2.58700,8.551391732
2.58750,7.025419694
2.58800,7.025419694
2.58850,8.551391732
2.58900,11.90853022
2.58950,14.35008548
2.59000,11.90853022
2.59050,2.752697986
2.59100,-7.929106283
2.59150,-12.5070224
2.59200,-8.844689507
2.59250,-1.214829314
2.59300,1.837114763
2.59350,-1.214829314
2.59400,-6.708328653
2.59450,-7.01352306
2.59500,0.005948316792
2.59550,6.415030879
2.59600,3.973475617
2.59650,-6.403134245
2.59700,-12.20182799
2.59750,-4.571967799
2.59800,9.161780548
2.59850,14.65527989
2.59900,7.025419694
2.59950,-3.961578983
2.60000,-6.403134245
2.60050,2.447503578
2.60100,14.96047429
2.60150,21.06436245
2.60200,16.79164074
2.60250,5.194253248
2.60300,-6.708328653
2.60350,-15.55896648
2.60400,-20.442077
2.60450,-21.05246581
2.60500,-15.55896648
2.60550,-3.961578983
2.60600,9.466974956
2.60650,20.75916804
2.60700,28.08383383
2.60750,32.35655553
2.60800,33.27213876
2.60850,28.69422264
2.60900,18.01241837
2.60950,4.88905884
2.61000,-3.961578983
2.61050,-6.403134245
2.61100,-5.79274543
2.61150,-7.318717468
2.61200,-12.20182799
2.61250,-18.00052174
2.61300,-22.27324345
2.61350,-23.79921548
2.61400,-21.66285463
2.61450,-17.08493851
2.61500,-12.81221681
2.61550,-11.89663358
2.61600,-12.81221681
2.61650,-11.89663358
2.61700,-9.149883914
2.61750,-6.708328653
2.61800,-3.656384576
2.61850,3.668281209
2.61900,14.04489107
2.61950,21.36955686
2.62000,21.67475126
2.62050,16.79164074
2.62100,8.246197325
2.62150,-1.825218129
2.62200,-8.844689507
2.62250,-10.06546714
2.62300,-8.844689507
2.62350,-10.67585595
2.62400,-14.03299444
2.62450,-14.64338325
2.62500,-12.81221681
2.62550,-10.06546714
2.62600,-2.740801353
2.62650,7.025419694
2.62700,7.635808509
2.62750,-7.623911876
2.62800,-23.79921548
2.62850,-16.4745497
2.62900,12.21372462
2.62950,37.54486046
2.63000,42.42797099
2.63050,35.40849961
2.63100,28.69422264
2.63150,21.97994567
2.63200,11.60333581
2.63250,2.752697986
2.63300,-1.214829314
2.63350,-5.79274543
2.63400,-16.16935529
2.63450,-23.79921548
2.63500,-19.22129937
2.63550,-7.01352306
2.63600,-2.130412537
2.63650,-11.59143918
2.63700,-24.10440989
2.63750,-26.54596515
2.63800,-16.4745497
2.63850,-2.435606945
2.63900,5.804642063
2.63950,8.551391732
2.64000,9.772169363
2.64050,11.60333581
2.64100,12.21372462
2.64150,11.60333581
2.64200,10.99294699
2.64250,10.68775259
2.64300,8.551391732
2.64350,6.720225286
2.64400,9.161780548
2.64450,14.65527989
2.64500,16.18125192
2.64550,12.51891903
2.64600,11.90853022
2.64650,16.48644633
2.64700,18.01241837
2.64750,11.2981414
2.64800,2.142309171
2.64850,-2.130412537
2.64900,-7.318717468
2.64950,-19.22129937
2.65000,-32.64985331
2.65050,-37.83815824
2.65100,-34.48101975
2.65150,-29.90310364
2.65200,-24.71479871
2.65250,-11.28624477
2.65300,9.466974956
2.65350,28.08383383
2.65400,35.40849961
2.65450,31.74616672
2.65500,22.28514008
2.65550,11.90853022
2.65600,3.363086802
2.65650,-3.351190168
2.65700,-12.81221681
2.65750,-25.93557634
2.65800,-35.39660298
2.65850,-33.26024212
2.65900,-21.05246581
2.65950,-10.06546714
2.66000,-7.929106283
2.66050,-11.28624477
2.66100,-14.33818885
2.66150,-14.33818885
2.66200,-10.37066155
2.66250,-2.130412537
2.66300,8.246197325
2.66350,15.87605752
2.66400,16.79164074
2.66450,14.04489107
2.66500,11.90853022
2.66550,13.43450226
2.66600,17.40202956
2.66650,21.06436245
2.66700,19.84358482
2.66750,11.60333581
2.66800,-0.6044404986
2.66850,-10.37066155
2.66900,-14.33818885
2.66950,-14.03299444
2.67000,-12.81221681
2.67050,-11.59143918
2.67100,-10.06546714
2.67150,-7.929106283
2.67200,-5.182356614
2.67250,-3.961578983
2.67300,-6.708328653
2.67350,-11.28624477
2.67400,-10.06546714
2.67450,1.531920355
2.67500,18.62280719
2.67550,27.1682506
2.67600,21.97994567
2.67650,11.90853022
2.67700,6.415030879
2.67750,5.194253248
2.67800,2.142309171
2.67850,-3.656384576
2.67900,-9.149883914
2.67950,-13.11741121
2.68000,-15.86416088
2.68050,-15.55896648
2.68100,-8.844689507
2.68150,1.226725948
2.68200,8.85658614
2.68250,11.60333581
2.68300,10.38255818
2.68350,6.109836471
2.68400,-1.214829314
2.68450,-8.539495099
2.68500,-11.28624477
2.68550,-11.28624477
2.68600,-14.33818885
2.68650,-20.13688259
2.68700,-19.52649378
2.68750,-9.76027273
2.68800,1.837114763
2.68850,8.551391732
2.68900,14.04489107
2.68950,22.28514008
2.69000,27.77863942
2.69050,21.36955686
2.69100,6.109836471
2.69150,-3.351190168
2.69200,-2.435606945
2.69250,2.447503578
2.69300,3.668281209
2.69350,0.6163371322
2.69400,-6.097939837
2.69450,-18.00052174
2.69500,-30.51349245
2.69550,-31.42907568
2.69600,-14.03299444
2.69650,7.941002917
2.69700,14.04489107
2.69750,0.9215315399
2.69800,-14.03299444
2.69850,-16.77974411
2.69900,-10.06546714
2.69950,-4.571967799
2.70000,-0.2992460909
2.70050,7.330614102
2.70100,15.87605752
2.70150,18.62280719
2.70200,16.18125192
2.70250,13.12930785
2.70300,10.38255818
2.70350,3.973475617
2.70400,-2.740801353
2.70450,-3.351190168
2.70500,0.3111427245
2.70550,-1.214829314
2.70600,-10.06546714
2.70650,-16.4745497
2.70700,-16.16935529
2.70750,-19.22129937
2.70800,-31.42907568
2.70850,-39.97451909
2.70900,-29.90310364
2.70950,-8.234300691
2.71000,1.837114763
2.71050,-7.929106283
2.71100,-23.18882667
2.71150,-25.63038193
2.71200,-12.81221681
2.71250,5.804642063
2.71300,22.59033449
2.71350,32.05136113
2.71400,31.1357779
2.71450,21.36955686
2.71500,10.38255818
2.71550,5.499447655
2.71600,7.025419694
2.71650,7.635808509
2.71700,2.142309171
2.71750,-6.097939837
2.71800,-9.149883914
2.71850,-0.9096349063
2.71900,10.38255818
2.71950,10.68775259
2.72000,-5.182356614
2.72050,-21.66285463
2.72100,-22.57843785
2.72150,-11.59143918
2.72200,-6.403134245
2.72250,-11.89663358
2.72300,-15.25377207
2.72350,-9.76027273
2.72400,-2.740801353
2.72450,-2.435606945
2.72500,-5.487551022
2.72550,-8.844689507
2.72600,-16.16935529
2.72650,-26.24077075
2.72700,-28.07193719
2.72750,-15.55896648
2.72800,2.142309171
2.72850,13.73969666
2.72900,20.75916804
2.72950,26.86305619
2.73000,28.08383383
2.73050,21.06436245
2.73100,11.2981414
2.73150,2.447503578
2.73200,-12.81221681
2.73250,-37.22776942
2.73300,-55.23423948
2.73350,-52.1822954
2.73400,-35.39660298
2.73450,-21.35766022
2.73500,-11.59143918
2.73550,-0.2992460909
2.73600,10.07736377
2.73650,12.82411344
2.73700,12.51891903
2.73750,18.62280719
2.73800,24.72669534
2.73850,19.233196
2.73900,5.194253248
2.73950,-2.740801353
2.74000,-1.214829314
2.74050,0.005948316792
2.74100,-2.435606945
2.74150,-1.520023722
2.74200,4.278670025
2.74250,6.109836471
2.74300,0.005948316792
2.74350,-6.403134245
2.74400,-7.01352306
2.74450,-6.708328653
2.74500,-11.59143918
2.74550,-19.22129937
2.74600,-23.49402108
2.74650,-23.79921548
2.74700,-24.71479871
2.74750,-29.29271482
2.74800,-34.48101975
2.74850,-32.95504771
2.74900,-21.05246581
2.74950,-3.351190168
2.75000,9.772169363
2.75050,13.43450226
2.75100,11.90853022
2.75150,10.07736377
2.75200,7.941002917
2.75250,5.804642063
2.75300,4.583864432
2.75350,1.531920355
2.75400,-10.98105036
2.75450,-29.90310364
2.75500,-36.00699179
2.75550,-18.61091055
2.75600,5.499447655
2.75650,11.90853022
2.75700,0.3111427245
2.75750,-6.403134245
2.75800,3.057892394
2.75850,16.18125192
2.75900,16.18125192
2.75950,5.194253248
2.76000,-4.266773391
2.76050,-7.929106283
2.76100,-8.234300691
2.76150,-7.623911876
2.76200,-7.318717468
2.76250,-11.89663358
2.76300,-19.52649378
2.76350,-20.442077
2.76400,-8.844689507
2.76450,4.583864432
2.76500,4.88905884
2.76550,-7.929106283
2.76600,-18.30571615
2.76650,-16.16935529
2.76700,-10.67585595
2.76750,-14.64338325
2.76800,-23.79921548
2.76850,-24.10440989
2.76900,-11.28624477
2.76950,2.752697986
2.77000,8.246197325
2.77050,8.551391732
2.77100,11.2981414
2.77150,16.18125192
2.77200,16.48644633
2.77250,12.82411344
2.77300,12.51891903
2.77350,18.92800159
2.77400,23.50591771
2.77450,18.31761278
2.77500,7.941002917
2.77550,3.973475617
2.77600,11.90853022
2.77650,22.28514008
2.77700,25.03188975
2.77750,17.70722396
2.77800,5.499447655
2.77850,-6.403134245
2.77900,-14.94857766
2.77950,-17.39013292
2.78000,-14.94857766
2.78050,-15.55896648
2.78100,-27.46154838
2.78150,-46.68879606
2.78200,-56.76021152
2.78250,-45.46801843
2.78300,-19.83168818
2.78350,1.837114763
2.78400,7.635808509
2.78450,3.057892394
2.78500,1.837114763
2.78550,9.772169363
2.78600,18.01241837
2.78650,16.18125192
2.78700,8.246197325
2.78750,7.941002917
2.78800,19.233196
2.78850,28.08383383
2.78900,18.92800159
2.78950,-2.740801353
2.79000,-18.91610496
2.79050,-20.442077
2.79100,-16.4745497
2.79150,-15.86416088
2.79200,-12.20182799
2.79250,2.447503578
2.79300,21.67475126
2.79350,31.44097231
2.79400,26.86305619
2.79450,14.65527989
2.79500,-0.2992460909
2.79550,-15.55896648
2.79600,-23.18882667
2.79650,-16.16935529
2.79700,-2.130412537
2.79750,2.447503578
2.79800,-7.318717468
2.79850,-20.442077
2.79900,-21.96804904
2.79950,-8.539495099
2.80000,11.2981414
2.80050,29.30461146
2.80100,38.15524928
2.80150,32.96694435
2.80200,16.18125192
2.80250,-1.214829314
2.80300,-9.76027273
2.80350,-7.623911876
2.80400,-1.825218129
2.80450,0.9215315399
2.80500,1.531920355
2.80550,1.837114763
2.80600,2.447503578
2.80650,1.531920355
2.80700,-1.214829314
2.80750,-0.9096349063
2.80800,6.720225286
2.80850,16.79164074
2.80900,19.84358482
2.80950,15.57086311
2.81000,12.82411344
2.81050,13.73969666
2.81100,9.466974956
2.81150,-4.877162206
2.81200,-17.39013292
2.81250,-14.64338325
2.81300,-1.214829314
2.81350,5.804642063
2.81400,4.88905884
2.81450,8.246197325
2.81500,21.36955686
2.81550,32.05136113
2.81600,28.38902823
2.81650,16.48644633
2.81700,10.07736377
2.81750,14.35008548
2.81800,20.75916804
2.81850,18.01241837
2.81900,5.804642063
2.81950,-4.877162206
2.82000,-4.571967799
2.82050,2.447503578
2.82100,1.837114763
2.82150,-11.59143918
2.82200,-25.01999311
2.82250,-20.74727141
2.82300,-1.520023722
2.82350,14.65527989
2.82400,18.62280719
2.82450,14.96047429
2.82500,9.772169363
2.82550,4.278670025
2.82600,2.142309171
2.82650,6.109836471
2.82700,11.60333581
2.82750,11.90853022
2.82800,10.38255818
2.82850,17.40202956
2.82900,31.74616672
2.82950,39.68122132
2.83000,35.1033052
2.83050,24.42150093
2.83100,12.21372462
2.83150,-1.520023722
2.83200,-13.72780003
2.83250,-13.42260562
2.83300,-0.9096349063
2.83350,8.246197325
2.83400,3.363086802
2.83450,-8.234300691
2.83500,-12.81221681
2.83550,-5.79274543
2.83600,7.025419694
2.83650,16.79164074
2.83700,18.31761278
2.83750,11.90853022
2.83800,7.635808509
2.83850,13.73969666
2.83900,24.11630653
2.83950,23.81111212
2.84000,9.466974956
2.84050,-6.097939837
2.84100,-10.98105036
2.84150,-5.182356614
2.84200,3.057892394
2.84250,10.68775259
2.84300,16.48644633
2.84350,19.233196
2.84400,18.01241837
2.84450,16.18125192
2.84500,16.79164074
2.84550,21.97994567
2.84600,31.74616672
2.84650,39.98641573
2.84700,38.46044369
2.84750,25.64227856
2.84800,9.772169363
2.84850,0.3111427245
2.84900,-2.130412537
2.84950,-3.351190168
2.85000,-3.656384576
2.85050,-0.2992460909
2.85100,6.109836471
2.85150,13.73969666
2.85200,19.84358482
2.85250,21.36955686
2.85300,14.96047429
2.85350,3.973475617
2.85400,-1.520023722
2.85450,1.837114763
2.85500,7.941002917
2.85550,9.466974956
2.85600,9.772169363
2.85650,11.90853022
2.85700,11.2981414
2.85750,4.88905884
2.85800,-1.214829314
2.85850,-2.740801353
2.85900,-3.656384576
2.85950,-7.318717468
2.86000,-6.097939837
2.86050,4.278670025
2.86100,15.2656687
2.86150,18.92800159
2.86200,21.67475126
2.86250,32.05136113
2.86300,41.81758217
2.86350,36.01888843
2.86400,14.96047429
2.86450,-6.097939837
2.86500,-18.61091055
2.86550,-21.05246581
2.86600,-11.89663358
2.86650,5.194253248
2.86700,18.01241837
2.86750,15.57086311
2.86800,6.109836471
2.86850,7.025419694
2.86900,15.87605752
2.86950,15.57086311
2.87000,2.752697986
2.87050,-5.182356614
2.87100,0.9215315399
2.87150,8.246197325
2.87200,2.142309171
2.87250,-10.67585595
2.87300,-14.03299444
2.87350,-5.487551022
2.87400,2.447503578
2.87450,2.447503578
2.87500,-1.214829314
2.87550,-2.740801353
2.87600,-0.2992460909
2.87650,4.583864432
2.87700,10.99294699
2.87750,15.57086311
2.87800,18.01241837
2.87850,20.75916804
2.87900,24.42150093
2.87950,24.42150093
2.88000,17.09683515
2.88050,7.025419694
2.88100,0.6163371322
2.88150,-1.214829314
2.88200,-1.520023722
2.88250,0.3111427245
2.88300,9.161780548
2.88350,19.233196
2.88400,19.53839041
2.88450,6.415030879
2.88500,-7.318717468
2.88550,-7.01352306
2.88600,9.466974956
2.88650,30.52538909
2.88700,41.51238776
2.88750,36.32408283
2.88800,16.79164074
2.88850,-8.844689507
2.88900,-31.42907568
2.88950,-41.50049113
2.89000,-34.78621416
2.89050,-14.03299444
2.89100,8.551391732
2.89150,19.233196
2.89200,14.35008548
2.89250,4.278670025
2.89300,0.3111427245
2.89350,0.3111427245
2.89400,-3.961578983
2.89450,-12.81221681
2.89500,-16.16935529
2.89550,-9.149883914
2.89600,0.6163371322
2.89650,6.720225286
2.89700,10.99294699
2.89750,16.48644633
2.89800,18.31761278
2.89850,10.68775259
2.89900,-3.04599576
2.89950,-14.33818885
2.90000,-17.39013292
2.90050,-12.20182799
2.90100,-1.214829314
2.90150,11.60333581
2.90200,23.50591771
2.90250,30.22019468
2.90300,31.44097231
2.90350,29.30461146
2.90400,25.64227856
2.90450,22.59033449
2.90500,20.14877923
2.90550,16.48644633
2.90600,9.772169363
2.90650,1.531920355
2.90700,-4.877162206
2.90750,-10.67585595
2.90800,-17.69532733
2.90850,-21.66285463
2.90900,-16.77974411
2.90950,-5.182356614
2.91000,3.363086802
2.91050,6.109836471
2.91100,7.025419694
2.91150,10.68775259
2.91200,13.12930785
2.91250,10.68775259
2.91300,5.804642063
2.91350,0.005948316792
2.91400,-10.98105036
2.91450,-24.71479871
2.91500,-28.3771316
2.91550,-14.64338325
2.91600,5.804642063
2.91650,17.09683515
2.91700,15.57086311
2.91750,9.161780548
2.91800,1.531920355
2.91850,-9.149883914
2.91900,-18.91610496
2.91950,-18.61091055
2.92000,-11.59143918
