type,name,time_units,begin_time,frequency,count,units
signal,"Noraxon Ultium-RT LAT. TRICEPS","s",0.00000,2000,51280,"uV"

time,value
0.00000,-2.442470387
0.00050,-1.221692756
0.00100,-0.3061095334
0.00150,-0.3061095334
0.00200,-0.0009151256603
0.00250,-0.0009151256603
0.00300,-0.0009151256603
0.00350,-1.221692756
0.00400,-2.442470387
0.00450,-1.832081572
0.00500,-0.0009151256603
0.00550,-0.0009151256603
0.00600,-0.6113039411
0.00650,-1.526887164
0.00700,-1.221692756
0.00750,-0.9164983488
0.00800,-1.221692756
0.00850,-1.832081572
0.00900,-1.526887164
0.00950,-0.9164983488
0.01000,-0.0009151256603
0.01050,-0.0009151256603
0.01100,-0.0009151256603
0.01150,-0.3061095334
0.01200,-0.9164983488
0.01250,-0.9164983488
0.01300,-0.6113039411
0.01350,-0.6113039411
0.01400,-1.221692756
0.01450,-1.526887164
0.01500,-1.221692756
0.01550,-0.6113039411
0.01600,-0.0009151256603
0.01650,0.304279282
0.01700,0.9146680974
0.01750,0.6094736897
0.01800,-0.0009151256603
0.01850,-0.3061095334
0.01900,-0.6113039411
0.01950,-0.3061095334
0.02000,-0.0009151256603
0.02050,-0.3061095334
0.02100,-0.9164983488
0.02150,-0.6113039411
0.02200,-0.0009151256603
0.02250,0.9146680974
0.02300,1.219862505
0.02350,0.304279282
0.02400,-0.6113039411
0.02450,-1.221692756
0.02500,-0.9164983488
0.02550,-1.221692756
0.02600,-1.832081572
0.02650,-1.832081572
0.02700,-1.221692756
0.02750,-0.9164983488
0.02800,-0.9164983488
0.02850,-0.3061095334
0.02900,0.6094736897
0.02950,0.9146680974
0.03000,-0.0009151256603
0.03050,-0.9164983488
0.03100,-0.6113039411
0.03150,-0.0009151256603
0.03200,-0.9164983488
0.03250,-1.832081572
0.03300,-1.526887164
0.03350,-0.6113039411
0.03400,-0.3061095334
0.03450,-0.6113039411
0.03500,-0.6113039411
0.03550,-0.0009151256603
0.03600,-0.0009151256603
0.03650,-0.0009151256603
0.03700,0.304279282
0.03750,1.525056913
0.03800,2.135445728
0.03850,2.135445728
0.03900,1.525056913
0.03950,1.219862505
0.04000,1.525056913
0.04050,1.525056913
0.04100,0.9146680974
0.04150,-0.0009151256603
0.04200,-1.221692756
0.04250,-1.526887164
0.04300,-0.9164983488
0.04350,-0.0009151256603
0.04400,0.6094736897
0.04450,0.9146680974
0.04500,0.6094736897
0.04550,0.304279282
0.04600,0.304279282
0.04650,0.304279282
0.04700,-0.0009151256603
0.04750,-1.221692756
0.04800,-1.526887164
0.04850,-0.3061095334
0.04900,2.135445728
0.04950,4.57700099
0.05000,6.102973028
0.05050,6.408167436
0.05100,5.492584213
0.05150,3.356223359
0.05200,1.525056913
0.05250,0.6094736897
0.05300,1.219862505
0.05350,2.440640136
0.05400,3.356223359
0.05450,4.57700099
0.05500,6.102973028
0.05550,6.713361844
0.05600,5.797778621
0.05650,3.966612174
0.05700,2.745834544
0.05750,2.440640136
0.05800,1.525056913
0.05850,-0.0009151256603
0.05900,-1.221692756
0.05950,-1.526887164
0.06000,-1.221692756
0.06050,-0.9164983488
0.06100,-0.3061095334
0.06150,1.219862505
0.06200,3.356223359
0.06250,3.966612174
0.06300,3.356223359
0.06350,3.051028951
0.06400,3.051028951
0.06450,3.356223359
0.06500,2.745834544
0.06550,2.440640136
0.06600,3.356223359
0.06650,4.882195398
0.06700,5.492584213
0.06750,4.271806582
0.06800,3.051028951
0.06850,2.135445728
0.06900,2.440640136
0.06950,2.440640136
0.07000,2.440640136
0.07050,2.745834544
0.07100,3.661417767
0.07150,4.271806582
0.07200,3.966612174
0.07250,3.356223359
0.07300,3.051028951
0.07350,3.661417767
0.07400,3.356223359
0.07450,2.440640136
0.07500,1.525056913
0.07550,1.219862505
0.07600,0.6094736897
0.07650,-0.0009151256603
0.07700,0.304279282
0.07750,2.135445728
0.07800,2.745834544
0.07850,1.219862505
0.07900,-0.0009151256603
0.07950,0.304279282
0.08000,1.525056913
0.08050,0.6094736897
0.08100,-0.6113039411
0.08150,-1.221692756
0.08200,-0.3061095334
0.08250,-0.3061095334
0.08300,-1.832081572
0.08350,-2.747664795
0.08400,-3.35805361
0.08450,-4.884025649
0.08500,-7.020386503
0.08550,-6.715192095
0.08600,-4.884025649
0.08650,-4.578831241
0.08700,-6.715192095
0.08750,-8.546358541
0.08800,-7.935969726
0.08850,-6.10480328
0.08900,-5.494414464
0.08950,-5.494414464
0.09000,-5.494414464
0.09050,-5.494414464
0.09100,-6.10480328
0.09150,-6.10480328
0.09200,-5.189220057
0.09250,-4.273636833
0.09300,-3.968442426
0.09350,-4.578831241
0.09400,-5.189220057
0.09450,-5.799608872
0.09500,-6.10480328
0.09550,-5.189220057
0.09600,-4.884025649
0.09650,-5.494414464
0.09700,-6.715192095
0.09750,-6.409997687
0.09800,-5.799608872
0.09850,-6.10480328
0.09900,-6.715192095
0.09950,-6.409997687
0.10000,-5.799608872
0.10050,-6.715192095
0.10100,-8.851552949
0.10150,-9.461941764
0.10200,-8.241164134
0.10250,-7.630775318
0.10300,-8.851552949
0.10350,-10.07233058
0.10400,-8.546358541
0.10450,-5.799608872
0.10500,-4.578831241
0.10550,-4.884025649
0.10600,-4.884025649
0.10650,-4.578831241
0.10700,-4.578831241
0.10750,-5.799608872
0.10800,-6.715192095
0.10850,-7.020386503
0.10900,-7.020386503
0.10950,-6.715192095
0.11000,-6.715192095
0.11050,-6.10480328
0.11100,-5.494414464
0.11150,-4.884025649
0.11200,-5.189220057
0.11250,-6.409997687
0.11300,-7.32558091
0.11350,-6.409997687
0.11400,-5.189220057
0.11450,-5.494414464
0.11500,-7.020386503
0.11550,-7.630775318
0.11600,-6.715192095
0.11650,-6.10480328
0.11700,-6.715192095
0.11750,-7.32558091
0.11800,-6.409997687
0.11850,-5.189220057
0.11900,-5.799608872
0.11950,-7.935969726
0.12000,-7.935969726
0.12050,-6.10480328
0.12100,-4.578831241
0.12150,-4.884025649
0.12200,-5.189220057
0.12250,-4.578831241
0.12300,-3.968442426
0.12350,-4.578831241
0.12400,-5.799608872
0.12450,-6.10480328
0.12500,-5.494414464
0.12550,-4.884025649
0.12600,-4.884025649
0.12650,-5.494414464
0.12700,-6.409997687
0.12750,-6.715192095
0.12800,-6.10480328
0.12850,-4.884025649
0.12900,-4.578831241
0.12950,-5.189220057
0.13000,-4.578831241
0.13050,-3.663248018
0.13100,-4.273636833
0.13150,-6.10480328
0.13200,-7.020386503
0.13250,-5.799608872
0.13300,-4.578831241
0.13350,-5.189220057
0.13400,-5.799608872
0.13450,-4.273636833
0.13500,-1.832081572
0.13550,-0.6113039411
0.13600,-0.0009151256603
0.13650,1.525056913
0.13700,3.966612174
0.13750,4.57700099
0.13800,3.051028951
0.13850,2.440640136
0.13900,3.966612174
0.13950,6.102973028
0.14000,6.713361844
0.14050,6.102973028
0.14100,5.492584213
0.14150,5.797778621
0.14200,5.797778621
0.14250,5.797778621
0.14300,4.882195398
0.14350,3.356223359
0.14400,1.525056913
0.14450,0.6094736897
0.14500,0.9146680974
0.14550,1.830251321
0.14600,2.745834544
0.14650,3.356223359
0.14700,3.966612174
0.14750,4.882195398
0.14800,5.492584213
0.14850,6.102973028
0.14900,7.323750659
0.14950,8.239333882
0.15000,8.849722698
0.15050,8.849722698
0.15100,8.239333882
0.15150,7.628945067
0.15200,7.628945067
0.15250,7.323750659
0.15300,6.102973028
0.15350,4.57700099
0.15400,2.745834544
0.15450,1.830251321
0.15500,0.9146680974
0.15550,-0.0009151256603
0.15600,-2.13727598
0.15650,-4.578831241
0.15700,-7.020386503
0.15750,-9.767136172
0.15800,-11.59830262
0.15850,-12.51388584
0.15900,-11.90349703
0.15950,-10.07233058
0.16000,-7.630775318
0.16050,-5.799608872
0.16100,-6.10480328
0.16150,-8.546358541
0.16200,-11.29310821
0.16250,-11.59830262
0.16300,-9.767136172
0.16350,-7.32558091
0.16400,-5.799608872
0.16450,-5.494414464
0.16500,-5.799608872
0.16550,-5.799608872
0.16600,-6.10480328
0.16650,-5.799608872
0.16700,-5.189220057
0.16750,-4.578831241
0.16800,-4.884025649
0.16850,-5.799608872
0.16900,-6.409997687
0.16950,-5.799608872
0.17000,-3.968442426
0.17050,-1.832081572
0.17100,-0.3061095334
0.17150,0.6094736897
0.17200,2.440640136
0.17250,3.661417767
0.17300,3.661417767
0.17350,2.745834544
0.17400,2.745834544
0.17450,4.271806582
0.17500,5.187389805
0.17550,4.57700099
0.17600,3.356223359
0.17650,2.745834544
0.17700,2.440640136
0.17750,2.440640136
0.17800,2.440640136
0.17850,3.051028951
0.17900,3.966612174
0.17950,3.966612174
0.18000,2.440640136
0.18050,0.6094736897
0.18100,-0.0009151256603
0.18150,-0.0009151256603
0.18200,-0.0009151256603
0.18250,-0.3061095334
0.18300,-1.221692756
0.18350,-1.221692756
0.18400,-0.6113039411
0.18450,-0.6113039411
0.18500,-1.526887164
0.18550,-1.526887164
0.18600,-0.3061095334
0.18650,0.6094736897
0.18700,0.9146680974
0.18750,0.9146680974
0.18800,0.6094736897
0.18850,-0.0009151256603
0.18900,-1.221692756
0.18950,-1.221692756
0.19000,-0.0009151256603
0.19050,0.304279282
0.19100,-0.3061095334
0.19150,-0.6113039411
0.19200,0.6094736897
0.19250,2.135445728
0.19300,2.440640136
0.19350,2.745834544
0.19400,4.57700099
0.19450,7.628945067
0.19500,10.07050033
0.19550,12.51205559
0.19600,15.25880526
0.19650,18.31074934
0.19700,19.22633256
0.19750,19.22633256
0.19800,19.83672137
0.19850,21.36269341
0.19900,22.88866545
0.19950,22.58347104
0.20000,21.05749901
0.20050,20.14191578
0.20100,19.22633256
0.20150,18.61594374
0.20200,18.00555493
0.20250,18.31074934
0.20300,19.22633256
0.20350,19.22633256
0.20400,18.31074934
0.20450,17.39516611
0.20500,17.08997171
0.20550,17.08997171
0.20600,15.86919407
0.20650,13.42763881
0.20700,11.90166677
0.20750,11.59647237
0.20800,11.90166677
0.20850,10.68088914
0.20900,7.323750659
0.20950,0.6094736897
0.21000,-7.32558091
0.21050,-14.34505229
0.21100,-17.39699636
0.21150,-17.70219077
0.21200,-17.70219077
0.21250,-19.22816281
0.21300,-21.05932926
0.21350,-21.66971807
0.21400,-22.5853013
0.21450,-24.11127333
0.21500,-25.02685656
0.21550,-23.80607893
0.21600,-21.36452366
0.21650,-20.75413485
0.21700,-22.28010689
0.21750,-23.19569011
0.21800,-22.8904957
0.21850,-21.97491248
0.21900,-21.36452366
0.21950,-18.617774
0.22000,-14.6502467
0.22050,-11.90349703
0.22100,-12.20869143
0.22150,-12.81908025
0.22200,-10.6827194
0.22250,-6.409997687
0.22300,-3.663248018
0.22350,-3.663248018
0.22400,-4.273636833
0.22450,-3.663248018
0.22500,-2.442470387
0.22550,-0.6113039411
0.22600,0.9146680974
0.22650,2.135445728
0.22700,2.745834544
0.22750,3.661417767
0.22800,5.492584213
0.22850,7.018556251
0.22900,7.628945067
0.22950,8.239333882
0.23000,10.98608355
0.23050,14.64841644
0.23100,16.47958289
0.23150,17.39516611
0.23200,18.92113815
0.23250,21.36269341
0.23300,22.58347104
0.23350,23.49905427
0.23400,24.41463749
0.23450,24.7198319
0.23500,22.88866545
0.23550,19.22633256
0.23600,16.47958289
0.23650,16.17438848
0.23700,15.56399967
0.23750,14.03802763
0.23800,12.20686118
0.23850,11.29127796
0.23900,10.68088914
0.23950,10.07050033
0.24000,9.765305921
0.24050,9.765305921
0.24100,7.934139475
0.24150,4.271806582
0.24200,0.304279282
0.24250,-1.832081572
0.24300,-3.968442426
0.24350,-6.10480328
0.24400,-8.546358541
0.24450,-10.9879138
0.24500,-13.73466347
0.24550,-15.56582992
0.24600,-15.87102433
0.24650,-15.56582992
0.24700,-15.26063551
0.24750,-14.34505229
0.24800,-11.29310821
0.24850,-6.715192095
0.24900,-3.968442426
0.24950,-4.273636833
0.25000,-4.578831241
0.25050,-2.442470387
0.25100,-0.3061095334
0.25150,0.304279282
0.25200,0.304279282
0.25250,0.9146680974
0.25300,1.525056913
0.25350,1.830251321
0.25400,2.135445728
0.25450,3.356223359
0.25500,3.661417767
0.25550,3.051028951
0.25600,2.745834544
0.25650,3.661417767
0.25700,3.661417767
0.25750,2.440640136
0.25800,1.525056913
0.25850,3.356223359
0.25900,6.713361844
0.25950,8.54452829
0.26000,8.54452829
0.26050,8.54452829
0.26100,9.154917105
0.26150,9.460111513
0.26200,8.849722698
0.26250,8.54452829
0.26300,8.239333882
0.26350,7.934139475
0.26400,7.628945067
0.26450,8.239333882
0.26500,9.154917105
0.26550,8.849722698
0.26600,7.934139475
0.26650,7.628945067
0.26700,7.934139475
0.26750,8.54452829
0.26800,8.54452829
0.26850,9.460111513
0.26900,10.98608355
0.26950,11.59647237
0.27000,11.59647237
0.27050,10.98608355
0.27100,10.68088914
0.27150,9.460111513
0.27200,7.934139475
0.27250,6.713361844
0.27300,7.018556251
0.27350,7.934139475
0.27400,9.154917105
0.27450,10.07050033
0.27500,10.37569474
0.27550,9.765305921
0.27600,8.849722698
0.27650,8.849722698
0.27700,9.460111513
0.27750,9.154917105
0.27800,7.934139475
0.27850,6.713361844
0.27900,6.713361844
0.27950,7.018556251
0.28000,7.628945067
0.28050,7.934139475
0.28100,8.54452829
0.28150,8.849722698
0.28200,7.934139475
0.28250,6.713361844
0.28300,6.408167436
0.28350,7.018556251
0.28400,7.018556251
0.28450,5.797778621
0.28500,4.271806582
0.28550,4.882195398
0.28600,6.102973028
0.28650,6.408167436
0.28700,5.492584213
0.28750,4.882195398
0.28800,5.187389805
0.28850,5.187389805
0.28900,3.661417767
0.28950,2.440640136
0.29000,3.051028951
0.29050,4.271806582
0.29100,4.57700099
0.29150,4.271806582
0.29200,3.661417767
0.29250,3.661417767
0.29300,3.356223359
0.29350,3.051028951
0.29400,3.356223359
0.29450,3.966612174
0.29500,3.661417767
0.29550,3.356223359
0.29600,3.051028951
0.29650,2.745834544
0.29700,2.440640136
0.29750,2.135445728
0.29800,2.745834544
0.29850,3.661417767
0.29900,3.966612174
0.29950,3.356223359
0.30000,3.356223359
0.30050,3.661417767
0.30100,3.051028951
0.30150,1.219862505
0.30200,0.6094736897
0.30250,1.830251321
0.30300,3.051028951
0.30350,2.745834544
0.30400,1.830251321
0.30450,1.219862505
0.30500,0.9146680974
0.30550,-0.0009151256603
0.30600,-0.3061095334
0.30650,0.6094736897
0.30700,3.661417767
0.30750,7.018556251
0.30800,10.07050033
0.30850,13.42763881
0.30900,16.17438848
0.30950,18.31074934
0.31000,19.53152697
0.31050,20.44711019
0.31100,21.36269341
0.31150,21.66788782
0.31200,21.36269341
0.31250,20.7523046
0.31300,19.83672137
0.31350,18.92113815
0.31400,17.70036052
0.31450,17.08997171
0.31500,17.70036052
0.31550,18.92113815
0.31600,20.14191578
0.31650,20.7523046
0.31700,20.44711019
0.31750,18.31074934
0.31800,15.25880526
0.31850,12.20686118
0.31900,9.765305921
0.31950,6.713361844
0.32000,3.661417767
0.32050,0.6094736897
0.32100,-2.747664795
0.32150,-7.630775318
0.32200,-13.73466347
0.32250,-19.53335722
0.32300,-23.50088452
0.32350,-25.63724537
0.32400,-26.5528286
0.32450,-27.46841182
0.32500,-28.68918945
0.32550,-30.21516149
0.32600,-30.21516149
0.32650,-28.99438386
0.32700,-27.16321741
0.32750,-26.24763419
0.32800,-25.63724537
0.32850,-25.94243978
0.32900,-26.858023
0.32950,-27.46841182
0.33000,-25.63724537
0.33050,-22.5853013
0.33100,-20.75413485
0.33150,-20.75413485
0.33200,-20.44894044
0.33250,-18.31257959
0.33300,-15.87102433
0.33350,-14.03985788
0.33400,-12.20869143
0.33450,-9.156747357
0.33500,-5.494414464
0.33550,-4.273636833
0.33600,-5.189220057
0.33650,-7.020386503
0.33700,-8.546358541
0.33750,-10.07233058
0.33800,-10.9879138
0.33850,-11.90349703
0.33900,-12.51388584
0.33950,-13.73466347
0.34000,-14.9554411
0.34050,-16.48141314
0.34100,-18.617774
0.34150,-19.53335722
0.34200,-19.53335722
0.34250,-19.53335722
0.34300,-20.44894044
0.34350,-21.97491248
0.34400,-21.97491248
0.34450,-19.53335722
0.34500,-15.87102433
0.34550,-13.73466347
0.34600,-13.42946906
0.34650,-14.03985788
0.34700,-15.26063551
0.34750,-15.56582992
0.34800,-14.34505229
0.34850,-12.51388584
0.34900,-11.29310821
0.34950,-10.6827194
0.35000,-10.07233058
0.35050,-9.156747357
0.35100,-7.935969726
0.35150,-7.020386503
0.35200,-5.189220057
0.35250,-3.663248018
0.35300,-3.35805361
0.35350,-3.663248018
0.35400,-3.663248018
0.35450,-3.052859203
0.35500,-3.052859203
0.35550,-3.052859203
0.35600,-1.832081572
0.35650,-0.0009151256603
0.35700,0.9146680974
0.35750,0.9146680974
0.35800,0.9146680974
0.35850,1.219862505
0.35900,1.830251321
0.35950,2.135445728
0.36000,2.440640136
0.36050,2.745834544
0.36100,2.745834544
0.36150,2.745834544
0.36200,2.440640136
0.36250,2.135445728
0.36300,1.525056913
0.36350,1.525056913
0.36400,2.135445728
0.36450,2.440640136
0.36500,1.830251321
0.36550,1.525056913
0.36600,2.135445728
0.36650,2.135445728
0.36700,0.6094736897
0.36750,-0.6113039411
0.36800,-0.0009151256603
0.36850,2.440640136
0.36900,3.661417767
0.36950,2.745834544
0.37000,1.830251321
0.37050,1.830251321
0.37100,1.830251321
0.37150,1.219862505
0.37200,0.6094736897
0.37250,-0.0009151256603
0.37300,-0.0009151256603
0.37350,0.6094736897
0.37400,2.745834544
0.37450,4.57700099
0.37500,4.57700099
0.37550,3.661417767
0.37600,2.745834544
0.37650,2.745834544
0.37700,2.440640136
0.37750,2.135445728
0.37800,2.745834544
0.37850,4.271806582
0.37900,5.187389805
0.37950,5.187389805
0.38000,6.102973028
0.38050,8.54452829
0.38100,11.29127796
0.38150,12.81725
0.38200,12.51205559
0.38250,11.90166677
0.38300,11.90166677
0.38350,11.59647237
0.38400,11.29127796
0.38450,10.68088914
0.38500,10.07050033
0.38550,9.460111513
0.38600,8.849722698
0.38650,8.239333882
0.38700,8.239333882
0.38750,8.54452829
0.38800,9.154917105
0.38850,9.154917105
0.38900,8.54452829
0.38950,7.628945067
0.39000,7.323750659
0.39050,7.934139475
0.39100,7.323750659
0.39150,5.187389805
0.39200,3.051028951
0.39250,3.051028951
0.39300,4.271806582
0.39350,4.882195398
0.39400,3.966612174
0.39450,3.051028951
0.39500,3.051028951
0.39550,2.135445728
0.39600,-0.9164983488
0.39650,-4.884025649
0.39700,-6.715192095
0.39750,-6.409997687
0.39800,-6.10480328
0.39850,-7.020386503
0.39900,-7.020386503
0.39950,-6.10480328
0.40000,-4.884025649
0.40050,-3.35805361
0.40100,-0.0009151256603
0.40150,4.271806582
0.40200,7.628945067
0.40250,8.239333882
0.40300,7.628945067
0.40350,7.934139475
0.40400,9.154917105
0.40450,9.765305921
0.40500,9.154917105
0.40550,7.628945067
0.40600,5.187389805
0.40650,1.525056913
0.40700,-1.832081572
0.40750,-3.968442426
0.40800,-4.578831241
0.40850,-5.494414464
0.40900,-7.935969726
0.40950,-10.9879138
0.41000,-13.12427466
0.41050,-14.03985788
0.41100,-15.87102433
0.41150,-19.22816281
0.41200,-23.50088452
0.41250,-26.858023
0.41300,-30.21516149
0.41350,-34.7930776
0.41400,-40.28657694
0.41450,-44.55929865
0.41500,-47.00085391
0.41550,-48.52682595
0.41600,-50.3579924
0.41650,-51.88396443
0.41700,-50.96838121
0.41750,-47.30604832
0.41800,-43.33852102
0.41850,-39.67618813
0.41900,-36.62424405
0.41950,-33.57229997
0.42000,-31.13074471
0.42050,-28.99438386
0.42100,-25.94243978
0.42150,-21.97491248
0.42200,-18.00738518
0.42250,-15.87102433
0.42300,-14.9554411
0.42350,-13.42946906
0.42400,-10.9879138
0.42450,-8.546358541
0.42500,-7.32558091
0.42550,-6.409997687
0.42600,-5.189220057
0.42650,-3.968442426
0.42700,-2.747664795
0.42750,-2.442470387
0.42800,-0.9164983488
0.42850,0.9146680974
0.42900,2.440640136
0.42950,2.745834544
0.43000,2.745834544
0.43050,3.051028951
0.43100,3.661417767
0.43150,3.966612174
0.43200,4.271806582
0.43250,5.187389805
0.43300,6.713361844
0.43350,7.628945067
0.43400,7.934139475
0.43450,7.628945067
0.43500,6.713361844
0.43550,5.187389805
0.43600,4.271806582
0.43650,5.187389805
0.43700,7.018556251
0.43750,8.849722698
0.43800,9.154917105
0.43850,8.849722698
0.43900,7.934139475
0.43950,7.018556251
0.44000,6.102973028
0.44050,6.408167436
0.44100,6.713361844
0.44150,7.323750659
0.44200,7.628945067
0.44250,8.239333882
0.44300,8.54452829
0.44350,7.934139475
0.44400,6.713361844
0.44450,6.102973028
0.44500,6.408167436
0.44550,6.713361844
0.44600,6.408167436
0.44650,6.102973028
0.44700,7.018556251
0.44750,8.54452829
0.44800,8.849722698
0.44850,7.934139475
0.44900,7.628945067
0.44950,8.239333882
0.45000,8.54452829
0.45050,7.934139475
0.45100,7.018556251
0.45150,6.408167436
0.45200,6.408167436
0.45250,6.713361844
0.45300,6.713361844
0.45350,6.102973028
0.45400,4.882195398
0.45450,3.661417767
0.45500,3.966612174
0.45550,5.187389805
0.45600,6.408167436
0.45650,6.408167436
0.45700,5.797778621
0.45750,6.102973028
0.45800,6.713361844
0.45850,6.408167436
0.45900,6.102973028
0.45950,6.408167436
0.46000,7.018556251
0.46050,6.408167436
0.46100,5.492584213
0.46150,5.187389805
0.46200,5.797778621
0.46250,5.492584213
0.46300,3.661417767
0.46350,2.440640136
0.46400,2.745834544
0.46450,3.356223359
0.46500,2.440640136
0.46550,0.6094736897
0.46600,-0.0009151256603
0.46650,0.6094736897
0.46700,2.440640136
0.46750,3.051028951
0.46800,3.051028951
0.46850,1.830251321
0.46900,0.9146680974
0.46950,0.6094736897
0.47000,1.525056913
0.47050,2.440640136
0.47100,2.440640136
0.47150,2.745834544
0.47200,3.661417767
0.47250,4.882195398
0.47300,5.187389805
0.47350,4.271806582
0.47400,3.661417767
0.47450,2.745834544
0.47500,1.830251321
0.47550,0.6094736897
0.47600,-0.0009151256603
0.47650,0.6094736897
0.47700,1.525056913
0.47750,2.135445728
0.47800,2.745834544
0.47850,3.051028951
0.47900,3.356223359
0.47950,3.661417767
0.48000,2.745834544
0.48050,1.219862505
0.48100,0.6094736897
0.48150,1.219862505
0.48200,2.135445728
0.48250,2.440640136
0.48300,3.051028951
0.48350,4.271806582
0.48400,5.187389805
0.48450,4.57700099
0.48500,3.051028951
0.48550,2.745834544
0.48600,3.966612174
0.48650,4.271806582
0.48700,2.440640136
0.48750,0.304279282
0.48800,-0.3061095334
0.48850,-0.3061095334
0.48900,-0.6113039411
0.48950,-0.9164983488
0.49000,-0.6113039411
0.49050,-0.0009151256603
0.49100,0.6094736897
0.49150,1.219862505
0.49200,1.525056913
0.49250,1.219862505
0.49300,0.6094736897
0.49350,0.304279282
0.49400,0.304279282
0.49450,0.9146680974
0.49500,0.9146680974
0.49550,0.6094736897
0.49600,0.9146680974
0.49650,0.9146680974
0.49700,0.9146680974
0.49750,0.9146680974
0.49800,0.9146680974
0.49850,0.304279282
0.49900,-0.0009151256603
0.49950,0.6094736897
0.50000,1.525056913
0.50050,2.135445728
0.50100,1.219862505
0.50150,-0.0009151256603
0.50200,-0.9164983488
0.50250,-1.221692756
0.50300,-1.832081572
0.50350,-1.526887164
0.50400,-0.9164983488
0.50450,-0.0009151256603
0.50500,-0.0009151256603
0.50550,-0.0009151256603
0.50600,-0.0009151256603
0.50650,-0.0009151256603
0.50700,-0.0009151256603
0.50750,-0.3061095334
0.50800,-0.3061095334
0.50850,-0.0009151256603
0.50900,0.6094736897
0.50950,0.9146680974
0.51000,1.219862505
0.51050,1.830251321
0.51100,1.525056913
0.51150,0.9146680974
0.51200,0.6094736897
0.51250,0.9146680974
0.51300,1.525056913
0.51350,0.9146680974
0.51400,-0.0009151256603
0.51450,-0.3061095334
0.51500,-0.3061095334
0.51550,-0.0009151256603
0.51600,-0.0009151256603
0.51650,-0.0009151256603
0.51700,-0.0009151256603
0.51750,-0.0009151256603
0.51800,-0.0009151256603
0.51850,-0.3061095334
0.51900,-0.6113039411
0.51950,-1.526887164
0.52000,-2.13727598
0.52050,-1.832081572
0.52100,-2.13727598
0.52150,-2.442470387
0.52200,-2.747664795
0.52250,-2.13727598
0.52300,-0.3061095334
0.52350,1.525056913
0.52400,3.966612174
0.52450,6.408167436
0.52500,8.849722698
0.52550,10.68088914
0.52600,11.90166677
0.52650,12.81725
0.52700,12.20686118
0.52750,11.90166677
0.52800,13.73283322
0.52850,17.39516611
0.52900,19.83672137
0.52950,20.14191578
0.53000,20.7523046
0.53050,23.19385986
0.53100,26.24580394
0.53150,27.77177598
0.53200,28.6873592
0.53250,28.99255361
0.53300,27.46658157
0.53350,23.80424868
0.53400,20.44711019
0.53450,19.22633256
0.53500,19.22633256
0.53550,18.61594374
0.53600,17.08997171
0.53650,15.86919407
0.53700,14.03802763
0.53750,10.37569474
0.53800,4.882195398
0.53850,-0.6113039411
0.53900,-6.715192095
0.53950,-12.81908025
0.54000,-16.48141314
0.54050,-16.48141314
0.54100,-14.9554411
0.54150,-15.56582992
0.54200,-18.9229684
0.54250,-23.19569011
0.54300,-26.5528286
0.54350,-28.38399504
0.54400,-28.07880063
0.54450,-26.24763419
0.54500,-25.94243978
0.54550,-28.68918945
0.54600,-32.96191116
0.54650,-34.4878832
0.54700,-32.35152234
0.54750,-29.90996708
0.54800,-29.29957827
0.54850,-29.29957827
0.54900,-27.46841182
0.54950,-23.19569011
0.55000,-18.31257959
0.55050,-14.03985788
0.55100,-10.37752499
0.55150,-7.935969726
0.55200,-6.10480328
0.55250,-4.884025649
0.55300,-3.663248018
0.55350,-2.747664795
0.55400,-1.832081572
0.55450,-0.3061095334
0.55500,0.6094736897
0.55550,1.830251321
0.55600,3.051028951
0.55650,4.271806582
0.55700,4.271806582
0.55750,2.745834544
0.55800,0.6094736897
0.55850,0.9146680974
0.55900,3.356223359
0.55950,5.187389805
0.56000,3.661417767
0.56050,-0.3061095334
0.56100,-4.884025649
0.56150,-6.715192095
0.56200,-7.020386503
0.56250,-7.32558091
0.56300,-10.07233058
0.56350,-14.34505229
0.56400,-19.53335722
0.56450,-24.11127333
0.56500,-27.46841182
0.56550,-29.29957827
0.56600,-28.99438386
0.56650,-26.858023
0.56700,-24.72166215
0.56750,-22.8904957
0.56800,-21.36452366
0.56850,-18.9229684
0.56900,-15.87102433
0.56950,-13.42946906
0.57000,-11.59830262
0.57050,-9.767136172
0.57100,-8.241164134
0.57150,-7.935969726
0.57200,-7.935969726
0.57250,-7.630775318
0.57300,-5.494414464
0.57350,-3.052859203
0.57400,-1.832081572
0.57450,-1.832081572
0.57500,-0.3061095334
0.57550,3.051028951
0.57600,6.408167436
0.57650,7.628945067
0.57700,7.323750659
0.57750,7.323750659
0.57800,8.239333882
0.57850,8.54452829
0.57900,8.239333882
0.57950,8.54452829
0.58000,10.07050033
0.58050,11.29127796
0.58100,11.59647237
0.58150,12.20686118
0.58200,12.81725
0.58250,12.81725
0.58300,11.59647237
0.58350,10.98608355
0.58400,11.29127796
0.58450,11.59647237
0.58500,10.98608355
0.58550,10.37569474
0.58600,10.68088914
0.58650,12.20686118
0.58700,12.81725
0.58750,12.51205559
0.58800,11.90166677
0.58850,11.90166677
0.58900,11.59647237
0.58950,11.90166677
0.59000,12.51205559
0.59050,12.81725
0.59100,11.90166677
0.59150,10.68088914
0.59200,10.68088914
0.59250,12.20686118
0.59300,12.81725
0.59350,12.20686118
0.59400,11.29127796
0.59450,11.29127796
0.59500,11.59647237
0.59550,11.59647237
0.59600,11.29127796
0.59650,11.29127796
0.59700,10.98608355
0.59750,10.37569474
0.59800,10.37569474
0.59850,11.29127796
0.59900,11.90166677
0.59950,10.68088914
0.60000,8.849722698
0.60050,8.239333882
0.60100,8.849722698
0.60150,9.154917105
0.60200,8.239333882
0.60250,7.018556251
0.60300,6.408167436
0.60350,5.797778621
0.60400,5.187389805
0.60450,4.57700099
0.60500,4.271806582
0.60550,4.271806582
0.60600,4.271806582
0.60650,4.882195398
0.60700,6.408167436
0.60750,7.934139475
0.60800,9.460111513
0.60850,10.98608355
0.60900,12.81725
0.60950,14.34322204
0.61000,14.34322204
0.61050,13.73283322
0.61100,13.42763881
0.61150,13.73283322
0.61200,14.34322204
0.61250,14.95361085
0.61300,15.25880526
0.61350,15.25880526
0.61400,15.56399967
0.61450,15.86919407
0.61500,17.39516611
0.61550,19.53152697
0.61600,21.66788782
0.61650,22.58347104
0.61700,22.58347104
0.61750,21.97308223
0.61800,20.7523046
0.61850,19.83672137
0.61900,19.53152697
0.61950,21.05749901
0.62000,24.41463749
0.62050,26.85619275
0.62100,25.33022071
0.62150,19.83672137
0.62200,14.64841644
0.62250,12.81725
0.62300,12.20686118
0.62350,10.37569474
0.62400,6.713361844
0.62450,3.966612174
0.62500,2.745834544
0.62550,1.219862505
0.62600,-0.3061095334
0.62650,-0.3061095334
0.62700,1.830251321
0.62750,5.797778621
0.62800,8.54452829
0.62850,10.37569474
0.62900,9.460111513
0.62950,5.797778621
0.63000,1.219862505
0.63050,-0.3061095334
0.63100,0.304279282
0.63150,1.219862505
0.63200,0.9146680974
0.63250,0.9146680974
0.63300,2.135445728
0.63350,1.525056913
0.63400,-1.221692756
0.63450,-4.884025649
0.63500,-5.189220057
0.63550,-2.442470387
0.63600,-0.0009151256603
0.63650,-0.0009151256603
0.63700,-1.526887164
0.63750,-3.35805361
0.63800,-2.13727598
0.63850,1.525056913
0.63900,4.882195398
0.63950,3.356223359
0.64000,-2.13727598
0.64050,-6.715192095
0.64100,-7.32558091
0.64150,-7.020386503
0.64200,-8.546358541
0.64250,-10.07233058
0.64300,-10.07233058
0.64350,-11.29310821
0.64400,-14.9554411
0.64450,-18.31257959
0.64500,-18.617774
0.64550,-18.00738518
0.64600,-19.53335722
0.64650,-21.97491248
0.64700,-20.75413485
0.64750,-17.70219077
0.64800,-18.00738518
0.64850,-23.50088452
0.64900,-30.21516149
0.64950,-34.4878832
0.65000,-35.40346642
0.65050,-35.70866083
0.65100,-37.23463287
0.65150,-40.28657694
0.65200,-44.55929865
0.65250,-50.05279799
0.65300,-55.54629733
0.65350,-60.42940785
0.65400,-62.2605743
0.65450,-59.81901904
0.65500,-54.02032529
0.65550,-49.13721477
0.65600,-47.61124273
0.65650,-47.00085391
0.65700,-44.25410424
0.65750,-39.67618813
0.65800,-36.31904964
0.65850,-34.4878832
0.65900,-31.74113353
0.65950,-27.77360623
0.66000,-24.11127333
0.66050,-21.66971807
0.66100,-19.22816281
0.66150,-16.78660755
0.66200,-15.56582992
0.66250,-15.56582992
0.66300,-15.56582992
0.66350,-14.34505229
0.66400,-12.81908025
0.66450,-11.90349703
0.66500,-11.90349703
0.66550,-11.59830262
0.66600,-10.6827194
0.66650,-9.156747357
0.66700,-6.409997687
0.66750,-3.052859203
0.66800,-0.3061095334
0.66850,1.830251321
0.66900,3.966612174
0.66950,5.797778621
0.67000,7.323750659
0.67050,8.849722698
0.67100,10.68088914
0.67150,12.20686118
0.67200,12.20686118
0.67250,12.20686118
0.67300,13.42763881
0.67350,14.64841644
0.67400,14.34322204
0.67450,13.12244441
0.67500,13.73283322
0.67550,15.56399967
0.67600,16.7847773
0.67650,17.39516611
0.67700,18.31074934
0.67750,18.92113815
0.67800,18.31074934
0.67850,17.08997171
0.67900,17.39516611
0.67950,18.61594374
0.68000,18.92113815
0.68050,17.70036052
0.68100,17.39516611
0.68150,18.61594374
0.68200,19.53152697
0.68250,18.92113815
0.68300,18.31074934
0.68350,18.61594374
0.68400,19.22633256
0.68450,18.61594374
0.68500,18.31074934
0.68550,18.00555493
0.68600,16.47958289
0.68650,14.34322204
0.68700,13.42763881
0.68750,14.64841644
0.68800,16.17438848
0.68850,15.86919407
0.68900,14.95361085
0.68950,14.64841644
0.69000,14.95361085
0.69050,14.34322204
0.69100,13.42763881
0.69150,13.42763881
0.69200,13.73283322
0.69250,13.42763881
0.69300,12.81725
0.69350,12.81725
0.69400,12.81725
0.69450,12.51205559
0.69500,12.20686118
0.69550,12.51205559
0.69600,13.73283322
0.69650,14.34322204
0.69700,14.03802763
0.69750,14.34322204
0.69800,15.56399967
0.69850,17.08997171
0.69900,17.70036052
0.69950,17.39516611
0.70000,16.7847773
0.70050,16.47958289
0.70100,16.47958289
0.70150,16.17438848
0.70200,15.56399967
0.70250,14.95361085
0.70300,15.56399967
0.70350,17.39516611
0.70400,19.53152697
0.70450,21.05749901
0.70500,21.66788782
0.70550,22.58347104
0.70600,22.88866545
0.70650,22.58347104
0.70700,23.19385986
0.70750,26.85619275
0.70800,33.26527531
0.70850,39.97955228
0.70900,45.16785721
0.70950,48.21980129
0.71000,49.44057892
0.71050,50.35616215
0.71100,50.96655096
0.71150,50.66135655
0.71200,47.91460688
0.71250,43.33669077
0.71300,38.45358024
0.71350,34.48605294
0.71400,29.90813683
0.71450,23.49905427
0.71500,17.70036052
0.71550,16.17438848
0.71600,18.00555493
0.71650,18.61594374
0.71700,17.39516611
0.71750,16.47958289
0.71800,18.61594374
0.71850,21.05749901
0.71900,21.36269341
0.71950,19.83672137
0.72000,16.7847773
0.72050,9.460111513
0.72100,-3.052859203
0.72150,-18.9229684
0.72200,-32.96191116
0.72250,-42.11774339
0.72300,-46.6956595
0.72350,-48.22163154
0.72400,-47.91643713
0.72450,-47.91643713
0.72500,-48.52682595
0.72550,-49.13721477
0.72600,-48.52682595
0.72650,-46.3904651
0.72700,-42.4229378
0.72750,-35.40346642
0.72800,-26.24763419
0.72850,-19.22816281
0.72900,-16.17621873
0.72950,-15.87102433
0.73000,-15.26063551
0.73050,-15.26063551
0.73100,-16.17621873
0.73150,-16.48141314
0.73200,-15.26063551
0.73250,-14.03985788
0.73300,-14.34505229
0.73350,-15.87102433
0.73400,-15.87102433
0.73450,-15.56582992
0.73500,-17.09180196
0.73550,-21.36452366
0.73600,-25.02685656
0.73650,-26.858023
0.73700,-26.858023
0.73750,-27.16321741
0.73800,-28.68918945
0.73850,-31.74113353
0.73900,-36.62424405
0.73950,-40.89696576
0.74000,-42.4229378
0.74050,-42.4229378
0.74100,-44.25410424
0.74150,-49.44240917
0.74200,-55.54629733
0.74250,-60.73460226
0.74300,-64.09174074
0.74350,-65.31251837
0.74400,-64.09174074
0.74450,-62.5657687
0.74500,-62.2605743
0.74550,-63.17615752
0.74600,-61.34499107
0.74650,-56.15668614
0.74700,-50.05279799
0.74750,-45.78007628
0.74800,-43.03332661
0.74850,-40.28657694
0.74900,-37.84502168
0.74950,-36.31904964
0.75000,-34.4878832
0.75050,-29.90996708
0.75100,-23.19569011
0.75150,-17.09180196
0.75200,-12.81908025
0.75250,-8.851552949
0.75300,-4.578831241
0.75350,-0.9164983488
0.75400,1.219862505
0.75450,3.661417767
0.75500,6.102973028
0.75550,8.849722698
0.75600,11.29127796
0.75650,13.42763881
0.75700,15.56399967
0.75750,18.00555493
0.75800,20.14191578
0.75850,21.66788782
0.75900,21.97308223
0.75950,21.66788782
0.76000,22.27827664
0.76050,23.49905427
0.76100,25.02502631
0.76150,25.63541512
0.76200,25.63541512
0.76250,25.33022071
0.76300,25.02502631
0.76350,24.10944308
0.76400,23.49905427
0.76450,23.49905427
0.76500,23.49905427
0.76550,23.49905427
0.76600,23.19385986
0.76650,23.49905427
0.76700,23.49905427
0.76750,21.97308223
0.76800,19.22633256
0.76850,17.39516611
0.76900,18.00555493
0.76950,19.22633256
0.77000,19.53152697
0.77050,19.22633256
0.77100,19.22633256
0.77150,18.92113815
0.77200,17.70036052
0.77250,15.86919407
0.77300,16.17438848
0.77350,18.00555493
0.77400,18.61594374
0.77450,17.08997171
0.77500,15.25880526
0.77550,14.95361085
0.77600,16.47958289
0.77650,17.08997171
0.77700,16.17438848
0.77750,14.95361085
0.77800,14.64841644
0.77850,14.03802763
0.77900,13.12244441
0.77950,12.20686118
0.78000,11.59647237
0.78050,11.29127796
0.78100,11.29127796
0.78150,12.51205559
0.78200,14.03802763
0.78250,14.95361085
0.78300,14.34322204
0.78350,13.42763881
0.78400,13.12244441
0.78450,13.12244441
0.78500,13.12244441
0.78550,13.42763881
0.78600,14.34322204
0.78650,16.17438848
0.78700,18.92113815
0.78750,23.19385986
0.78800,27.46658157
0.78850,29.90813683
0.78900,30.21333124
0.78950,29.90813683
0.79000,30.51852564
0.79050,32.04449768
0.79100,31.73930328
0.79150,30.51852564
0.79200,29.90813683
0.79250,29.90813683
0.79300,29.29774801
0.79350,27.16138716
0.79400,24.7198319
0.79450,23.49905427
0.79500,23.49905427
0.79550,24.10944308
0.79600,25.33022071
0.79650,27.16138716
0.79700,28.6873592
0.79750,29.29774801
0.79800,28.99255361
0.79850,28.07697038
0.79900,26.24580394
0.79950,22.58347104
0.80000,17.08997171
0.80050,9.460111513
0.80100,-0.6113039411
0.80150,-12.20869143
0.80200,-22.8904957
0.80250,-31.13074471
0.80300,-37.84502168
0.80350,-42.4229378
0.80400,-42.11774339
0.80450,-35.70866083
0.80500,-26.858023
0.80550,-19.83855163
0.80600,-15.26063551
0.80650,-10.9879138
0.80700,-5.189220057
0.80750,-0.9164983488
0.80800,1.830251321
0.80850,5.492584213
0.80900,9.765305921
0.80950,10.98608355
0.81000,5.797778621
0.81050,-1.832081572
0.81100,-6.10480328
0.81150,-5.799608872
0.81200,-4.273636833
0.81250,-4.273636833
0.81300,-5.494414464
0.81350,-5.799608872
0.81400,-4.273636833
0.81450,-0.0009151256603
0.81500,6.408167436
0.81550,12.20686118
0.81600,11.90166677
0.81650,4.882195398
0.81700,-2.747664795
0.81750,-6.715192095
0.81800,-8.851552949
0.81850,-14.6502467
0.81900,-22.28010689
0.81950,-26.5528286
0.82000,-25.02685656
0.82050,-21.97491248
0.82100,-21.36452366
0.82150,-22.5853013
0.82200,-22.28010689
0.82250,-21.36452366
0.82300,-22.5853013
0.82350,-26.24763419
0.82400,-30.8255503
0.82450,-34.4878832
0.82500,-37.23463287
0.82550,-40.28657694
0.82600,-42.4229378
0.82650,-43.03332661
0.82700,-42.4229378
0.82750,-43.33852102
0.82800,-46.3904651
0.82850,-49.44240917
0.82900,-48.52682595
0.82950,-43.64371543
0.83000,-38.7606049
0.83050,-36.01385523
0.83100,-34.7930776
0.83150,-32.96191116
0.83200,-33.26710557
0.83250,-37.84502168
0.83300,-42.7281322
0.83350,-42.4229378
0.83400,-37.23463287
0.83450,-33.26710557
0.83500,-34.18268879
0.83550,-37.23463287
0.83600,-39.37099372
0.83650,-41.20216017
0.83700,-43.03332661
0.83750,-43.03332661
0.83800,-39.98138253
0.83850,-34.7930776
0.83900,-30.5203559
0.83950,-26.24763419
0.84000,-21.05932926
0.84050,-15.26063551
0.84100,-9.461941764
0.84150,-3.35805361
0.84200,1.525056913
0.84250,3.661417767
0.84300,2.135445728
0.84350,-0.9164983488
0.84400,-2.747664795
0.84450,-3.052859203
0.84500,-2.747664795
0.84550,-1.221692756
0.84600,2.440640136
0.84650,7.323750659
0.84700,11.90166677
0.84750,14.95361085
0.84800,16.7847773
0.84850,17.39516611
0.84900,16.47958289
0.84950,15.86919407
0.85000,15.86919407
0.85050,15.86919407
0.85100,14.64841644
0.85150,13.42763881
0.85200,13.12244441
0.85250,13.12244441
0.85300,12.81725
0.85350,13.12244441
0.85400,14.95361085
0.85450,17.70036052
0.85500,18.92113815
0.85550,18.31074934
0.85600,18.00555493
0.85650,18.31074934
0.85700,18.61594374
0.85750,18.00555493
0.85800,17.39516611
0.85850,17.08997171
0.85900,16.7847773
0.85950,17.08997171
0.86000,18.31074934
0.86050,19.53152697
0.86100,19.53152697
0.86150,19.53152697
0.86200,21.05749901
0.86250,23.49905427
0.86300,26.85619275
0.86350,31.12891446
0.86400,36.92760821
0.86450,42.72630195
0.86500,46.38863484
0.86550,46.69382925
0.86600,44.5574684
0.86650,42.72630195
0.86700,43.64188518
0.86750,46.99902366
0.86800,50.66135655
0.86850,52.79771741
0.86900,54.93407826
0.86950,58.59641115
0.87000,62.86913286
0.87050,64.08991049
0.87100,61.64835523
0.87150,59.51199438
0.87200,60.12238319
0.87250,61.34316082
0.87300,60.73277201
0.87350,58.59641115
0.87400,56.76524471
0.87450,54.93407826
0.87500,50.35616215
0.87550,44.25227399
0.87600,36.31721939
0.87650,25.33022071
0.87700,11.29127796
0.87750,-3.35805361
0.87800,-16.17621873
0.87850,-27.16321741
0.87900,-37.84502168
0.87950,-46.08527069
0.88000,-49.74760358
0.88050,-51.57877003
0.88100,-56.46188055
0.88150,-63.78654634
0.88200,-69.28004567
0.88250,-74.1631562
0.88300,-82.40340521
0.88350,-92.16962625
0.88400,-94.61118151
0.88450,-84.84496047
0.88500,-68.97485127
0.88550,-54.93590851
0.88600,-44.25410424
0.88650,-34.4878832
0.88700,-26.5528286
0.88750,-21.66971807
0.88800,-16.78660755
0.88850,-7.630775318
0.88900,4.882195398
0.88950,15.86919407
0.89000,21.97308223
0.89050,25.63541512
0.89100,27.46658157
0.89150,26.85619275
0.89200,24.7198319
0.89250,24.41463749
0.89300,26.24580394
0.89350,28.99255361
0.89400,31.73930328
0.89450,37.23280261
0.89500,44.25227399
0.89550,48.5249957
0.89600,47.91460688
0.89650,46.99902366
0.89700,49.74577333
0.89750,53.40810622
0.89800,52.79771741
0.89850,46.99902366
0.89900,38.45358024
0.89950,28.6873592
0.90000,16.7847773
0.90050,3.356223359
0.90100,-8.851552949
0.90150,-19.83855163
0.90200,-30.5203559
0.90250,-41.50735457
0.90300,-52.49435325
0.90350,-62.87096311
0.90400,-71.41640653
0.90450,-75.99432264
0.90500,-75.68912824
0.90550,-72.94237857
0.90600,-69.89043449
0.90650,-67.14368482
0.90700,-64.70212956
0.90750,-64.70212956
0.90800,-67.14368482
0.90850,-69.28004567
0.90900,-68.36446245
0.90950,-64.70212956
0.91000,-59.51382463
0.91050,-53.40993647
0.91100,-47.30604832
0.91150,-42.4229378
0.91200,-39.37099372
0.91250,-35.70866083
0.91300,-29.60477267
0.91350,-23.19569011
0.91400,-20.75413485
0.91450,-19.83855163
0.91500,-16.17621873
0.91550,-9.156747357
0.91600,-3.35805361
0.91650,-0.0009151256603
0.91700,3.051028951
0.91750,8.849722698
0.91800,14.95361085
0.91850,19.22633256
0.91900,22.88866545
0.91950,26.55099834
0.92000,29.29774801
0.92050,29.29774801
0.92100,25.63541512
0.92150,20.14191578
0.92200,14.34322204
0.92250,9.154917105
0.92300,4.882195398
0.92350,2.440640136
0.92400,1.830251321
0.92450,3.356223359
0.92500,5.797778621
0.92550,6.713361844
0.92600,5.797778621
0.92650,5.187389805
0.92700,6.713361844
0.92750,10.68088914
0.92800,14.95361085
0.92850,18.31074934
0.92900,19.22633256
0.92950,18.92113815
0.93000,18.31074934
0.93050,19.53152697
0.93100,21.05749901
0.93150,19.53152697
0.93200,13.73283322
0.93250,4.882195398
0.93300,-3.663248018
0.93350,-11.29310821
0.93400,-17.09180196
0.93450,-18.9229684
0.93500,-16.48141314
0.93550,-13.12427466
0.93600,-12.51388584
0.93650,-13.12427466
0.93700,-10.37752499
0.93750,-5.189220057
0.93800,-3.052859203
0.93850,-6.715192095
0.93900,-10.6827194
0.93950,-8.546358541
0.94000,-1.832081572
0.94050,2.745834544
0.94100,2.745834544
0.94150,0.6094736897
0.94200,-0.9164983488
0.94250,-2.747664795
0.94300,-6.409997687
0.94350,-9.767136172
0.94400,-10.07233058
0.94450,-6.715192095
0.94500,-1.526887164
0.94550,3.051028951
0.94600,6.713361844
0.94650,8.239333882
0.94700,7.018556251
0.94750,2.440640136
0.94800,-3.663248018
0.94850,-7.020386503
0.94900,-4.578831241
0.94950,0.6094736897
0.95000,3.966612174
0.95050,3.661417767
0.95100,1.525056913
0.95150,0.9146680974
0.95200,2.135445728
0.95250,5.187389805
0.95300,10.07050033
0.95350,15.86919407
0.95400,19.83672137
0.95450,20.44711019
0.95500,19.22633256
0.95550,18.92113815
0.95600,20.14191578
0.95650,21.97308223
0.95700,22.58347104
0.95750,22.27827664
0.95800,21.05749901
0.95850,20.14191578
0.95900,21.36269341
0.95950,24.41463749
0.96000,28.38216479
0.96050,31.73930328
0.96100,35.09644176
0.96150,38.75877465
0.96200,41.81071873
0.96250,43.33669077
0.96300,44.86266281
0.96350,46.99902366
0.96400,48.5249957
0.96450,47.91460688
0.96500,45.77824603
0.96550,44.86266281
0.96600,46.38863484
0.96650,49.74577333
0.96700,54.62888385
0.96750,58.29121675
0.96800,59.20679997
0.96850,56.76524471
0.96900,54.32368945
0.96950,51.88213418
0.97000,47.30421807
0.97050,39.06396906
0.97100,29.29774801
0.97150,21.05749901
0.97200,13.12244441
0.97250,1.219862505
0.97300,-14.6502467
0.97350,-28.99438386
0.97400,-37.53982727
0.97450,-40.59177135
0.97500,-41.50735457
0.97550,-42.11774339
0.97600,-42.11774339
0.97650,-38.7606049
0.97700,-31.13074471
0.97750,-21.97491248
0.97800,-15.56582992
0.97850,-14.34505229
0.97900,-15.87102433
0.97950,-17.39699636
0.98000,-18.31257959
0.98050,-20.75413485
0.98100,-25.94243978
0.98150,-30.8255503
0.98200,-33.26710557
0.98250,-33.26710557
0.98300,-32.96191116
0.98350,-32.35152234
0.98400,-29.29957827
0.98450,-22.28010689
0.98500,-12.20869143
0.98550,-3.052859203
0.98600,4.271806582
0.98650,10.68088914
0.98700,16.17438848
0.98750,19.22633256
0.98800,19.53152697
0.98850,20.14191578
0.98900,22.58347104
0.98950,25.94060953
0.99000,28.07697038
0.99050,28.38216479
0.99100,27.16138716
0.99150,22.58347104
0.99200,14.95361085
0.99250,8.239333882
0.99300,6.102973028
0.99350,6.408167436
0.99400,3.661417767
0.99450,-3.052859203
0.99500,-10.37752499
0.99550,-15.26063551
0.99600,-18.31257959
0.99650,-22.8904957
0.99700,-30.5203559
0.99750,-38.4554105
0.99800,-42.7281322
0.99850,-41.20216017
0.99900,-36.62424405
0.99950,-34.4878832
1.00000,-35.40346642
1.00050,-35.70866083
1.00100,-32.96191116
1.00150,-30.21516149
1.00200,-30.21516149
1.00250,-32.04632793
1.00300,-32.04632793
1.00350,-30.21516149
1.00400,-28.38399504
1.00450,-26.5528286
1.00500,-24.11127333
1.00550,-22.28010689
1.00600,-21.97491248
1.00650,-20.75413485
1.00700,-17.09180196
1.00750,-14.6502467
1.00800,-16.17621873
1.00850,-20.44894044
1.00900,-21.97491248
1.00950,-19.83855163
1.01000,-18.9229684
1.01050,-22.28010689
1.01100,-27.46841182
1.01150,-29.29957827
1.01200,-26.24763419
1.01250,-21.97491248
1.01300,-18.617774
1.01350,-16.17621873
1.01400,-14.03985788
1.01450,-11.90349703
1.01500,-9.767136172
1.01550,-7.32558091
1.01600,-4.578831241
1.01650,-2.747664795
1.01700,-0.9164983488
1.01750,1.525056913
1.01800,4.882195398
1.01850,6.713361844
1.01900,4.271806582
1.01950,-0.3061095334
1.02000,-4.884025649
1.02050,-6.715192095
1.02100,-5.799608872
1.02150,-5.494414464
1.02200,-7.32558091
1.02250,-11.59830262
1.02300,-17.09180196
1.02350,-23.80607893
1.02400,-29.90996708
1.02450,-33.87749438
1.02500,-33.26710557
1.02550,-27.46841182
1.02600,-19.22816281
1.02650,-13.12427466
1.02700,-10.37752499
1.02750,-8.546358541
1.02800,-6.409997687
1.02850,-5.189220057
1.02900,-4.884025649
1.02950,-4.273636833
1.03000,-0.6113039411
1.03050,5.187389805
1.03100,11.90166677
1.03150,18.31074934
1.03200,24.41463749
1.03250,29.60294242
1.03300,31.73930328
1.03350,30.82372005
1.03400,30.82372005
1.03450,33.57046972
1.03500,37.53799702
1.03550,40.5899411
1.03600,42.11591314
1.03650,43.94707958
1.03700,45.77824603
1.03750,46.38863484
1.03800,45.47305162
1.03850,44.25227399
1.03900,43.64188518
1.03950,42.42110754
1.04000,40.89513551
1.04050,39.97955228
1.04100,39.97955228
1.04150,39.36916347
1.04200,36.31721939
1.04250,33.57046972
1.04300,32.34969209
1.04350,29.29774801
1.04400,22.58347104
1.04450,14.64841644
1.04500,10.68088914
1.04550,11.29127796
1.04600,14.34322204
1.04650,19.22633256
1.04700,26.55099834
1.04750,33.57046972
1.04800,36.01202498
1.04850,33.57046972
1.04900,30.82372005
1.04950,29.29774801
1.05000,25.02502631
1.05050,17.08997171
1.05100,10.68088914
1.05150,8.849722698
1.05200,7.934139475
1.05250,3.356223359
1.05300,-3.663248018
1.05350,-10.07233058
1.05400,-14.9554411
1.05450,-18.00738518
1.05500,-17.09180196
1.05550,-12.51388584
1.05600,-7.020386503
1.05650,-3.968442426
1.05700,-3.663248018
1.05750,-4.578831241
1.05800,-5.799608872
1.05850,-7.020386503
1.05900,-6.715192095
1.05950,-5.799608872
1.06000,-7.630775318
1.06050,-13.12427466
1.06100,-19.53335722
1.06150,-24.11127333
1.06200,-27.16321741
1.06250,-28.99438386
1.06300,-28.07880063
1.06350,-24.72166215
1.06400,-21.97491248
1.06450,-20.75413485
1.06500,-19.53335722
1.06550,-15.26063551
1.06600,-10.37752499
1.06650,-7.630775318
1.06700,-7.935969726
1.06750,-8.241164134
1.06800,-6.715192095
1.06850,-3.052859203
1.06900,1.830251321
1.06950,7.628945067
1.07000,12.20686118
1.07050,14.34322204
1.07100,14.34322204
1.07150,13.42763881
1.07200,12.20686118
1.07250,11.29127796
1.07300,11.90166677
1.07350,14.03802763
1.07400,15.86919407
1.07450,16.7847773
1.07500,17.70036052
1.07550,18.31074934
1.07600,15.86919407
1.07650,11.29127796
1.07700,7.018556251
1.07750,4.882195398
1.07800,4.271806582
1.07850,4.882195398
1.07900,7.934139475
1.07950,11.90166677
1.08000,13.73283322
1.08050,13.12244441
1.08100,14.64841644
1.08150,20.14191578
1.08200,22.58347104
1.08250,15.56399967
1.08300,1.525056913
1.08350,-9.767136172
1.08400,-14.6502467
1.08450,-18.9229684
1.08500,-26.858023
1.08550,-36.62424405
1.08600,-44.25410424
1.08650,-49.74760358
1.08700,-55.24110292
1.08750,-59.20863022
1.08800,-59.20863022
1.08850,-55.54629733
1.08900,-50.96838121
1.08950,-47.61124273
1.09000,-45.47488187
1.09050,-42.4229378
1.09100,-36.31904964
1.09150,-26.24763419
1.09200,-15.87102433
1.09250,-10.6827194
1.09300,-13.42946906
1.09350,-17.70219077
1.09400,-16.17621873
1.09450,-9.461941764
1.09500,-5.494414464
1.09550,-7.935969726
1.09600,-12.20869143
1.09650,-12.81908025
1.09700,-10.9879138
1.09750,-9.767136172
1.09800,-8.546358541
1.09850,-3.968442426
1.09900,2.745834544
1.09950,7.323750659
1.10000,8.239333882
1.10050,9.154917105
1.10100,12.81725
1.10150,16.17438848
1.10200,15.56399967
1.10250,12.81725
1.10300,11.59647237
1.10350,12.20686118
1.10400,11.29127796
1.10450,7.323750659
1.10500,3.051028951
1.10550,1.219862505
1.10600,1.525056913
1.10650,2.440640136
1.10700,3.966612174
1.10750,6.408167436
1.10800,9.765305921
1.10850,11.90166677
1.10900,11.59647237
1.10950,9.765305921
1.11000,8.849722698
1.11050,10.07050033
1.11100,12.20686118
1.11150,13.73283322
1.11200,12.20686118
1.11250,10.07050033
1.11300,9.154917105
1.11350,9.460111513
1.11400,9.765305921
1.11450,10.07050033
1.11500,13.12244441
1.11550,19.53152697
1.11600,25.33022071
1.11650,25.94060953
1.11700,21.66788782
1.11750,17.39516611
1.11800,14.03802763
1.11850,9.460111513
1.11900,2.745834544
1.11950,-2.747664795
1.12000,-3.663248018
1.12050,-1.221692756
1.12100,1.525056913
1.12150,4.882195398
1.12200,9.460111513
1.12250,14.95361085
1.12300,18.61594374
1.12350,20.7523046
1.12400,23.49905427
1.12450,27.16138716
1.12500,29.90813683
1.12550,29.90813683
1.12600,28.38216479
1.12650,26.85619275
1.12700,23.49905427
1.12750,16.7847773
1.12800,10.98608355
1.12850,10.37569474
1.12900,12.51205559
1.12950,10.37569474
1.13000,3.661417767
1.13050,-0.6113039411
1.13100,1.830251321
1.13150,6.102973028
1.13200,5.492584213
1.13250,3.356223359
1.13300,7.018556251
1.13350,15.86919407
1.13400,21.05749901
1.13450,18.61594374
1.13500,14.64841644
1.13550,13.42763881
1.13600,12.81725
1.13650,9.765305921
1.13700,6.408167436
1.13750,4.882195398
1.13800,3.051028951
1.13850,-1.221692756
1.13900,-4.884025649
1.13950,-3.052859203
1.14000,3.356223359
1.14050,8.54452829
1.14100,8.239333882
1.14150,5.492584213
1.14200,2.440640136
1.14250,-1.526887164
1.14300,-10.37752499
1.14350,-22.28010689
1.14400,-32.96191116
1.14450,-37.23463287
1.14500,-34.7930776
1.14550,-28.68918945
1.14600,-22.8904957
1.14650,-19.22816281
1.14700,-17.09180196
1.14750,-15.87102433
1.14800,-14.6502467
1.14850,-13.42946906
1.14900,-10.6827194
1.14950,-7.020386503
1.15000,-2.747664795
1.15050,1.830251321
1.15100,6.408167436
1.15150,9.765305921
1.15200,12.20686118
1.15250,17.39516611
1.15300,25.33022071
1.15350,30.51852564
1.15400,27.46658157
1.15450,16.47958289
1.15500,5.187389805
1.15550,-0.9164983488
1.15600,-2.442470387
1.15650,-1.221692756
1.15700,1.525056913
1.15750,4.57700099
1.15800,4.57700099
1.15850,2.440640136
1.15900,1.219862505
1.15950,2.440640136
1.16000,4.882195398
1.16050,6.408167436
1.16100,7.323750659
1.16150,8.849722698
1.16200,9.460111513
1.16250,7.934139475
1.16300,6.408167436
1.16350,5.492584213
1.16400,3.356223359
1.16450,-0.0009151256603
1.16500,-1.832081572
1.16550,0.304279282
1.16600,2.745834544
1.16650,0.304279282
1.16700,-5.189220057
1.16750,-7.630775318
1.16800,-4.884025649
1.16850,-1.526887164
1.16900,-0.3061095334
1.16950,1.830251321
1.17000,7.934139475
1.17050,14.95361085
1.17100,19.53152697
1.17150,22.88866545
1.17200,28.6873592
1.17250,36.92760821
1.17300,42.42110754
1.17350,42.11591314
1.17400,37.53799702
1.17450,32.34969209
1.17500,27.77177598
1.17550,23.19385986
1.17600,18.92113815
1.17650,15.56399967
1.17700,12.81725
1.17750,9.154917105
1.17800,4.882195398
1.17850,1.830251321
1.17900,-0.0009151256603
1.17950,-2.13727598
1.18000,-6.409997687
1.18050,-11.59830262
1.18100,-15.26063551
1.18150,-16.78660755
1.18200,-17.39699636
1.18250,-17.09180196
1.18300,-15.26063551
1.18350,-13.12427466
1.18400,-13.12427466
1.18450,-15.87102433
1.18500,-17.70219077
1.18550,-16.48141314
1.18600,-13.73466347
1.18650,-12.51388584
1.18700,-12.51388584
1.18750,-10.6827194
1.18800,-4.884025649
1.18850,2.745834544
1.18900,9.765305921
1.18950,14.03802763
1.19000,15.86919407
1.19050,15.56399967
1.19100,14.03802763
1.19150,10.68088914
1.19200,7.323750659
1.19250,5.492584213
1.19300,5.797778621
1.19350,5.492584213
1.19400,2.135445728
1.19450,-3.968442426
1.19500,-11.59830262
1.19550,-19.53335722
1.19600,-28.07880063
1.19650,-35.70866083
1.19700,-40.28657694
1.19750,-41.20216017
1.19800,-41.20216017
1.19850,-41.20216017
1.19900,-40.89696576
1.19950,-39.06579931
1.20000,-36.62424405
1.20050,-33.26710557
1.20100,-26.858023
1.20150,-17.39699636
1.20200,-8.851552949
1.20250,-5.494414464
1.20300,-7.020386503
1.20350,-10.37752499
1.20400,-12.51388584
1.20450,-14.03985788
1.20500,-15.56582992
1.20550,-16.48141314
1.20600,-15.56582992
1.20650,-12.51388584
1.20700,-9.156747357
1.20750,-7.630775318
1.20800,-9.156747357
1.20850,-12.51388584
1.20900,-14.6502467
1.20950,-14.34505229
1.21000,-12.51388584
1.21050,-9.461941764
1.21100,-4.578831241
1.21150,1.525056913
1.21200,4.882195398
1.21250,1.525056913
1.21300,-5.189220057
1.21350,-11.29310821
1.21400,-15.56582992
1.21450,-20.75413485
1.21500,-27.16321741
1.21550,-28.99438386
1.21600,-24.41646774
1.21650,-18.00738518
1.21700,-14.6502467
1.21750,-13.12427466
1.21800,-9.461941764
1.21850,-5.494414464
1.21900,-2.747664795
1.21950,-0.0009151256603
1.22000,6.408167436
1.22050,14.34322204
1.22100,18.61594374
1.22150,18.92113815
1.22200,18.92113815
1.22250,19.83672137
1.22300,18.61594374
1.22350,14.64841644
1.22400,12.51205559
1.22450,13.42763881
1.22500,13.73283322
1.22550,9.460111513
1.22600,4.57700099
1.22650,1.525056913
1.22700,-0.6113039411
1.22750,-5.189220057
1.22800,-11.59830262
1.22850,-17.09180196
1.22900,-22.5853013
1.22950,-28.68918945
1.23000,-33.26710557
1.23050,-33.87749438
1.23100,-30.21516149
1.23150,-25.33205096
1.23200,-21.05932926
1.23250,-18.00738518
1.23300,-16.78660755
1.23350,-16.78660755
1.23400,-17.39699636
1.23450,-16.78660755
1.23500,-14.34505229
1.23550,-10.6827194
1.23600,-5.189220057
1.23650,0.304279282
1.23700,4.271806582
1.23750,6.713361844
1.23800,9.154917105
1.23850,12.20686118
1.23900,14.95361085
1.23950,16.47958289
1.24000,16.7847773
1.24050,15.86919407
1.24100,12.81725
1.24150,9.154917105
1.24200,7.934139475
1.24250,8.54452829
1.24300,8.54452829
1.24350,6.713361844
1.24400,5.492584213
1.24450,6.408167436
1.24500,7.323750659
1.24550,6.713361844
1.24600,6.713361844
1.24650,9.460111513
1.24700,13.73283322
1.24750,15.86919407
1.24800,16.17438848
1.24850,18.61594374
1.24900,24.7198319
1.24950,31.12891446
1.25000,32.6548865
1.25050,27.46658157
1.25100,19.22633256
1.25150,10.98608355
1.25200,3.051028951
1.25250,-7.630775318
1.25300,-21.05932926
1.25350,-32.04632793
1.25400,-36.01385523
1.25450,-33.87749438
1.25500,-30.21516149
1.25550,-28.68918945
1.25600,-30.8255503
1.25650,-36.01385523
1.25700,-40.59177135
1.25750,-41.81254898
1.25800,-38.4554105
1.25850,-34.4878832
1.25900,-30.5203559
1.25950,-25.02685656
1.26000,-17.09180196
1.26050,-10.37752499
1.26100,-7.630775318
1.26150,-7.020386503
1.26200,-3.052859203
1.26250,5.187389805
1.26300,16.17438848
1.26350,24.41463749
1.26400,26.85619275
1.26450,22.58347104
1.26500,15.56399967
1.26550,10.68088914
1.26600,8.239333882
1.26650,5.797778621
1.26700,3.051028951
1.26750,2.745834544
1.26800,6.713361844
1.26850,11.59647237
1.26900,16.47958289
1.26950,22.27827664
1.27000,29.90813683
1.27050,36.01202498
1.27100,38.75877465
1.27150,38.75877465
1.27200,35.40163617
1.27250,28.07697038
1.27300,19.83672137
1.27350,16.47958289
1.27400,17.08997171
1.27450,13.73283322
1.27500,0.6094736897
1.27550,-16.17621873
1.27600,-28.38399504
1.27650,-34.7930776
1.27700,-39.06579931
1.27750,-42.4229378
1.27800,-43.64371543
1.27850,-42.4229378
1.27900,-39.67618813
1.27950,-35.70866083
1.28000,-30.5203559
1.28050,-25.94243978
1.28100,-23.50088452
1.28150,-21.05932926
1.28200,-17.70219077
1.28250,-17.39699636
1.28300,-22.8904957
1.28350,-31.43593912
1.28400,-38.7606049
1.28450,-43.64371543
1.28500,-47.61124273
1.28550,-47.30604832
1.28600,-41.20216017
1.28650,-31.13074471
1.28700,-23.50088452
1.28750,-18.617774
1.28800,-13.12427466
1.28850,-5.494414464
1.28900,1.830251321
1.28950,7.018556251
1.29000,11.29127796
1.29050,15.86919407
1.29100,19.22633256
1.29150,19.22633256
1.29200,17.70036052
1.29250,17.70036052
1.29300,18.92113815
1.29350,19.83672137
1.29400,18.31074934
1.29450,14.95361085
1.29500,10.98608355
1.29550,7.628945067
1.29600,5.797778621
1.29650,5.187389805
1.29700,5.187389805
1.29750,6.713361844
1.29800,9.460111513
1.29850,11.29127796
1.29900,11.29127796
1.29950,11.29127796
1.30000,14.95361085
1.30050,21.36269341
1.30100,26.24580394
1.30150,26.55099834
1.30200,24.7198319
1.30250,24.7198319
1.30300,26.55099834
1.30350,28.38216479
1.30400,28.99255361
1.30450,26.55099834
1.30500,20.44711019
1.30550,11.90166677
1.30600,5.187389805
1.30650,3.356223359
1.30700,5.492584213
1.30750,5.797778621
1.30800,1.830251321
1.30850,-3.663248018
1.30900,-6.10480328
1.30950,-4.273636833
1.31000,-0.6113039411
1.31050,3.966612174
1.31100,10.68088914
1.31150,17.08997171
1.31200,19.83672137
1.31250,18.31074934
1.31300,17.70036052
1.31350,20.7523046
1.31400,23.80424868
1.31450,21.36269341
1.31500,14.34322204
1.31550,5.797778621
1.31600,-3.663248018
1.31650,-15.87102433
1.31700,-25.33205096
1.31750,-25.02685656
1.31800,-17.39699636
1.31850,-11.29310821
1.31900,-10.07233058
1.31950,-7.630775318
1.32000,-0.0009151256603
1.32050,6.408167436
1.32100,6.713361844
1.32150,3.661417767
1.32200,3.661417767
1.32250,6.102973028
1.32300,7.323750659
1.32350,7.628945067
1.32400,9.765305921
1.32450,11.90166677
1.32500,8.54452829
1.32550,-0.3061095334
1.32600,-10.07233058
1.32650,-15.87102433
1.32700,-19.53335722
1.32750,-23.50088452
1.32800,-26.5528286
1.32850,-28.38399504
1.32900,-28.68918945
1.32950,-28.99438386
1.33000,-28.38399504
1.33050,-26.24763419
1.33100,-23.50088452
1.33150,-22.28010689
1.33200,-23.19569011
1.33250,-25.02685656
1.33300,-25.63724537
1.33350,-22.28010689
1.33400,-16.48141314
1.33450,-11.29310821
1.33500,-9.461941764
1.33550,-10.9879138
1.33600,-12.81908025
1.33650,-12.81908025
1.33700,-10.6827194
1.33750,-7.32558091
1.33800,-3.35805361
1.33850,-1.526887164
1.33900,-1.221692756
1.33950,-0.0009151256603
1.34000,4.271806582
1.34050,10.68088914
1.34100,14.03802763
1.34150,12.20686118
1.34200,7.628945067
1.34250,4.271806582
1.34300,3.966612174
1.34350,4.882195398
1.34400,5.492584213
1.34450,5.492584213
1.34500,6.713361844
1.34550,10.37569474
1.34600,14.95361085
1.34650,18.61594374
1.34700,20.14191578
1.34750,19.53152697
1.34800,19.53152697
1.34850,19.83672137
1.34900,20.14191578
1.34950,19.22633256
1.35000,16.7847773
1.35050,14.95361085
1.35100,13.73283322
1.35150,11.59647237
1.35200,6.102973028
1.35250,-2.13727598
1.35300,-10.9879138
1.35350,-17.39699636
1.35400,-19.53335722
1.35450,-18.31257959
1.35500,-15.87102433
1.35550,-12.51388584
1.35600,-7.935969726
1.35650,-1.526887164
1.35700,4.882195398
1.35750,9.460111513
1.35800,10.37569474
1.35850,10.68088914
1.35900,12.20686118
1.35950,15.56399967
1.36000,18.92113815
1.36050,20.44711019
1.36100,20.7523046
1.36150,20.44711019
1.36200,21.05749901
1.36250,22.88866545
1.36300,24.41463749
1.36350,25.63541512
1.36400,28.07697038
1.36450,31.73930328
1.36500,33.57046972
1.36550,30.51852564
1.36600,23.49905427
1.36650,18.31074934
1.36700,17.70036052
1.36750,18.61594374
1.36800,17.39516611
1.36850,15.25880526
1.36900,14.95361085
1.36950,17.39516611
1.37000,18.92113815
1.37050,16.47958289
1.37100,10.07050033
1.37150,3.966612174
1.37200,1.830251321
1.37250,5.187389805
1.37300,9.154917105
1.37350,8.849722698
1.37400,3.051028951
1.37450,-4.884025649
1.37500,-10.9879138
1.37550,-14.03985788
1.37600,-15.26063551
1.37650,-15.26063551
1.37700,-14.9554411
1.37750,-15.26063551
1.37800,-16.17621873
1.37850,-15.26063551
1.37900,-10.9879138
1.37950,-3.968442426
1.38000,1.525056913
1.38050,2.745834544
1.38100,-0.9164983488
1.38150,-6.409997687
1.38200,-10.37752499
1.38250,-11.29310821
1.38300,-10.07233058
1.38350,-8.241164134
1.38400,-6.715192095
1.38450,-4.884025649
1.38500,-4.273636833
1.38550,-6.10480328
1.38600,-8.241164134
1.38650,-6.10480328
1.38700,0.6094736897
1.38750,7.934139475
1.38800,10.98608355
1.38850,11.90166677
1.38900,15.25880526
1.38950,19.83672137
1.39000,21.05749901
1.39050,18.61594374
1.39100,17.70036052
1.39150,20.14191578
1.39200,21.66788782
1.39250,19.22633256
1.39300,14.64841644
1.39350,10.98608355
1.39400,8.239333882
1.39450,3.966612174
1.39500,-0.9164983488
1.39550,-6.10480328
1.39600,-10.9879138
1.39650,-14.34505229
1.39700,-13.42946906
1.39750,-8.241164134
1.39800,-2.442470387
1.39850,0.9146680974
1.39900,3.661417767
1.39950,5.187389805
1.40000,3.356223359
1.40050,-0.3061095334
1.40100,-0.6113039411
1.40150,3.966612174
1.40200,8.239333882
1.40250,5.492584213
1.40300,0.304279282
1.40350,0.9146680974
1.40400,5.492584213
1.40450,6.102973028
1.40500,0.6094736897
1.40550,-4.578831241
1.40600,-4.578831241
1.40650,-1.221692756
1.40700,0.304279282
1.40750,-0.3061095334
1.40800,-3.052859203
1.40850,-6.409997687
1.40900,-8.546358541
1.40950,-8.546358541
1.41000,-7.32558091
1.41050,-6.715192095
1.41100,-5.799608872
1.41150,-0.6113039411
1.41200,8.239333882
1.41250,15.86919407
1.41300,18.61594374
1.41350,18.92113815
1.41400,22.27827664
1.41450,26.24580394
1.41500,24.7198319
1.41550,15.56399967
1.41600,3.966612174
1.41650,-3.052859203
1.41700,-4.578831241
1.41750,-2.747664795
1.41800,-1.832081572
1.41850,-1.832081572
1.41900,-1.832081572
1.41950,-1.832081572
1.42000,-3.052859203
1.42050,-7.32558091
1.42100,-13.12427466
1.42150,-16.78660755
1.42200,-16.48141314
1.42250,-13.73466347
1.42300,-10.6827194
1.42350,-7.32558091
1.42400,-0.9164983488
1.42450,8.54452829
1.42500,17.70036052
1.42550,23.80424868
1.42600,27.16138716
1.42650,28.99255361
1.42700,28.6873592
1.42750,25.63541512
1.42800,21.36269341
1.42850,17.08997171
1.42900,11.29127796
1.42950,3.356223359
1.43000,-4.273636833
1.43050,-9.461941764
1.43100,-13.73466347
1.43150,-19.22816281
1.43200,-25.02685656
1.43250,-25.63724537
1.43300,-18.9229684
1.43350,-8.546358541
1.43400,-0.0009151256603
1.43450,5.492584213
1.43500,10.98608355
1.43550,17.39516611
1.43600,21.36269341
1.43650,19.83672137
1.43700,15.25880526
1.43750,13.12244441
1.43800,15.25880526
1.43850,17.39516611
1.43900,15.25880526
1.43950,11.59647237
1.44000,10.68088914
1.44050,13.12244441
1.44100,13.12244441
1.44150,9.765305921
1.44200,6.408167436
1.44250,6.408167436
1.44300,7.323750659
1.44350,6.408167436
1.44400,6.408167436
1.44450,11.29127796
1.44500,18.31074934
1.44550,21.05749901
1.44600,17.39516611
1.44650,11.29127796
1.44700,6.713361844
1.44750,2.135445728
1.44800,-3.968442426
1.44850,-10.07233058
1.44900,-12.81908025
1.44950,-13.73466347
1.45000,-15.87102433
1.45050,-18.9229684
1.45100,-18.617774
1.45150,-16.48141314
1.45200,-17.70219077
1.45250,-24.11127333
1.45300,-31.13074471
1.45350,-31.43593912
1.45400,-25.02685656
1.45450,-16.78660755
1.45500,-9.461941764
1.45550,-3.663248018
1.45600,1.219862505
1.45650,5.797778621
1.45700,9.154917105
1.45750,10.07050033
1.45800,8.239333882
1.45850,4.57700099
1.45900,0.9146680974
1.45950,-2.13727598
1.46000,-5.189220057
1.46050,-8.546358541
1.46100,-11.29310821
1.46150,-13.42946906
1.46200,-15.26063551
1.46250,-16.78660755
1.46300,-17.09180196
1.46350,-17.39699636
1.46400,-20.14374603
1.46450,-23.80607893
1.46500,-23.19569011
1.46550,-20.14374603
1.46600,-21.97491248
1.46650,-33.87749438
1.46700,-50.3579924
1.46750,-60.73460226
1.46800,-61.03979667
1.46850,-56.15668614
1.46900,-49.74760358
1.46950,-43.03332661
1.47000,-35.40346642
1.47050,-29.29957827
1.47100,-23.50088452
1.47150,-16.48141314
1.47200,-10.07233058
1.47250,-8.546358541
1.47300,-12.51388584
1.47350,-15.87102433
1.47400,-14.9554411
1.47450,-12.20869143
1.47500,-11.59830262
1.47550,-12.81908025
1.47600,-13.73466347
1.47650,-16.48141314
1.47700,-20.75413485
1.47750,-21.97491248
1.47800,-14.6502467
1.47850,-3.052859203
1.47900,3.356223359
1.47950,4.57700099
1.48000,5.492584213
1.48050,8.849722698
1.48100,10.98608355
1.48150,10.07050033
1.48200,10.68088914
1.48250,16.47958289
1.48300,24.41463749
1.48350,29.60294242
1.48400,32.04449768
1.48450,33.26527531
1.48500,31.43410887
1.48550,25.94060953
1.48600,21.05749901
1.48650,20.44711019
1.48700,22.27827664
1.48750,23.19385986
1.48800,24.7198319
1.48850,28.99255361
1.48900,32.34969209
1.48950,29.60294242
1.49000,23.80424868
1.49050,24.7198319
1.49100,34.18085854
1.49150,44.25227399
1.49200,46.99902366
1.49250,42.42110754
1.49300,35.09644176
1.49350,27.77177598
1.49400,21.97308223
1.49450,19.22633256
1.49500,20.7523046
1.49550,21.97308223
1.49600,17.08997171
1.49650,6.102973028
1.49700,-6.409997687
1.49750,-16.48141314
1.49800,-19.53335722
1.49850,-14.9554411
1.49900,-5.189220057
1.49950,3.051028951
1.50000,6.713361844
1.50050,5.492584213
1.50100,3.661417767
1.50150,2.135445728
1.50200,-0.0009151256603
1.50250,-2.13727598
1.50300,-3.663248018
1.50350,-3.968442426
1.50400,-3.052859203
1.50450,-0.3061095334
1.50500,5.187389805
1.50550,11.90166677
1.50600,14.64841644
1.50650,12.20686118
1.50700,8.239333882
1.50750,6.102973028
1.50800,4.882195398
1.50850,3.051028951
1.50900,2.440640136
1.50950,4.271806582
1.51000,3.661417767
1.51050,-3.663248018
1.51100,-17.70219077
1.51150,-30.5203559
1.51200,-37.84502168
1.51250,-39.67618813
1.51300,-38.15021609
1.51350,-34.4878832
1.51400,-28.99438386
1.51450,-23.80607893
1.51500,-21.05932926
1.51550,-18.9229684
1.51600,-16.78660755
1.51650,-14.34505229
1.51700,-13.42946906
1.51750,-13.12427466
1.51800,-11.29310821
1.51850,-8.851552949
1.51900,-7.630775318
1.51950,-7.935969726
1.52000,-7.630775318
1.52050,-3.663248018
1.52100,2.135445728
1.52150,6.713361844
1.52200,7.628945067
1.52250,7.018556251
1.52300,7.628945067
1.52350,9.154917105
1.52400,8.54452829
1.52450,3.966612174
1.52500,-3.35805361
1.52550,-11.29310821
1.52600,-18.00738518
1.52650,-21.66971807
1.52700,-22.8904957
1.52750,-22.8904957
1.52800,-21.97491248
1.52850,-19.53335722
1.52900,-15.26063551
1.52950,-10.07233058
1.53000,-4.578831241
1.53050,-0.3061095334
1.53100,2.745834544
1.53150,3.051028951
1.53200,0.304279282
1.53250,-2.13727598
1.53300,-1.526887164
1.53350,1.830251321
1.53400,1.830251321
1.53450,-3.052859203
1.53500,-6.715192095
1.53550,-3.663248018
1.53600,1.525056913
1.53650,1.525056913
1.53700,-3.968442426
1.53750,-7.935969726
1.53800,-4.578831241
1.53850,0.9146680974
1.53900,3.051028951
1.53950,2.440640136
1.54000,3.051028951
1.54050,7.323750659
1.54100,14.03802763
1.54150,21.97308223
1.54200,30.21333124
1.54250,36.01202498
1.54300,37.84319143
1.54350,35.70683058
1.54400,32.04449768
1.54450,28.99255361
1.54500,28.07697038
1.54550,28.38216479
1.54600,26.85619275
1.54650,21.97308223
1.54700,17.39516611
1.54750,18.31074934
1.54800,22.27827664
1.54850,20.7523046
1.54900,11.29127796
1.54950,-0.0009151256603
1.55000,-6.715192095
1.55050,-10.07233058
1.55100,-13.73466347
1.55150,-16.17621873
1.55200,-13.73466347
1.55250,-9.767136172
1.55300,-11.59830262
1.55350,-19.83855163
1.55400,-28.07880063
1.55450,-31.13074471
1.55500,-31.43593912
1.55550,-32.04632793
1.55600,-30.8255503
1.55650,-25.94243978
1.55700,-21.36452366
1.55750,-23.50088452
1.55800,-32.04632793
1.55850,-39.06579931
1.55900,-39.06579931
1.55950,-35.09827201
1.56000,-32.35152234
1.56050,-30.5203559
1.56100,-25.63724537
1.56150,-16.17621873
1.56200,-6.10480328
1.56250,-0.0009151256603
1.56300,1.830251321
1.56350,1.219862505
1.56400,1.525056913
1.56450,6.102973028
1.56500,14.03802763
1.56550,20.7523046
1.56600,21.97308223
1.56650,18.31074934
1.56700,12.81725
1.56750,6.713361844
1.56800,0.9146680974
1.56850,-1.526887164
1.56900,-0.0009151256603
1.56950,2.440640136
1.57000,-0.0009151256603
1.57050,-5.189220057
1.57100,-3.968442426
1.57150,3.966612174
1.57200,10.68088914
1.57250,10.98608355
1.57300,10.37569474
1.57350,13.12244441
1.57400,14.03802763
1.57450,8.54452829
1.57500,2.135445728
1.57550,2.135445728
1.57600,7.018556251
1.57650,9.765305921
1.57700,10.37569474
1.57750,12.81725
1.57800,15.56399967
1.57850,13.12244441
1.57900,8.849722698
1.57950,11.29127796
1.58000,21.05749901
1.58050,27.77177598
1.58100,25.02502631
1.58150,19.83672137
1.58200,19.53152697
1.58250,21.05749901
1.58300,17.08997171
1.58350,8.54452829
1.58400,1.219862505
1.58450,-3.35805361
1.58500,-6.409997687
1.58550,-6.10480328
1.58600,-3.052859203
1.58650,-1.221692756
1.58700,-4.578831241
1.58750,-7.935969726
1.58800,-5.799608872
1.58850,-0.0009151256603
1.58900,2.745834544
1.58950,3.966612174
1.59000,8.239333882
1.59050,15.25880526
1.59100,19.22633256
1.59150,20.14191578
1.59200,22.58347104
1.59250,25.63541512
1.59300,21.36269341
1.59350,8.849722698
1.59400,-3.968442426
1.59450,-11.90349703
1.59500,-17.70219077
1.59550,-24.72166215
1.59600,-30.8255503
1.59650,-34.18268879
1.59700,-37.53982727
1.59750,-40.59177135
1.59800,-39.98138253
1.59850,-34.7930776
1.59900,-30.8255503
1.59950,-30.8255503
1.60000,-29.60477267
1.60050,-23.19569011
1.60100,-15.87102433
1.60150,-14.34505229
1.60200,-14.9554411
1.60250,-10.37752499
1.60300,-1.832081572
1.60350,2.440640136
1.60400,-1.221692756
1.60450,-8.851552949
1.60500,-14.9554411
1.60550,-16.78660755
1.60600,-12.51388584
1.60650,-3.968442426
1.60700,4.271806582
1.60750,7.934139475
1.60800,8.849722698
1.60850,11.29127796
1.60900,15.25880526
1.60950,16.47958289
1.61000,13.42763881
1.61050,10.07050033
1.61100,10.98608355
1.61150,15.25880526
1.61200,17.70036052
1.61250,16.47958289
1.61300,14.03802763
1.61350,15.25880526
1.61400,20.44711019
1.61450,24.41463749
1.61500,23.19385986
1.61550,19.53152697
1.61600,18.61594374
1.61650,18.61594374
1.61700,11.59647237
1.61750,-1.526887164
1.61800,-10.9879138
1.61850,-7.630775318
1.61900,2.440640136
1.61950,8.54452829
1.62000,6.408167436
1.62050,2.135445728
1.62100,1.525056913
1.62150,3.356223359
1.62200,5.492584213
1.62250,7.934139475
1.62300,10.68088914
1.62350,11.59647237
1.62400,9.460111513
1.62450,6.408167436
1.62500,5.492584213
1.62550,7.018556251
1.62600,6.408167436
1.62650,-0.0009151256603
1.62700,-10.9879138
1.62750,-19.53335722
1.62800,-20.75413485
1.62850,-17.09180196
1.62900,-16.17621873
1.62950,-18.617774
1.63000,-18.00738518
1.63050,-12.20869143
1.63100,-6.10480328
1.63150,-5.799608872
1.63200,-10.07233058
1.63250,-14.9554411
1.63300,-18.9229684
1.63350,-24.11127333
1.63400,-28.99438386
1.63450,-29.90996708
1.63500,-25.02685656
1.63550,-15.87102433
1.63600,-4.884025649
1.63650,4.57700099
1.63700,13.12244441
1.63750,20.44711019
1.63800,26.85619275
1.63850,30.82372005
1.63900,29.90813683
1.63950,25.02502631
1.64000,21.36269341
1.64050,21.66788782
1.64100,25.63541512
1.64150,30.51852564
1.64200,33.26527531
1.64250,30.82372005
1.64300,22.27827664
1.64350,9.460111513
1.64400,-1.221692756
1.64450,-8.241164134
1.64500,-14.03985788
1.64550,-21.05932926
1.64600,-27.16321741
1.64650,-27.46841182
1.64700,-21.66971807
1.64750,-12.20869143
1.64800,-3.35805361
1.64850,1.219862505
1.64900,0.304279282
1.64950,-4.578831241
1.65000,-8.546358541
1.65050,-7.020386503
1.65100,-2.13727598
1.65150,-0.0009151256603
1.65200,-2.13727598
1.65250,-6.409997687
1.65300,-8.546358541
1.65350,-7.020386503
1.65400,-1.526887164
1.65450,6.713361844
1.65500,15.86919407
1.65550,21.05749901
1.65600,17.08997171
1.65650,7.934139475
1.65700,3.356223359
1.65750,7.934139475
1.65800,14.95361085
1.65850,12.81725
1.65900,1.830251321
1.65950,-7.32558091
1.66000,-7.935969726
1.66050,-5.494414464
1.66100,-8.546358541
1.66150,-18.31257959
1.66200,-26.858023
1.66250,-29.29957827
1.66300,-28.68918945
1.66350,-28.38399504
1.66400,-27.16321741
1.66450,-21.66971807
1.66500,-12.81908025
1.66550,-6.715192095
1.66600,-3.663248018
1.66650,2.440640136
1.66700,15.25880526
1.66750,27.46658157
1.66800,30.51852564
1.66850,25.63541512
1.66900,19.53152697
1.66950,15.56399967
1.67000,11.59647237
1.67050,9.154917105
1.67100,10.98608355
1.67150,15.25880526
1.67200,15.25880526
1.67250,10.07050033
1.67300,4.882195398
1.67350,3.356223359
1.67400,3.661417767
1.67450,4.57700099
1.67500,8.54452829
1.67550,15.25880526
1.67600,17.70036052
1.67650,14.03802763
1.67700,9.154917105
1.67750,7.934139475
1.67800,6.408167436
1.67850,0.304279282
1.67900,-7.32558091
1.67950,-10.6827194
1.68000,-9.767136172
1.68050,-8.241164134
1.68100,-8.546358541
1.68150,-10.9879138
1.68200,-17.70219077
1.68250,-27.16321741
1.68300,-34.18268879
1.68350,-36.01385523
1.68400,-35.09827201
1.68450,-36.01385523
1.68500,-35.70866083
1.68550,-31.43593912
1.68600,-24.72166215
1.68650,-21.05932926
1.68700,-20.44894044
1.68750,-19.53335722
1.68800,-17.70219077
1.68850,-16.78660755
1.68900,-15.56582992
1.68950,-10.9879138
1.69000,-4.578831241
1.69050,1.219862505
1.69100,5.797778621
1.69150,9.765305921
1.69200,10.37569474
1.69250,5.492584213
1.69300,-1.221692756
1.69350,-3.968442426
1.69400,-1.832081572
1.69450,0.9146680974
1.69500,1.830251321
1.69550,3.661417767
1.69600,6.713361844
1.69650,7.934139475
1.69700,5.492584213
1.69750,3.356223359
1.69800,5.492584213
1.69850,11.90166677
1.69900,18.61594374
1.69950,22.27827664
1.70000,21.05749901
1.70050,14.03802763
1.70100,2.745834544
1.70150,-8.241164134
1.70200,-14.9554411
1.70250,-15.87102433
1.70300,-12.51388584
1.70350,-7.630775318
1.70400,-3.052859203
1.70450,1.525056913
1.70500,7.934139475
1.70550,16.47958289
1.70600,25.94060953
1.70650,34.48605294
1.70700,40.89513551
1.70750,45.77824603
1.70800,48.21980129
1.70850,48.5249957
1.70900,47.30421807
1.70950,46.99902366
1.71000,47.30421807
1.71050,47.60941248
1.71100,46.08344044
1.71150,42.42110754
1.71200,38.14838584
1.71250,34.48605294
1.71300,29.29774801
1.71350,17.70036052
1.71400,-1.221692756
1.71450,-20.14374603
1.71500,-29.60477267
1.71550,-28.68918945
1.71600,-25.63724537
1.71650,-25.02685656
1.71700,-23.80607893
1.71750,-16.78660755
1.71800,-5.189220057
1.71850,5.187389805
1.71900,12.20686118
1.71950,15.86919407
1.72000,16.17438848
1.72050,12.81725
1.72100,7.628945067
1.72150,3.051028951
1.72200,-0.0009151256603
1.72250,-2.442470387
1.72300,-2.442470387
1.72350,0.304279282
1.72400,3.661417767
1.72450,5.492584213
1.72500,6.408167436
1.72550,8.239333882
1.72600,9.154917105
1.72650,7.018556251
1.72700,2.745834544
1.72750,0.304279282
1.72800,0.304279282
1.72850,1.219862505
1.72900,2.135445728
1.72950,2.440640136
1.73000,-0.3061095334
1.73050,-9.461941764
1.73100,-23.50088452
1.73150,-37.53982727
1.73200,-47.30604832
1.73250,-50.96838121
1.73300,-49.13721477
1.73350,-43.03332661
1.73400,-35.70866083
1.73450,-28.68918945
1.73500,-24.11127333
1.73550,-21.36452366
1.73600,-19.83855163
1.73650,-18.9229684
1.73700,-18.31257959
1.73750,-18.617774
1.73800,-18.617774
1.73850,-15.56582992
1.73900,-10.6827194
1.73950,-7.935969726
1.74000,-9.461941764
1.74050,-10.07233058
1.74100,-3.663248018
1.74150,6.102973028
1.74200,10.37569474
1.74250,5.187389805
1.74300,-1.832081572
1.74350,-4.578831241
1.74400,-3.35805361
1.74450,-3.052859203
1.74500,-5.494414464
1.74550,-9.461941764
1.74600,-10.9879138
1.74650,-8.241164134
1.74700,-1.526887164
1.74750,4.271806582
1.74800,5.492584213
1.74850,2.135445728
1.74900,-0.0009151256603
1.74950,0.304279282
1.75000,0.9146680974
1.75050,1.525056913
1.75100,5.492584213
1.75150,13.42763881
1.75200,18.92113815
1.75250,17.70036052
1.75300,15.56399967
1.75350,19.22633256
1.75400,25.94060953
1.75450,27.77177598
1.75500,23.19385986
1.75550,18.31074934
1.75600,16.17438848
1.75650,15.25880526
1.75700,14.64841644
1.75750,16.47958289
1.75800,19.22633256
1.75850,16.17438848
1.75900,2.745834544
1.75950,-15.26063551
1.76000,-30.21516149
1.76050,-39.37099372
1.76100,-46.08527069
1.76150,-50.96838121
1.76200,-51.88396443
1.76250,-47.00085391
1.76300,-38.7606049
1.76350,-30.5203559
1.76400,-24.11127333
1.76450,-19.53335722
1.76500,-15.87102433
1.76550,-13.73466347
1.76600,-13.42946906
1.76650,-13.73466347
1.76700,-12.20869143
1.76750,-7.630775318
1.76800,-1.526887164
1.76850,4.271806582
1.76900,11.29127796
1.76950,19.83672137
1.77000,27.16138716
1.77050,29.90813683
1.77100,29.90813683
1.77150,30.21333124
1.77200,31.43410887
1.77250,30.51852564
1.77300,27.46658157
1.77350,26.24580394
1.77400,28.07697038
1.77450,29.90813683
1.77500,29.29774801
1.77550,28.07697038
1.77600,26.24580394
1.77650,20.7523046
1.77700,10.98608355
1.77750,2.745834544
1.77800,-0.3061095334
1.77850,-2.13727598
1.77900,-6.409997687
1.77950,-11.29310821
1.78000,-12.51388584
1.78050,-10.9879138
1.78100,-10.9879138
1.78150,-12.81908025
1.78200,-13.73466347
1.78250,-13.42946906
1.78300,-12.81908025
1.78350,-9.156747357
1.78400,-2.747664795
1.78450,1.219862505
1.78500,-0.9164983488
1.78550,-5.494414464
1.78600,-4.884025649
1.78650,-2.13727598
1.78700,-4.273636833
1.78750,-10.6827194
1.78800,-14.03985788
1.78850,-11.90349703
1.78900,-10.9879138
1.78950,-14.34505229
1.79000,-18.31257959
1.79050,-20.75413485
1.79100,-22.5853013
1.79150,-25.33205096
1.79200,-25.33205096
1.79250,-20.75413485
1.79300,-12.81908025
1.79350,-3.663248018
1.79400,3.661417767
1.79450,6.713361844
1.79500,3.661417767
1.79550,0.6094736897
1.79600,5.492584213
1.79650,16.47958289
1.79700,24.7198319
1.79750,25.94060953
1.79800,27.16138716
1.79850,32.34969209
1.79900,38.14838584
1.79950,40.28474669
1.80000,40.28474669
1.80050,40.89513551
1.80100,40.89513551
1.80150,37.53799702
1.80200,30.21333124
1.80250,20.44711019
1.80300,9.460111513
1.80350,-0.0009151256603
1.80400,-4.884025649
1.80450,-7.32558091
1.80500,-11.90349703
1.80550,-17.39699636
1.80600,-18.31257959
1.80650,-12.81908025
1.80700,-5.189220057
1.80750,-0.3061095334
1.80800,1.830251321
1.80850,2.745834544
1.80900,0.6094736897
1.80950,-2.442470387
1.81000,-0.9164983488
1.81050,7.628945067
1.81100,17.08997171
1.81150,17.08997171
1.81200,7.018556251
1.81250,-6.409997687
1.81300,-18.31257959
1.81350,-28.07880063
1.81400,-36.31904964
1.81450,-41.50735457
1.81500,-42.7281322
1.81550,-42.4229378
1.81600,-41.50735457
1.81650,-38.7606049
1.81700,-32.04632793
1.81750,-21.66971807
1.81800,-10.07233058
1.81850,0.9146680974
1.81900,10.68088914
1.81950,14.95361085
1.82000,10.98608355
1.82050,2.745834544
1.82100,-2.442470387
1.82150,-1.221692756
1.82200,1.525056913
1.82250,1.525056913
1.82300,-0.9164983488
1.82350,-2.442470387
1.82400,-1.221692756
1.82450,-0.3061095334
1.82500,-0.0009151256603
1.82550,3.661417767
1.82600,11.29127796
1.82650,18.31074934
1.82700,20.14191578
1.82750,16.47958289
1.82800,10.68088914
1.82850,5.187389805
1.82900,1.525056913
1.82950,0.304279282
1.83000,2.745834544
1.83050,7.018556251
1.83100,10.37569474
1.83150,10.37569474
1.83200,4.57700099
1.83250,-3.968442426
1.83300,-11.29310821
1.83350,-10.9879138
1.83400,-3.35805361
1.83450,6.408167436
1.83500,15.25880526
1.83550,21.05749901
1.83600,24.7198319
1.83650,25.02502631
1.83700,21.36269341
1.83750,14.95361085
1.83800,8.239333882
1.83850,2.745834544
1.83900,-1.221692756
1.83950,-3.663248018
1.84000,-3.35805361
1.84050,-1.221692756
1.84100,-0.3061095334
1.84150,-2.13727598
1.84200,-4.884025649
1.84250,-5.799608872
1.84300,-4.884025649
1.84350,-5.189220057
1.84400,-9.156747357
1.84450,-13.42946906
1.84500,-13.73466347
1.84550,-10.9879138
1.84600,-9.156747357
1.84650,-9.461941764
1.84700,-9.767136172
1.84750,-8.546358541
1.84800,-5.494414464
1.84850,-2.13727598
1.84900,-1.526887164
1.84950,-5.189220057
1.85000,-11.90349703
1.85050,-17.39699636
1.85100,-18.9229684
1.85150,-18.31257959
1.85200,-21.66971807
1.85250,-29.29957827
1.85300,-36.31904964
1.85350,-38.7606049
1.85400,-37.84502168
1.85450,-34.18268879
1.85500,-25.02685656
1.85550,-10.07233058
1.85600,4.882195398
1.85650,13.73283322
1.85700,18.00555493
1.85750,23.80424868
1.85800,30.82372005
1.85850,30.21333124
1.85900,19.83672137
1.85950,7.934139475
1.86000,2.135445728
1.86050,-0.0009151256603
1.86100,-6.409997687
1.86150,-16.48141314
1.86200,-24.72166215
1.86250,-28.99438386
1.86300,-31.43593912
1.86350,-31.74113353
1.86400,-27.77360623
1.86450,-21.05932926
1.86500,-13.73466347
1.86550,-4.578831241
1.86600,7.934139475
1.86650,18.92113815
1.86700,21.05749901
1.86750,14.95361085
1.86800,9.460111513
1.86850,9.154917105
1.86900,11.90166677
1.86950,14.64841644
1.87000,18.31074934
1.87050,21.97308223
1.87100,21.05749901
1.87150,15.56399967
1.87200,11.29127796
1.87250,10.98608355
1.87300,12.81725
1.87350,14.34322204
1.87400,16.47958289
1.87450,19.22633256
1.87500,19.53152697
1.87550,14.64841644
1.87600,8.849722698
1.87650,6.102973028
1.87700,6.102973028
1.87750,7.018556251
1.87800,7.628945067
1.87850,8.54452829
1.87900,9.460111513
1.87950,7.934139475
1.88000,4.882195398
1.88050,2.135445728
1.88100,1.830251321
1.88150,1.525056913
1.88200,-3.052859203
1.88250,-12.81908025
1.88300,-21.66971807
1.88350,-22.8904957
1.88400,-18.617774
1.88450,-15.56582992
1.88500,-14.6502467
1.88550,-10.6827194
1.88600,-3.35805361
1.88650,1.219862505
1.88700,0.304279282
1.88750,-0.6113039411
1.88800,1.525056913
1.88850,3.051028951
1.88900,-1.526887164
1.88950,-11.59830262
1.89000,-21.66971807
1.89050,-29.29957827
1.89100,-33.57229997
1.89150,-31.13074471
1.89200,-21.36452366
1.89250,-14.03985788
1.89300,-15.56582992
1.89350,-20.75413485
1.89400,-18.617774
1.89450,-7.630775318
1.89500,3.966612174
1.89550,13.12244441
1.89600,23.19385986
1.89650,33.87566413
1.89700,38.14838584
1.89750,32.96008091
1.89800,24.10944308
1.89850,16.7847773
1.89900,10.37569474
1.89950,3.661417767
1.90000,0.6094736897
1.90050,5.187389805
1.90100,13.73283322
1.90150,19.83672137
1.90200,21.66788782
1.90250,22.58347104
1.90300,25.94060953
1.90350,31.73930328
1.90400,38.75877465
1.90450,45.47305162
1.90500,47.30421807
1.90550,40.5899411
1.90600,26.85619275
1.90650,11.90166677
1.90700,0.6094736897
1.90750,-4.578831241
1.90800,-6.409997687
1.90850,-5.799608872
1.90900,-3.35805361
1.90950,-0.0009151256603
1.91000,3.356223359
1.91050,8.849722698
1.91100,16.47958289
1.91150,23.19385986
1.91200,25.63541512
1.91250,24.7198319
1.91300,24.7198319
1.91350,25.94060953
1.91400,25.02502631
1.91450,21.97308223
1.91500,20.44711019
1.91550,21.66788782
1.91600,19.53152697
1.91650,10.07050033
1.91700,0.304279282
1.91750,-1.526887164
1.91800,3.051028951
1.91850,6.408167436
1.91900,5.187389805
1.91950,3.051028951
1.92000,3.356223359
1.92050,5.492584213
1.92100,8.849722698
1.92150,12.51205559
1.92200,11.59647237
1.92250,2.135445728
1.92300,-11.59830262
1.92350,-21.36452366
1.92400,-25.94243978
1.92450,-31.43593912
1.92500,-39.06579931
1.92550,-42.7281322
1.92600,-38.7606049
1.92650,-33.87749438
1.92700,-34.7930776
1.92750,-40.28657694
1.92800,-46.6956595
1.92850,-54.02032529
1.92900,-60.42940785
1.92950,-61.03979667
1.93000,-53.71513088
1.93050,-44.55929865
1.93100,-38.4554105
1.93150,-33.87749438
1.93200,-25.02685656
1.93250,-11.29310821
1.93300,3.966612174
1.93350,18.61594374
1.93400,30.51852564
1.93450,36.6224138
1.93500,37.53799702
1.93550,38.14838584
1.93600,41.20032991
1.93650,42.72630195
1.93700,39.06396906
1.93750,32.04449768
1.93800,25.63541512
1.93850,19.83672137
1.93900,12.81725
1.93950,7.628945067
1.94000,8.54452829
1.94050,14.95361085
1.94100,21.05749901
1.94150,23.19385986
1.94200,22.27827664
1.94250,21.36269341
1.94300,21.05749901
1.94350,21.66788782
1.94400,23.19385986
1.94450,21.66788782
1.94500,16.17438848
1.94550,9.765305921
1.94600,5.492584213
1.94650,-0.6113039411
1.94700,-14.34505229
1.94750,-33.57229997
1.94800,-48.22163154
1.94850,-54.3255197
1.94900,-54.02032529
1.94950,-49.74760358
1.95000,-39.37099372
1.95050,-22.28010689
1.95100,-3.968442426
1.95150,8.54452829
1.95200,14.64841644
1.95250,14.95361085
1.95300,10.07050033
1.95350,3.661417767
1.95400,2.440640136
1.95450,8.239333882
1.95500,15.86919407
1.95550,16.7847773
1.95600,10.07050033
1.95650,0.9146680974
1.95700,-6.409997687
1.95750,-11.29310821
1.95800,-15.26063551
1.95850,-18.00738518
1.95900,-17.70219077
1.95950,-11.90349703
1.96000,-0.3061095334
1.96050,11.59647237
1.96100,18.00555493
1.96150,17.08997171
1.96200,12.51205559
1.96250,8.54452829
1.96300,5.187389805
1.96350,0.6094736897
1.96400,-3.663248018
1.96450,-5.494414464
1.96500,-3.052859203
1.96550,-0.0009151256603
1.96600,2.135445728
1.96650,2.440640136
1.96700,2.745834544
1.96750,5.492584213
1.96800,10.07050033
1.96850,14.34322204
1.96900,14.34322204
1.96950,8.54452829
1.97000,-0.0009151256603
1.97050,-4.884025649
1.97100,-2.747664795
1.97150,4.882195398
1.97200,13.12244441
1.97250,17.70036052
1.97300,18.31074934
1.97350,16.7847773
1.97400,15.56399967
1.97450,16.47958289
1.97500,18.31074934
1.97550,17.39516611
1.97600,11.90166677
1.97650,6.713361844
1.97700,5.797778621
1.97750,7.628945067
1.97800,3.966612174
1.97850,-8.546358541
1.97900,-24.72166215
1.97950,-36.31904964
1.98000,-42.7281322
1.98050,-46.3904651
1.98100,-46.6956595
1.98150,-39.98138253
1.98200,-28.07880063
1.98250,-18.617774
1.98300,-17.09180196
1.98350,-19.83855163
1.98400,-19.22816281
1.98450,-13.42946906
1.98500,-7.32558091
1.98550,-6.715192095
1.98600,-12.51388584
1.98650,-19.22816281
1.98700,-19.83855163
1.98750,-11.29310821
1.98800,1.830251321
1.98850,14.03802763
1.98900,21.36269341
1.98950,23.19385986
1.99000,20.44711019
1.99050,14.34322204
1.99100,7.323750659
1.99150,3.051028951
1.99200,2.440640136
1.99250,4.57700099
1.99300,7.018556251
1.99350,7.323750659
1.99400,5.492584213
1.99450,4.271806582
1.99500,6.408167436
1.99550,10.98608355
1.99600,15.86919407
1.99650,20.7523046
1.99700,27.46658157
1.99750,35.09644176
1.99800,37.23280261
1.99850,31.73930328
1.99900,24.7198319
1.99950,23.49905427
2.00000,26.24580394
2.00050,25.02502631
2.00100,18.00555493
2.00150,10.98608355
2.00200,7.323750659
2.00250,2.745834544
2.00300,-5.494414464
2.00350,-15.26063551
2.00400,-21.36452366
2.00450,-25.63724537
2.00500,-31.13074471
2.00550,-36.92943846
2.00600,-37.84502168
2.00650,-32.35152234
2.00700,-23.19569011
2.00750,-13.73466347
2.00800,-5.189220057
2.00850,0.9146680974
2.00900,3.356223359
2.00950,2.745834544
2.01000,0.6094736897
2.01050,-0.3061095334
2.01100,0.9146680974
2.01150,7.628945067
2.01200,19.53152697
2.01250,30.82372005
2.01300,32.6548865
2.01350,21.05749901
2.01400,0.304279282
2.01450,-20.44894044
2.01500,-35.70866083
2.01550,-45.47488187
2.01600,-51.88396443
2.01650,-52.49435325
2.01700,-44.25410424
2.01750,-28.38399504
2.01800,-13.73466347
2.01850,-7.020386503
2.01900,-9.767136172
2.01950,-16.48141314
2.02000,-23.19569011
2.02050,-25.63724537
2.02100,-21.97491248
2.02150,-13.42946906
2.02200,-5.189220057
2.02250,-1.221692756
2.02300,-2.442470387
2.02350,-5.494414464
2.02400,-7.935969726
2.02450,-6.409997687
2.02500,0.9146680974
2.02550,13.12244441
2.02600,23.49905427
2.02650,27.16138716
2.02700,25.02502631
2.02750,21.97308223
2.02800,21.36269341
2.02850,23.49905427
2.02900,25.63541512
2.02950,24.41463749
2.03000,19.22633256
2.03050,14.34322204
2.03100,13.73283322
2.03150,14.95361085
2.03200,12.20686118
2.03250,6.102973028
2.03300,4.57700099
2.03350,10.68088914
2.03400,16.17438848
2.03450,13.12244441
2.03500,3.661417767
2.03550,-4.578831241
2.03600,-10.9879138
2.03650,-16.78660755
2.03700,-19.22816281
2.03750,-15.56582992
2.03800,-8.241164134
2.03850,-3.663248018
2.03900,-3.35805361
2.03950,-3.663248018
2.04000,-2.442470387
2.04050,-0.6113039411
2.04100,1.525056913
2.04150,5.492584213
2.04200,7.628945067
2.04250,7.018556251
2.04300,6.713361844
2.04350,9.154917105
2.04400,9.460111513
2.04450,1.525056913
2.04500,-11.90349703
2.04550,-20.75413485
2.04600,-19.83855163
2.04650,-14.9554411
2.04700,-16.78660755
2.04750,-25.63724537
2.04800,-33.26710557
2.04850,-32.04632793
2.04900,-22.8904957
2.04950,-12.81908025
2.05000,-7.935969726
2.05050,-9.767136172
2.05100,-13.73466347
2.05150,-14.6502467
2.05200,-11.29310821
2.05250,-7.020386503
2.05300,-5.494414464
2.05350,-8.241164134
2.05400,-11.59830262
2.05450,-11.90349703
2.05500,-7.32558091
2.05550,-0.9164983488
2.05600,2.440640136
2.05650,1.219862505
2.05700,-2.442470387
2.05750,-6.10480328
2.05800,-6.715192095
2.05850,-3.052859203
2.05900,5.187389805
2.05950,18.31074934
2.06000,31.43410887
2.06050,36.92760821
2.06100,29.60294242
2.06150,12.51205559
2.06200,-4.273636833
2.06250,-12.81908025
2.06300,-12.51388584
2.06350,-7.630775318
2.06400,-0.0009151256603
2.06450,10.07050033
2.06500,20.7523046
2.06550,25.63541512
2.06600,24.10944308
2.06650,21.66788782
2.06700,23.19385986
2.06750,25.94060953
2.06800,23.19385986
2.06850,11.90166677
2.06900,-3.35805361
2.06950,-16.17621873
2.07000,-24.41646774
2.07050,-29.90996708
2.07100,-34.18268879
2.07150,-36.62424405
2.07200,-34.18268879
2.07250,-27.77360623
2.07300,-23.80607893
2.07350,-27.16321741
2.07400,-34.18268879
2.07450,-37.23463287
2.07500,-33.87749438
2.07550,-28.99438386
2.07600,-25.94243978
2.07650,-21.36452366
2.07700,-10.07233058
2.07750,5.492584213
2.07800,19.83672137
2.07850,28.6873592
2.07900,30.51852564
2.07950,25.02502631
2.08000,15.56399967
2.08050,8.239333882
2.08100,7.628945067
2.08150,10.68088914
2.08200,10.37569474
2.08250,4.271806582
2.08300,-5.189220057
2.08350,-14.6502467
2.08400,-21.36452366
2.08450,-21.66971807
2.08500,-14.34505229
2.08550,-1.526887164
2.08600,12.20686118
2.08650,26.24580394
2.08700,37.53799702
2.08750,40.89513551
2.08800,34.18085854
2.08850,23.80424868
2.08900,17.08997171
2.08950,13.42763881
2.09000,5.492584213
2.09050,-8.241164134
2.09100,-23.50088452
2.09150,-37.23463287
2.09200,-48.83202036
2.09250,-55.85149174
2.09300,-52.49435325
2.09350,-39.06579931
2.09400,-24.41646774
2.09450,-14.6502467
2.09500,-8.851552949
2.09550,-6.409997687
2.09600,-10.6827194
2.09650,-20.14374603
2.09700,-24.72166215
2.09750,-15.87102433
2.09800,3.051028951
2.09850,23.19385986
2.09900,40.5899411
2.09950,55.54446708
2.10000,63.78471608
2.10050,59.51199438
2.10100,44.5574684
2.10150,26.55099834
2.10200,9.765305921
2.10250,-4.578831241
2.10300,-16.17621873
2.10350,-19.22816281
2.10400,-13.42946906
2.10450,-3.052859203
2.10500,6.102973028
2.10550,13.73283322
2.10600,21.05749901
2.10650,29.60294242
2.10700,38.45358024
2.10750,45.47305162
2.10800,46.38863484
2.10850,38.45358024
2.10900,27.77177598
2.10950,21.36269341
2.11000,20.44711019
2.11050,17.39516611
2.11100,10.68088914
2.11150,7.323750659
2.11200,12.20686118
2.11250,18.31074934
2.11300,15.25880526
2.11350,5.187389805
2.11400,-0.0009151256603
2.11450,3.356223359
2.11500,7.323750659
2.11550,3.051028951
2.11600,-5.799608872
2.11650,-13.42946906
2.11700,-20.14374603
2.11750,-28.68918945
2.11800,-35.09827201
2.11850,-31.43593912
2.11900,-17.09180196
2.11950,-1.221692756
2.12000,9.154917105
2.12050,16.17438848
2.12100,23.80424868
2.12150,31.12891446
2.12200,35.40163617
2.12250,34.79124735
2.12300,29.90813683
2.12350,21.97308223
2.12400,13.73283322
2.12450,7.628945067
2.12500,3.356223359
2.12550,-1.526887164
2.12600,-8.851552949
2.12650,-17.39699636
2.12700,-24.72166215
2.12750,-30.8255503
2.12800,-33.87749438
2.12850,-30.8255503
2.12900,-21.36452366
2.12950,-11.59830262
2.13000,-5.494414464
2.13050,-2.442470387
2.13100,1.219862505
2.13150,5.492584213
2.13200,6.713361844
2.13250,1.830251321
2.13300,-5.799608872
2.13350,-11.59830262
2.13400,-13.42946906
2.13450,-15.26063551
2.13500,-22.28010689
2.13550,-34.4878832
2.13600,-45.47488187
2.13650,-47.91643713
2.13700,-43.64371543
2.13750,-38.4554105
2.13800,-35.40346642
2.13850,-30.21516149
2.13900,-20.14374603
2.13950,-8.241164134
2.14000,0.304279282
2.14050,5.187389805
2.14100,7.628945067
2.14150,8.849722698
2.14200,10.37569474
2.14250,15.25880526
2.14300,21.97308223
2.14350,26.55099834
2.14400,26.24580394
2.14450,23.49905427
2.14500,21.05749901
2.14550,16.17438848
2.14600,6.102973028
2.14650,-3.968442426
2.14700,-6.409997687
2.14750,-0.0009151256603
2.14800,5.797778621
2.14850,5.187389805
2.14900,-0.3061095334
2.14950,-7.020386503
2.15000,-12.20869143
2.15050,-17.09180196
2.15100,-20.75413485
2.15150,-21.36452366
2.15200,-21.36452366
2.15250,-22.5853013
2.15300,-23.80607893
2.15350,-19.22816281
2.15400,-7.020386503
2.15450,7.628945067
2.15500,20.14191578
2.15550,28.99255361
2.15600,34.18085854
2.15650,34.18085854
2.15700,29.60294242
2.15750,24.41463749
2.15800,21.97308223
2.15850,18.61594374
2.15900,8.849722698
2.15950,-3.663248018
2.16000,-9.156747357
2.16050,-3.968442426
2.16100,4.882195398
2.16150,8.239333882
2.16200,5.797778621
2.16250,3.661417767
2.16300,5.797778621
2.16350,11.29127796
2.16400,16.7847773
2.16450,19.53152697
2.16500,16.47958289
2.16550,7.628945067
2.16600,-3.052859203
2.16650,-13.12427466
2.16700,-19.22816281
2.16750,-19.22816281
2.16800,-9.461941764
2.16850,9.460111513
2.16900,30.21333124
2.16950,43.94707958
2.17000,46.99902366
2.17050,41.81071873
2.17100,30.82372005
2.17150,18.31074934
2.17200,10.37569474
2.17250,11.90166677
2.17300,18.31074934
2.17350,21.05749901
2.17400,15.56399967
2.17450,5.492584213
2.17500,-4.884025649
2.17550,-14.6502467
2.17600,-22.5853013
2.17650,-25.94243978
2.17700,-25.33205096
2.17750,-24.41646774
2.17800,-25.33205096
2.17850,-25.02685656
2.17900,-21.97491248
2.17950,-21.36452366
2.18000,-27.16321741
2.18050,-38.15021609
2.18100,-47.00085391
2.18150,-49.44240917
2.18200,-48.22163154
2.18250,-48.52682595
2.18300,-52.49435325
2.18350,-56.46188055
2.18400,-54.93590851
2.18450,-46.3904651
2.18500,-34.18268879
2.18550,-22.5853013
2.18600,-11.29310821
2.18650,0.304279282
2.18700,12.51205559
2.18750,23.19385986
2.18800,33.26527531
2.18850,44.5574684
2.18900,54.93407826
2.18950,58.90160556
2.19000,53.40810622
2.19050,40.89513551
2.19100,28.07697038
2.19150,18.00555493
2.19200,10.98608355
2.19250,6.102973028
2.19300,3.356223359
2.19350,1.525056913
2.19400,-0.0009151256603
2.19450,-3.35805361
2.19500,-8.851552949
2.19550,-14.34505229
2.19600,-18.31257959
2.19650,-21.05932926
2.19700,-26.5528286
2.19750,-34.18268879
2.19800,-38.7606049
2.19850,-36.01385523
2.19900,-28.99438386
2.19950,-22.8904957
2.20000,-18.31257959
2.20050,-10.07233058
2.20100,2.440640136
2.20150,13.12244441
2.20200,16.47958289
2.20250,16.47958289
2.20300,19.22633256
2.20350,24.7198319
2.20400,27.46658157
2.20450,26.55099834
2.20500,27.77177598
2.20550,32.96008091
2.20600,35.09644176
2.20650,25.02502631
2.20700,5.492584213
2.20750,-12.81908025
2.20800,-21.66971807
2.20850,-21.97491248
2.20900,-21.05932926
2.20950,-22.8904957
2.21000,-25.33205096
2.21050,-24.11127333
2.21100,-17.09180196
2.21150,-7.020386503
2.21200,-0.6113039411
2.21250,-0.3061095334
2.21300,-3.35805361
2.21350,-4.273636833
2.21400,-3.35805361
2.21450,-5.189220057
2.21500,-8.851552949
2.21550,-8.851552949
2.21600,-2.13727598
2.21650,4.882195398
2.21700,7.323750659
2.21750,5.492584213
2.21800,3.051028951
2.21850,2.745834544
2.21900,4.271806582
2.21950,7.323750659
2.22000,10.07050033
2.22050,8.849722698
2.22100,4.271806582
2.22150,-0.0009151256603
2.22200,-0.6113039411
2.22250,0.6094736897
2.22300,2.135445728
2.22350,3.966612174
2.22400,4.882195398
2.22450,2.440640136
2.22500,-4.273636833
2.22550,-14.34505229
2.22600,-23.50088452
2.22650,-29.60477267
2.22700,-29.90996708
2.22750,-23.80607893
2.22800,-14.34505229
2.22850,-5.189220057
2.22900,0.6094736897
2.22950,4.882195398
2.23000,5.187389805
2.23050,-0.0009151256603
2.23100,-6.715192095
2.23150,-6.715192095
2.23200,1.830251321
2.23250,13.12244441
2.23300,18.00555493
2.23350,14.95361085
2.23400,10.37569474
2.23450,9.460111513
2.23500,12.51205559
2.23550,16.47958289
2.23600,17.08997171
2.23650,14.64841644
2.23700,11.90166677
2.23750,11.29127796
2.23800,11.59647237
2.23850,10.98608355
2.23900,10.07050033
2.23950,11.29127796
2.24000,12.51205559
2.24050,11.90166677
2.24100,10.07050033
2.24150,10.98608355
2.24200,13.42763881
2.24250,11.90166677
2.24300,4.271806582
2.24350,-5.799608872
2.24400,-12.20869143
2.24450,-12.81908025
2.24500,-9.156747357
2.24550,-6.715192095
2.24600,-8.851552949
2.24650,-13.42946906
2.24700,-13.42946906
2.24750,-6.10480328
2.24800,3.051028951
2.24850,7.934139475
2.24900,8.54452829
2.24950,9.765305921
2.25000,12.81725
2.25050,14.03802763
2.25100,14.95361085
2.25150,19.22633256
2.25200,25.94060953
2.25250,28.6873592
2.25300,23.49905427
2.25350,14.64841644
2.25400,8.849722698
2.25450,7.018556251
2.25500,6.102973028
2.25550,4.57700099
2.25600,2.440640136
2.25650,1.525056913
2.25700,3.051028951
2.25750,7.628945067
2.25800,14.34322204
2.25850,21.36269341
2.25900,27.46658157
2.25950,31.43410887
2.26000,32.96008091
2.26050,32.96008091
2.26100,32.96008091
2.26150,33.26527531
2.26200,28.6873592
2.26250,17.70036052
2.26300,4.57700099
2.26350,-1.526887164
2.26400,-0.0009151256603
2.26450,5.187389805
2.26500,8.239333882
2.26550,8.54452829
2.26600,8.239333882
2.26650,6.102973028
2.26700,0.9146680974
2.26750,-5.189220057
2.26800,-9.156747357
2.26850,-10.6827194
2.26900,-13.73466347
2.26950,-18.9229684
2.27000,-22.28010689
2.27050,-20.75413485
2.27100,-15.56582992
2.27150,-13.12427466
2.27200,-16.78660755
2.27250,-23.80607893
2.27300,-27.46841182
2.27350,-25.94243978
2.27400,-21.05932926
2.27450,-14.6502467
2.27500,-7.020386503
2.27550,1.525056913
2.27600,9.765305921
2.27650,17.39516611
2.27700,27.16138716
2.27750,40.28474669
2.27800,51.57693978
2.27850,53.10291181
2.27900,42.42110754
2.27950,25.02502631
2.28000,8.54452829
2.28050,-3.35805361
2.28100,-11.90349703
2.28150,-16.17621873
2.28200,-17.09180196
2.28250,-15.56582992
2.28300,-12.51388584
2.28350,-7.935969726
2.28400,-3.35805361
2.28450,0.304279282
2.28500,4.57700099
2.28550,13.12244441
2.28600,25.02502631
2.28650,33.57046972
2.28700,35.09644176
2.28750,33.57046972
2.28800,35.09644176
2.28850,38.75877465
2.28900,38.45358024
2.28950,32.96008091
2.29000,25.33022071
2.29050,18.00555493
2.29100,10.37569474
2.29150,3.051028951
2.29200,-1.526887164
2.29250,-4.578831241
2.29300,-6.10480328
2.29350,-6.10480328
2.29400,-6.409997687
2.29450,-10.37752499
2.29500,-19.83855163
2.29550,-27.16321741
2.29600,-25.94243978
2.29650,-17.09180196
2.29700,-8.546358541
2.29750,-0.6113039411
2.29800,11.59647237
2.29850,28.07697038
2.29900,40.28474669
2.29950,42.11591314
2.30000,36.31721939
2.30050,28.38216479
2.30100,17.39516611
2.30150,1.525056913
2.30200,-13.73466347
2.30250,-20.44894044
2.30300,-15.87102433
2.30350,-5.494414464
2.30400,0.9146680974
2.30450,0.6094736897
2.30500,-3.663248018
2.30550,-3.968442426
2.30600,3.661417767
2.30650,17.08997171
2.30700,27.16138716
2.30750,28.6873592
2.30800,22.27827664
2.30850,12.20686118
2.30900,0.304279282
2.30950,-12.51388584
2.31000,-24.72166215
2.31050,-32.35152234
2.31100,-34.7930776
2.31150,-33.87749438
2.31200,-31.43593912
2.31250,-27.46841182
2.31300,-21.97491248
2.31350,-14.03985788
2.31400,-5.189220057
2.31450,-0.0009151256603
2.31500,-4.578831241
2.31550,-21.97491248
2.31600,-45.16968747
2.31650,-62.2605743
2.31700,-65.61771278
2.31750,-57.37746377
2.31800,-44.25410424
2.31850,-32.96191116
2.31900,-26.5528286
2.31950,-24.41646774
2.32000,-23.80607893
2.32050,-21.66971807
2.32100,-17.09180196
2.32150,-11.90349703
2.32200,-8.241164134
2.32250,-5.799608872
2.32300,-4.884025649
2.32350,-4.578831241
2.32400,-4.273636833
2.32450,-0.9164983488
2.32500,4.882195398
2.32550,11.29127796
2.32600,14.64841644
2.32650,15.56399967
2.32700,13.12244441
2.32750,3.966612174
2.32800,-12.20869143
2.32850,-29.29957827
2.32900,-40.28657694
2.32950,-45.78007628
2.33000,-51.27357562
2.33050,-55.24110292
2.33100,-52.79954766
2.33150,-42.4229378
2.33200,-29.60477267
2.33250,-16.78660755
2.33300,-0.9164983488
2.33350,19.53152697
2.33400,39.36916347
2.33450,54.32368945
2.33500,65.61588253
2.33550,72.94054831
2.33600,72.94054831
2.33650,63.78471608
2.33700,51.88213418
2.33750,43.94707958
2.33800,37.53799702
2.33850,27.46658157
2.33900,12.81725
2.33950,-1.526887164
2.34000,-12.51388584
2.34050,-18.9229684
2.34100,-19.53335722
2.34150,-15.87102433
2.34200,-12.81908025
2.34250,-11.29310821
2.34300,-6.715192095
2.34350,2.745834544
2.34400,7.934139475
2.34450,-0.9164983488
2.34500,-19.83855163
2.34550,-35.70866083
2.34600,-42.7281322
2.34650,-46.3904651
2.34700,-50.05279799
2.34750,-49.74760358
2.34800,-45.78007628
2.34850,-45.78007628
2.34900,-53.10474207
2.34950,-61.65018548
2.35000,-64.39693515
2.35050,-63.48135193
2.35100,-63.48135193
2.35150,-62.87096311
2.35200,-55.85149174
2.35250,-43.03332661
2.35300,-28.99438386
2.35350,-17.09180196
2.35400,-5.494414464
2.35450,6.713361844
2.35500,18.61594374
2.35550,28.99255361
2.35600,37.23280261
2.35650,43.94707958
2.35700,47.91460688
2.35750,49.13538451
2.35800,47.60941248
2.35850,46.69382925
2.35900,49.13538451
2.35950,53.71330063
2.36000,54.32368945
2.36050,46.08344044
2.36100,28.07697038
2.36150,3.661417767
2.36200,-22.28010689
2.36250,-44.25410424
2.36300,-57.07226937
2.36350,-59.81901904
2.36400,-56.46188055
2.36450,-50.3579924
2.36500,-42.4229378
2.36550,-33.26710557
2.36600,-26.24763419
2.36650,-24.11127333
2.36700,-23.80607893
2.36750,-21.97491248
2.36800,-18.31257959
2.36850,-15.87102433
2.36900,-13.73466347
2.36950,-10.37752499
2.37000,-6.10480328
2.37050,-3.968442426
2.37100,-3.968442426
2.37150,-1.526887164
2.37200,7.323750659
2.37250,23.19385986
2.37300,42.11591314
2.37350,54.62888385
2.37400,53.71330063
2.37450,41.20032991
2.37500,28.07697038
2.37550,23.49905427
2.37600,25.33022071
2.37650,25.02502631
2.37700,17.39516611
2.37750,6.102973028
2.37800,-4.884025649
2.37850,-14.9554411
2.37900,-22.8904957
2.37950,-25.33205096
2.38000,-21.05932926
2.38050,-12.51388584
2.38100,-3.35805361
2.38150,4.57700099
2.38200,12.51205559
2.38250,20.7523046
2.38300,26.85619275
2.38350,26.55099834
2.38400,20.14191578
2.38450,14.95361085
2.38500,19.22633256
2.38550,32.34969209
2.38600,44.25227399
2.38650,45.77824603
2.38700,38.14838584
2.38750,29.29774801
2.38800,23.80424868
2.38850,22.58347104
2.38900,24.41463749
2.38950,26.55099834
2.39000,25.63541512
2.39050,19.83672137
2.39100,12.20686118
2.39150,7.018556251
2.39200,5.492584213
2.39250,6.408167436
2.39300,9.154917105
2.39350,13.12244441
2.39400,17.39516611
2.39450,20.14191578
2.39500,21.05749901
2.39550,20.44711019
2.39600,18.92113815
2.39650,19.22633256
2.39700,25.63541512
2.39750,35.70683058
2.39800,39.67435788
2.39850,30.82372005
2.39900,15.56399967
2.39950,2.745834544
2.40000,-5.799608872
2.40050,-15.56582992
2.40100,-25.02685656
2.40150,-27.46841182
2.40200,-21.36452366
2.40250,-13.42946906
2.40300,-8.241164134
2.40350,-3.35805361
2.40400,2.135445728
2.40450,3.661417767
2.40500,-2.442470387
2.40550,-13.73466347
2.40600,-23.19569011
2.40650,-28.68918945
2.40700,-34.18268879
2.40750,-41.20216017
2.40800,-46.08527069
2.40850,-43.94890983
2.40900,-34.4878832
2.40950,-23.19569011
2.41000,-15.26063551
2.41050,-11.29310821
2.41100,-9.767136172
2.41150,-10.07233058
2.41200,-11.59830262
2.41250,-12.51388584
2.41300,-9.767136172
2.41350,-3.968442426
2.41400,1.219862505
2.41450,5.492584213
2.41500,9.765305921
2.41550,14.34322204
2.41600,15.86919407
2.41650,12.51205559
2.41700,4.271806582
2.41750,-5.799608872
2.41800,-15.87102433
2.41850,-20.75413485
2.41900,-19.22816281
2.41950,-15.26063551
2.42000,-14.03985788
2.42050,-13.12427466
2.42100,-8.851552949
2.42150,-4.578831241
2.42200,-9.461941764
2.42250,-24.11127333
2.42300,-36.31904964
2.42350,-35.70866083
2.42400,-24.41646774
2.42450,-12.20869143
2.42500,-4.273636833
2.42550,0.304279282
2.42600,3.661417767
2.42650,5.187389805
2.42700,6.102973028
2.42750,8.54452829
2.42800,12.51205559
2.42850,15.25880526
2.42900,14.34322204
2.42950,10.07050033
2.43000,4.57700099
2.43050,2.135445728
2.43100,4.271806582
2.43150,11.29127796
2.43200,19.83672137
2.43250,26.55099834
2.43300,29.90813683
2.43350,31.12891446
2.43400,34.48605294
2.43450,38.75877465
2.43500,37.84319143
2.43550,26.55099834
2.43600,10.07050033
2.43650,-1.832081572
2.43700,-7.630775318
2.43750,-9.767136172
2.43800,-10.07233058
2.43850,-4.273636833
2.43900,6.102973028
2.43950,15.86919407
2.44000,21.97308223
2.44050,30.21333124
2.44100,41.20032991
2.44150,44.86266281
2.44200,33.87566413
2.44250,17.08997171
2.44300,8.54452829
2.44350,10.68088914
2.44400,13.73283322
2.44450,11.59647237
2.44500,9.154917105
2.44550,10.37569474
2.44600,12.51205559
2.44650,12.51205559
2.44700,13.12244441
2.44750,16.17438848
2.44800,20.44711019
2.44850,23.49905427
2.44900,25.94060953
2.44950,27.16138716
2.45000,25.63541512
2.45050,22.58347104
2.45100,23.19385986
2.45150,28.6873592
2.45200,34.18085854
2.45250,34.18085854
2.45300,32.34969209
2.45350,31.73930328
2.45400,31.12891446
2.45450,27.46658157
2.45500,24.41463749
2.45550,24.10944308
2.45600,21.66788782
2.45650,9.765305921
2.45700,-9.156747357
2.45750,-25.02685656
2.45800,-33.87749438
2.45850,-38.15021609
2.45900,-35.40346642
2.45950,-18.9229684
2.46000,9.154917105
2.46050,35.70683058
2.46100,46.08344044
2.46150,40.28474669
2.46200,24.7198319
2.46250,5.797778621
2.46300,-10.37752499
2.46350,-17.39699636
2.46400,-14.6502467
2.46450,-9.156747357
2.46500,-8.546358541
2.46550,-10.9879138
2.46600,-12.20869143
2.46650,-12.20869143
2.46700,-14.6502467
2.46750,-19.22816281
2.46800,-21.36452366
2.46850,-18.31257959
2.46900,-9.767136172
2.46950,2.745834544
2.47000,17.39516611
2.47050,26.85619275
2.47100,25.02502631
2.47150,13.73283322
2.47200,1.219862505
2.47250,-3.968442426
2.47300,-0.9164983488
2.47350,6.408167436
2.47400,13.42763881
2.47450,16.47958289
2.47500,16.47958289
2.47550,17.70036052
2.47600,21.36269341
2.47650,25.33022071
2.47700,26.85619275
2.47750,27.16138716
2.47800,29.90813683
2.47850,34.18085854
2.47900,36.01202498
2.47950,33.26527531
2.48000,26.55099834
2.48050,19.22633256
2.48100,14.34322204
2.48150,13.73283322
2.48200,15.25880526
2.48250,15.56399967
2.48300,11.29127796
2.48350,5.187389805
2.48400,0.304279282
2.48450,-3.968442426
2.48500,-11.59830262
2.48550,-21.66971807
2.48600,-29.60477267
2.48650,-32.65671675
2.48700,-32.04632793
2.48750,-30.5203559
2.48800,-28.99438386
2.48850,-27.46841182
2.48900,-26.5528286
2.48950,-23.80607893
2.49000,-17.70219077
2.49050,-11.29310821
2.49100,-8.241164134
2.49150,-9.461941764
2.49200,-9.461941764
2.49250,-4.273636833
2.49300,3.661417767
2.49350,8.849722698
2.49400,7.018556251
2.49450,-0.6113039411
2.49500,-9.156747357
2.49550,-13.42946906
2.49600,-13.12427466
2.49650,-13.12427466
2.49700,-14.6502467
2.49750,-15.56582992
2.49800,-15.56582992
2.49850,-20.44894044
2.49900,-34.7930776
2.49950,-50.3579924
2.50000,-56.15668614
2.50050,-51.88396443
2.50100,-48.83202036
2.50150,-51.88396443
2.50200,-55.54629733
2.50250,-55.85149174
2.50300,-56.76707496
2.50350,-61.03979667
2.50400,-64.39693515
2.50450,-62.87096311
2.50500,-60.12421344
2.50550,-59.81901904
2.50600,-58.293047
2.50650,-51.27357562
2.50700,-43.03332661
2.50750,-41.20216017
2.50800,-44.25410424
2.50850,-43.94890983
2.50900,-36.92943846
2.50950,-29.90996708
2.51000,-28.07880063
2.51050,-28.99438386
2.51100,-27.77360623
2.51150,-21.36452366
2.51200,-11.59830262
2.51250,-3.35805361
2.51300,-2.747664795
2.51350,-8.851552949
2.51400,-14.6502467
2.51450,-14.03985788
2.51500,-8.546358541
2.51550,-4.578831241
2.51600,-4.273636833
2.51650,-4.578831241
2.51700,-3.968442426
2.51750,-4.578831241
2.51800,-9.461941764
2.51850,-17.09180196
2.51900,-25.02685656
2.51950,-32.35152234
2.52000,-37.84502168
2.52050,-40.28657694
2.52100,-38.4554105
2.52150,-33.57229997
2.52200,-26.5528286
2.52250,-20.14374603
2.52300,-17.70219077
2.52350,-23.19569011
2.52400,-36.01385523
2.52450,-51.88396443
2.52500,-65.31251837
2.52550,-72.94237857
2.52600,-73.85796179
2.52650,-68.97485127
2.52700,-58.5982414
2.52750,-45.47488187
2.52800,-35.70866083
2.52850,-31.74113353
2.52900,-32.04632793
2.52950,-32.65671675
2.53000,-32.04632793
2.53050,-31.13074471
2.53100,-28.68918945
2.53150,-21.97491248
2.53200,-13.12427466
2.53250,-8.241164134
2.53300,-10.9879138
2.53350,-17.70219077
2.53400,-22.28010689
2.53450,-22.8904957
2.53500,-19.22816281
2.53550,-13.12427466
2.53600,-7.32558091
2.53650,-6.10480328
2.53700,-10.37752499
2.53750,-15.26063551
2.53800,-18.31257959
2.53850,-22.5853013
2.53900,-31.74113353
2.53950,-43.33852102
2.54000,-49.44240917
2.54050,-47.91643713
2.54100,-43.64371543
2.54150,-40.89696576
2.54200,-37.84502168
2.54250,-31.43593912
2.54300,-23.50088452
2.54350,-18.00738518
2.54400,-16.17621873
2.54450,-17.09180196
2.54500,-21.05932926
2.54550,-26.858023
2.54600,-27.16321741
2.54650,-15.26063551
2.54700,3.661417767
2.54750,13.73283322
2.54800,6.408167436
2.54850,-6.715192095
2.54900,-10.37752499
2.54950,-5.494414464
2.55000,-6.409997687
2.55050,-18.00738518
2.55100,-30.5203559
2.55150,-34.4878832
2.55200,-34.4878832
2.55250,-36.62424405
2.55300,-36.31904964
2.55350,-26.24763419
2.55400,-11.29310821
2.55450,-2.13727598
2.55500,-2.442470387
2.55550,-5.494414464
2.55600,-6.409997687
2.55650,-8.241164134
2.55700,-13.42946906
2.55750,-18.617774
2.55800,-19.83855163
2.55850,-14.9554411
2.55900,-4.578831241
2.55950,10.37569474
2.56000,24.41463749
2.56050,30.51852564
2.56100,27.46658157
2.56150,22.88866545
2.56200,21.97308223
2.56250,22.88866545
2.56300,23.19385986
2.56350,23.49905427
2.56400,25.94060953
2.56450,26.85619275
2.56500,20.7523046
2.56550,8.239333882
2.56600,-3.35805361
2.56650,-8.851552949
2.56700,-5.494414464
2.56750,3.356223359
2.56800,14.64841644
2.56850,25.94060953
2.56900,37.84319143
2.56950,51.88213418
2.57000,66.53146575
2.57050,75.68729798
2.57100,75.38210358
2.57150,67.14185457
2.57200,55.23927267
2.57250,41.81071873
2.57300,30.82372005
2.57350,26.24580394
2.57400,28.38216479
2.57450,31.43410887
2.57500,29.90813683
2.57550,24.7198319
2.57600,21.97308223
2.57650,23.80424868
2.57700,26.85619275
2.57750,28.38216479
2.57800,28.99255361
2.57850,31.73930328
2.57900,36.01202498
2.57950,40.5899411
2.58000,44.25227399
2.58050,45.77824603
2.58100,44.86266281
2.58150,40.5899411
2.58200,35.40163617
2.58250,32.6548865
2.58300,34.79124735
2.58350,42.11591314
2.58400,50.66135655
2.58450,55.23927267
2.58500,52.79771741
2.58550,43.64188518
2.58600,33.57046972
2.58650,28.38216479
2.58700,29.90813683
2.58750,32.04449768
2.58800,29.29774801
2.58850,21.97308223
2.58900,16.7847773
2.58950,17.08997171
2.59000,20.7523046
2.59050,25.02502631
2.59100,31.43410887
2.59150,40.5899411
2.59200,48.83019011
2.59250,50.96655096
2.59300,46.99902366
2.59350,42.42110754
2.59400,40.28474669
2.59450,37.84319143
2.59500,32.34969209
2.59550,24.10944308
2.59600,17.39516611
2.59650,13.12244441
2.59700,9.460111513
2.59750,5.492584213
2.59800,3.966612174
2.59850,10.07050033
2.59900,23.19385986
2.59950,37.23280261
2.60000,43.94707958
2.60050,41.50552432
2.60100,33.87566413
2.60150,25.02502631
2.60200,15.86919407
2.60250,8.849722698
2.60300,7.323750659
2.60350,14.64841644
2.60400,28.38216479
2.60450,39.97955228
2.60500,43.94707958
2.60550,41.50552432
2.60600,37.23280261
2.60650,33.87566413
2.60700,31.12891446
2.60750,28.07697038
2.60800,25.63541512
2.60850,24.10944308
2.60900,23.49905427
2.60950,23.80424868
2.61000,26.55099834
2.61050,31.12891446
2.61100,35.40163617
2.61150,39.36916347
2.61200,45.47305162
2.61250,54.93407826
2.61300,61.95354964
2.61350,60.12238319
2.61400,48.5249957
2.61450,31.73930328
2.61500,17.08997171
2.61550,7.628945067
2.61600,3.051028951
2.61650,1.830251321
2.61700,3.661417767
2.61750,8.849722698
2.61800,15.25880526
2.61850,19.22633256
2.61900,18.61594374
2.61950,14.95361085
2.62000,10.07050033
2.62050,3.356223359
2.62100,-5.494414464
2.62150,-14.34505229
2.62200,-19.83855163
2.62250,-19.53335722
2.62300,-13.73466347
2.62350,-2.13727598
2.62400,13.12244441
2.62450,28.6873592
2.62500,41.81071873
2.62550,54.32368945
2.62600,68.05743779
2.62650,77.21327002
2.62700,72.63535391
2.62750,55.54446708
2.62800,35.40163617
2.62850,18.92113815
2.62900,4.882195398
2.62950,-7.020386503
2.63000,-12.51388584
2.63050,-8.851552949
2.63100,-1.832081572
2.63150,2.440640136
2.63200,4.271806582
2.63250,5.797778621
2.63300,6.408167436
2.63350,5.492584213
2.63400,5.492584213
2.63450,10.68088914
2.63500,20.7523046
2.63550,32.6548865
2.63600,42.72630195
2.63650,48.83019011
2.63700,47.30421807
2.63750,36.92760821
2.63800,22.27827664
2.63850,10.68088914
2.63900,7.323750659
2.63950,12.20686118
2.64000,21.05749901
2.64050,28.6873592
2.64100,31.12891446
2.64150,27.46658157
2.64200,20.14191578
2.64250,13.42763881
2.64300,8.54452829
2.64350,6.408167436
2.64400,5.492584213
2.64450,5.492584213
2.64500,4.57700099
2.64550,2.440640136
2.64600,-1.221692756
2.64650,-7.020386503
2.64700,-12.51388584
2.64750,-12.81908025
2.64800,-4.578831241
2.64850,7.934139475
2.64900,15.86919407
2.64950,11.29127796
2.65000,-2.13727598
2.65050,-13.12427466
2.65100,-13.12427466
2.65150,-6.10480328
2.65200,-1.832081572
2.65250,-5.494414464
2.65300,-11.29310821
2.65350,-12.51388584
2.65400,-6.715192095
2.65450,1.830251321
2.65500,8.849722698
2.65550,13.42763881
2.65600,15.56399967
2.65650,15.25880526
2.65700,14.95361085
2.65750,18.00555493
2.65800,25.33022071
2.65850,31.12891446
2.65900,29.29774801
2.65950,21.05749901
2.66000,14.34322204
2.66050,14.03802763
2.66100,17.08997171
2.66150,17.39516611
2.66200,16.17438848
2.66250,15.25880526
2.66300,14.34322204
2.66350,10.37569474
2.66400,5.797778621
2.66450,4.271806582
2.66500,3.661417767
2.66550,-1.221692756
2.66600,-11.59830262
2.66650,-20.75413485
2.66700,-26.5528286
2.66750,-33.26710557
2.66800,-42.7281322
2.66850,-50.96838121
2.66900,-53.10474207
2.66950,-49.13721477
2.67000,-39.06579931
2.67050,-21.97491248
2.67100,-3.052859203
2.67150,5.797778621
2.67200,2.745834544
2.67250,-0.9164983488
2.67300,6.408167436
2.67350,18.92113815
2.67400,19.83672137
2.67450,4.57700099
2.67500,-13.12427466
2.67550,-20.75413485
2.67600,-17.09180196
2.67650,-9.461941764
2.67700,-0.9164983488
2.67750,6.713361844
2.67800,11.90166677
2.67850,11.59647237
2.67900,8.54452829
2.67950,7.934139475
2.68000,11.29127796
2.68050,12.51205559
2.68100,7.018556251
2.68150,-3.968442426
2.68200,-15.56582992
2.68250,-26.5528286
2.68300,-38.7606049
2.68350,-51.57877003
2.68400,-57.37746377
2.68450,-51.27357562
2.68500,-39.06579931
2.68550,-28.68918945
2.68600,-21.66971807
2.68650,-13.73466347
2.68700,-4.578831241
2.68750,2.135445728
2.68800,4.57700099
2.68850,3.966612174
2.68900,-0.9164983488
2.68950,-11.90349703
2.69000,-24.41646774
2.69050,-31.43593912
2.69100,-32.04632793
2.69150,-31.74113353
2.69200,-33.87749438
2.69250,-34.7930776
2.69300,-32.96191116
2.69350,-30.8255503
2.69400,-27.77360623
2.69450,-18.00738518
2.69500,-1.221692756
2.69550,10.98608355
2.69600,7.628945067
2.69650,-7.32558091
2.69700,-20.14374603
2.69750,-23.50088452
2.69800,-21.05932926
2.69850,-15.87102433
2.69900,-7.020386503
2.69950,3.356223359
2.70000,8.849722698
2.70050,5.797778621
2.70100,-1.526887164
2.70150,-8.546358541
2.70200,-14.34505229
2.70250,-20.75413485
2.70300,-25.94243978
2.70350,-28.99438386
2.70400,-33.26710557
2.70450,-41.81254898
2.70500,-48.52682595
2.70550,-45.78007628
2.70600,-33.87749438
2.70650,-21.36452366
2.70700,-13.12427466
2.70750,-8.241164134
2.70800,-3.968442426
2.70850,-3.052859203
2.70900,-7.630775318
2.70950,-13.73466347
2.71000,-14.9554411
2.71050,-11.29310821
2.71100,-6.409997687
2.71150,-4.884025649
2.71200,-7.020386503
2.71250,-10.9879138
2.71300,-12.81908025
2.71350,-10.9879138
2.71400,-7.020386503
2.71450,-6.409997687
2.71500,-10.37752499
2.71550,-14.6502467
2.71600,-15.56582992
2.71650,-13.73466347
2.71700,-13.73466347
2.71750,-14.34505229
2.71800,-14.03985788
2.71850,-14.6502467
2.71900,-21.66971807
2.71950,-32.65671675
2.72000,-39.37099372
2.72050,-37.23463287
2.72100,-31.43593912
2.72150,-28.68918945
2.72200,-28.07880063
2.72250,-26.24763419
2.72300,-23.80607893
2.72350,-23.19569011
2.72400,-23.50088452
2.72450,-22.5853013
2.72500,-20.14374603
2.72550,-17.70219077
2.72600,-13.73466347
2.72650,-9.767136172
2.72700,-12.20869143
2.72750,-25.02685656
2.72800,-41.20216017
2.72850,-50.05279799
2.72900,-49.13721477
2.72950,-44.55929865
2.73000,-39.67618813
2.73050,-32.35152234
2.73100,-22.8904957
2.73150,-14.03985788
2.73200,-6.409997687
2.73250,4.57700099
2.73300,19.83672137
2.73350,33.26527531
2.73400,38.14838584
2.73450,34.18085854
2.73500,25.02502631
2.73550,13.42763881
2.73600,3.661417767
2.73650,-2.747664795
2.73700,-7.935969726
2.73750,-15.26063551
2.73800,-23.19569011
2.73850,-26.858023
2.73900,-25.33205096
2.73950,-23.80607893
2.74000,-25.94243978
2.74050,-29.29957827
2.74100,-30.5203559
2.74150,-30.8255503
2.74200,-29.90996708
2.74250,-25.63724537
2.74300,-16.48141314
2.74350,-7.630775318
2.74400,-6.715192095
2.74450,-12.81908025
2.74500,-17.09180196
2.74550,-14.03985788
2.74600,-8.241164134
2.74650,-7.32558091
2.74700,-12.51388584
2.74750,-16.78660755
2.74800,-16.78660755
2.74850,-16.17621873
2.74900,-20.14374603
2.74950,-28.68918945
2.75000,-36.92943846
2.75050,-41.50735457
2.75100,-41.81254898
2.75150,-38.15021609
2.75200,-30.21516149
2.75250,-20.75413485
2.75300,-13.42946906
2.75350,-8.851552949
2.75400,-2.442470387
2.75450,9.154917105
2.75500,21.97308223
2.75550,27.46658157
2.75600,24.41463749
2.75650,17.39516611
2.75700,12.20686118
2.75750,10.98608355
2.75800,12.51205559
2.75850,14.03802763
2.75900,13.73283322
2.75950,10.68088914
2.76000,6.408167436
2.76050,2.745834544
2.76100,-0.0009151256603
2.76150,-1.832081572
2.76200,-3.052859203
2.76250,-2.13727598
2.76300,-1.832081572
2.76350,-7.630775318
2.76400,-20.44894044
2.76450,-35.40346642
2.76500,-43.94890983
2.76550,-43.64371543
2.76600,-38.15021609
2.76650,-32.35152234
2.76700,-28.68918945
2.76750,-25.63724537
2.76800,-20.14374603
2.76850,-10.37752499
2.76900,0.9146680974
2.76950,12.20686118
2.77000,20.14191578
2.77050,25.02502631
2.77100,27.16138716
2.77150,26.55099834
2.77200,25.33022071
2.77250,25.63541512
2.77300,26.85619275
2.77350,26.55099834
2.77400,23.49905427
2.77450,18.92113815
2.77500,15.25880526
2.77550,13.12244441
2.77600,11.90166677
2.77650,11.29127796
2.77700,9.460111513
2.77750,4.57700099
2.77800,-1.526887164
2.77850,-4.884025649
2.77900,-1.832081572
2.77950,4.271806582
2.78000,9.460111513
2.78050,11.59647237
2.78100,11.29127796
2.78150,7.018556251
2.78200,-4.578831241
2.78250,-25.63724537
2.78300,-53.40993647
2.78350,-79.65665554
2.78400,-91.25404303
2.78450,-81.18262757
2.78500,-57.98785259
2.78550,-39.37099372
2.78600,-31.43593912
2.78650,-21.97491248
2.78700,-0.3061095334
2.78750,27.77177598
2.78800,49.44057892
2.78850,62.56393845
2.78900,71.41457628
2.78950,73.55093713
2.79000,61.64835523
2.79050,39.06396906
2.79100,18.31074934
2.79150,5.797778621
2.79200,-1.832081572
2.79250,-8.546358541
2.79300,-13.42946906
2.79350,-18.617774
2.79400,-29.60477267
2.79450,-43.33852102
2.79500,-49.13721477
2.79550,-43.94890983
2.79600,-36.62424405
2.79650,-33.87749438
2.79700,-31.13074471
2.79750,-20.44894044
2.79800,-2.747664795
2.79850,15.56399967
2.79900,30.51852564
2.79950,38.14838584
2.80000,34.18085854
2.80050,20.7523046
2.80100,7.628945067
2.80150,4.271806582
2.80200,11.90166677
2.80250,25.02502631
2.80300,37.23280261
2.80350,44.5574684
2.80400,44.86266281
2.80450,37.84319143
2.80500,25.63541512
2.80550,12.20686118
2.80600,-0.0009151256603
2.80650,-6.409997687
2.80700,-5.799608872
2.80750,-0.9164983488
2.80800,1.830251321
2.80850,1.830251321
2.80900,2.135445728
2.80950,3.966612174
2.81000,7.323750659
2.81050,11.29127796
2.81100,16.17438848
2.81150,19.22633256
2.81200,17.08997171
2.81250,10.37569474
2.81300,4.882195398
2.81350,1.219862505
2.81400,-5.494414464
2.81450,-18.31257959
2.81500,-30.5203559
2.81550,-32.65671675
2.81600,-24.41646774
2.81650,-11.90349703
2.81700,-2.13727598
2.81750,2.745834544
2.81800,5.187389805
2.81850,7.018556251
2.81900,8.54452829
2.81950,8.239333882
2.82000,3.966612174
2.82050,-1.221692756
2.82100,-2.747664795
2.82150,-0.0009151256603
2.82200,1.830251321
2.82250,-1.832081572
2.82300,-8.241164134
2.82350,-9.461941764
2.82400,-4.578831241
2.82450,0.9146680974
2.82500,5.187389805
2.82550,10.98608355
2.82600,18.61594374
2.82650,21.97308223
2.82700,15.56399967
2.82750,6.408167436
2.82800,3.356223359
2.82850,6.102973028
2.82900,6.102973028
2.82950,-0.0009151256603
2.83000,-6.409997687
2.83050,-9.767136172
2.83100,-12.20869143
2.83150,-15.87102433
2.83200,-19.53335722
2.83250,-20.75413485
2.83300,-19.83855163
2.83350,-16.48141314
2.83400,-10.07233058
2.83450,-1.221692756
2.83500,6.713361844
2.83550,13.73283322
2.83600,20.44711019
2.83650,24.7198319
2.83700,24.7198319
2.83750,20.7523046
2.83800,17.70036052
2.83850,17.70036052
2.83900,18.31074934
2.83950,20.14191578
2.84000,24.41463749
2.84050,28.99255361
2.84100,27.16138716
2.84150,17.70036052
2.84200,5.187389805
2.84250,-3.968442426
2.84300,-10.07233058
2.84350,-15.87102433
2.84400,-22.5853013
2.84450,-28.99438386
2.84500,-32.04632793
2.84550,-30.5203559
2.84600,-25.63724537
2.84650,-19.53335722
2.84700,-14.9554411
2.84750,-12.20869143
2.84800,-10.9879138
2.84850,-10.07233058
2.84900,-6.715192095
2.84950,1.525056913
2.85000,10.98608355
2.85050,14.95361085
2.85100,13.73283322
2.85150,14.95361085
2.85200,22.27827664
2.85250,29.90813683
2.85300,31.73930328
2.85350,31.12891446
2.85400,34.79124735
2.85450,39.97955228
2.85500,40.89513551
2.85550,35.09644176
2.85600,24.10944308
2.85650,9.460111513
2.85700,-4.578831241
2.85750,-10.37752499
2.85800,-4.578831241
2.85850,5.187389805
2.85900,10.07050033
2.85950,13.42763881
2.86000,24.10944308
2.86050,38.75877465
2.86100,44.25227399
2.86150,36.01202498
2.86200,23.19385986
2.86250,17.70036052
2.86300,19.53152697
2.86350,21.66788782
2.86400,20.7523046
2.86450,15.56399967
2.86500,7.628945067
2.86550,-0.3061095334
2.86600,-7.020386503
2.86650,-12.81908025
2.86700,-20.44894044
2.86750,-25.94243978
2.86800,-23.80607893
2.86850,-15.56582992
2.86900,-10.07233058
2.86950,-11.90349703
2.87000,-13.73466347
2.87050,-7.32558091
2.87100,3.356223359
2.87150,8.239333882
2.87200,4.271806582
2.87250,-1.526887164
2.87300,-3.663248018
2.87350,-2.747664795
2.87400,-0.3061095334
2.87450,2.440640136
2.87500,4.882195398
2.87550,4.882195398
2.87600,1.830251321
2.87650,-2.442470387
2.87700,-6.10480328
2.87750,-7.020386503
2.87800,-4.578831241
2.87850,0.6094736897
2.87900,5.492584213
2.87950,7.323750659
2.88000,7.018556251
2.88050,7.628945067
2.88100,8.849722698
2.88150,7.018556251
2.88200,1.525056913
2.88250,-3.052859203
2.88300,-3.968442426
2.88350,-1.832081572
2.88400,-0.0009151256603
2.88450,2.135445728
2.88500,9.460111513
2.88550,21.97308223
2.88600,31.12891446
2.88650,25.63541512
2.88700,5.187389805
2.88750,-17.09180196
2.88800,-27.16321741
2.88850,-22.28010689
2.88900,-10.07233058
2.88950,1.525056913
2.89000,10.07050033
2.89050,10.07050033
2.89100,-3.052859203
2.89150,-28.07880063
2.89200,-51.57877003
2.89250,-61.65018548
2.89300,-59.81901904
2.89350,-54.3255197
2.89400,-48.83202036
2.89450,-38.15021609
2.89500,-19.22816281
2.89550,1.525056913
2.89600,15.25880526
2.89650,20.7523046
2.89700,24.41463749
2.89750,32.96008091
2.89800,44.5574684
2.89850,51.57693978
2.89900,48.83019011
2.89950,39.06396906
2.90000,29.60294242
2.90050,24.10944308
2.90100,21.05749901
2.90150,18.31074934
2.90200,17.70036052
2.90250,20.14191578
2.90300,21.36269341
2.90350,17.08997171
2.90400,8.54452829
2.90450,3.661417767
2.90500,4.271806582
2.90550,5.797778621
2.90600,3.966612174
2.90650,1.219862505
2.90700,3.051028951
2.90750,10.68088914
2.90800,20.14191578
2.90850,27.46658157
2.90900,26.24580394
2.90950,11.59647237
2.91000,-15.56582992
2.91050,-43.33852102
2.91100,-56.76707496
2.91150,-53.40993647
2.91200,-43.03332661
2.91250,-34.4878832
2.91300,-28.68918945
2.91350,-24.41646774
2.91400,-22.28010689
2.91450,-21.36452366
2.91500,-17.09180196
2.91550,-7.020386503
2.91600,2.440640136
2.91650,5.492584213
2.91700,4.271806582
2.91750,5.797778621
2.91800,11.59647237
2.91850,15.56399967
2.91900,15.86919407
2.91950,15.56399967
2.92000,17.70036052
2.92050,19.22633256
2.92100,17.39516611
2.92150,13.42763881
2.92200,9.765305921
2.92250,6.713361844
2.92300,3.661417767
2.92350,1.219862505
2.92400,-0.9164983488
2.92450,-3.968442426
2.92500,-7.32558091
2.92550,-9.461941764
2.92600,-10.6827194
2.92650,-13.12427466
2.92700,-16.78660755
2.92750,-17.39699636
2.92800,-13.42946906
2.92850,-9.156747357
2.92900,-8.546358541
