type,name,time_units,begin_time,frequency,count,units
signal,"Noraxon Ultium-RT BRACHIORAD.","s",0.00000,2000,51280,"uV"

time,value
0.00000,3.979576455
0.00050,4.58996527
0.00100,4.284770862
0.00150,2.758798824
0.00200,0.6224379699
0.00250,-3.955478146
0.00300,-11.28014393
0.00350,-16.46844886
0.00400,-14.63728242
0.00450,-8.228199853
0.00500,-3.650283738
0.00550,-1.819117292
0.00600,0.01204915453
0.00650,2.453604416
0.00700,3.674382047
0.00750,3.063993232
0.00800,3.674382047
0.00850,5.505548493
0.00900,5.200354085
0.00950,3.369187639
0.01000,5.200354085
0.01050,10.99904783
0.01100,15.57696395
0.01150,14.05099191
0.01200,7.641909347
0.01250,0.3172435622
0.01300,-6.091839
0.01350,-11.58533834
0.01400,-13.41650478
0.01450,-11.89053275
0.01500,-10.0593663
0.01550,-9.448977484
0.01600,-5.786644592
0.01650,1.538021193
0.01700,8.55749257
0.01750,10.38865902
0.01800,9.778270201
0.01850,9.778270201
0.01900,7.336714939
0.01950,1.843215601
0.02000,0.01204915453
0.02050,4.58996527
0.02100,10.08346461
0.02150,9.167881386
0.02200,9.778270201
0.02250,22.29124092
0.02300,40.29771097
0.02350,45.4860159
0.02400,33.583434
0.02450,20.46007447
0.02500,18.62890802
0.02550,23.51201855
0.02600,26.56396262
0.02650,26.86915703
0.02700,26.86915703
0.02750,22.29124092
0.02800,10.38865902
0.02850,-3.650283738
0.02900,-14.63728242
0.02950,-23.48792024
0.03000,-32.64375247
0.03050,-36.91647418
0.03100,-32.64375247
0.03150,-24.40350346
0.03200,-19.82558735
0.03250,-17.68922649
0.03300,-11.28014393
0.03350,-0.2931452532
0.03400,12.52501987
0.03450,25.6483794
0.03500,36.33018367
0.03550,40.60290538
0.03600,40.60290538
0.03650,45.18082149
0.03700,57.3885978
0.03750,64.71326359
0.03800,55.55743136
0.03850,36.02498926
0.03900,22.59643532
0.03950,18.93410243
0.04000,16.18735276
0.04050,10.69385342
0.04100,7.031520532
0.04150,5.505548493
0.04200,-0.5983396609
0.04250,-10.36456071
0.04300,-14.33208801
0.04350,-10.36456071
0.04400,-9.448977484
0.04450,-18.91000412
0.04500,-31.72816925
0.04550,-36.30608536
0.04600,-32.33855806
0.04650,-28.67622517
0.04700,-29.8970028
0.04750,-32.03336365
0.04800,-29.8970028
0.04850,-24.40350346
0.04900,-18.60480972
0.04950,-14.33208801
0.05000,-12.19572715
0.05050,-10.36456071
0.05100,-8.533394261
0.05150,-7.923005446
0.05200,-10.66975512
0.05250,-16.16325445
0.05300,-20.74117057
0.05350,-20.43597616
0.05400,-17.38403208
0.05450,-17.07883768
0.05500,-23.79311465
0.05550,-36.00089095
0.05600,-45.767112
0.05650,-49.12425049
0.05700,-48.81905608
0.05750,-51.26061134
0.05800,-55.53333305
0.05850,-57.05930509
0.05900,-53.39697219
0.05950,-45.46191759
0.06000,-36.61127977
0.06050,-32.03336365
0.06100,-37.22166859
0.06150,-49.7346393
0.06200,-55.83852745
0.06250,-45.767112
0.06300,-27.45544754
0.06350,-17.07883768
0.06400,-16.77364327
0.06450,-14.63728242
0.06500,-6.397033407
0.06550,-1.513922884
0.06600,-4.260672553
0.06650,-4.260672553
0.06700,7.947103755
0.06750,23.51201855
0.06800,26.56396262
0.06850,17.7133248
0.06900,10.99904783
0.06950,13.13540869
0.07000,18.32371362
0.07050,20.15488006
0.07100,19.84968566
0.07150,22.59643532
0.07200,26.86915703
0.07250,27.17435144
0.07300,21.07046329
0.07350,12.21982546
0.07400,5.200354085
0.07450,0.3172435622
0.07500,-4.565866961
0.07550,-10.0593663
0.07600,-11.89053275
0.07650,-8.228199853
0.07700,-4.565866961
0.07750,-5.786644592
0.07800,-9.754171892
0.07850,-9.448977484
0.07900,-3.955478146
0.07950,1.232826785
0.08000,2.758798824
0.08050,1.538021193
0.08100,0.9276323776
0.08150,3.369187639
0.08200,10.38865902
0.08250,20.76526888
0.08300,29.31071229
0.08350,31.44707315
0.08400,29.00551789
0.08450,26.86915703
0.08500,27.47954585
0.08550,28.70032348
0.08600,30.22629552
0.08650,32.97304519
0.08700,35.10940604
0.08750,33.583434
0.08800,30.53148992
0.08850,31.14187874
0.08900,36.02498926
0.08950,38.16135012
0.09000,32.66785078
0.09050,21.6808521
0.09100,11.60943665
0.09150,4.284770862
0.09200,-3.039894922
0.09250,-12.19572715
0.09300,-20.13078175
0.09350,-24.40350346
0.09400,-26.53986432
0.09450,-28.67622517
0.09500,-31.11778043
0.09550,-30.81258602
0.09600,-25.9294755
0.09650,-16.77364327
0.09700,-7.617811038
0.09750,-0.5983396609
0.09800,5.200354085
0.09850,10.69385342
0.09900,15.27176954
0.09950,18.01851921
0.10000,18.93410243
0.10050,18.32371362
0.10100,13.44060309
0.10150,1.232826785
0.10200,-11.89053275
0.10250,-17.9944209
0.10300,-14.0268936
0.10350,-7.617811038
0.10400,-6.397033407
0.10450,-10.36456071
0.10500,-13.72169919
0.10550,-15.24767123
0.10600,-15.55286564
0.10650,-15.85806005
0.10700,-17.07883768
0.10750,-20.74117057
0.10800,-25.9294755
0.10850,-26.53986432
0.10900,-19.52039294
0.10950,-10.0593663
0.11000,-6.397033407
0.11050,-6.091839
0.11100,-1.819117292
0.11150,6.726326124
0.11200,14.35618632
0.11250,17.7133248
0.11300,21.37565769
0.11350,27.17435144
0.11400,29.6159067
0.11450,24.73279618
0.11500,16.79774158
0.11550,11.60943665
0.11600,8.862686978
0.11650,5.505548493
0.11700,2.148410008
0.11750,0.6224379699
0.11800,0.9276323776
0.11850,0.6224379699
0.11900,0.01204915453
0.11950,0.3172435622
0.12000,2.148410008
0.12050,3.674382047
0.12100,4.895159678
0.12150,6.726326124
0.12200,8.252298162
0.12250,7.336714939
0.12300,4.284770862
0.12350,2.148410008
0.12400,0.3172435622
0.12450,-3.039894922
0.12500,-8.838588669
0.12550,-12.80611597
0.12600,-13.72169919
0.12650,-12.19572715
0.12700,-9.143783077
0.12750,-4.260672553
0.12800,0.3172435622
0.12850,1.232826785
0.12900,-3.34508933
0.12950,-9.448977484
0.13000,-10.36456071
0.13050,-6.397033407
0.13100,-4.565866961
0.13150,-7.923005446
0.13200,-12.50092156
0.13250,-11.28014393
0.13300,-3.34508933
0.13350,4.895159678
0.13400,9.473075793
0.13450,11.91463105
0.13500,17.10293599
0.13550,27.17435144
0.13600,38.46654452
0.13650,46.09640472
0.13700,47.62237676
0.13750,44.26523827
0.13800,38.46654452
0.13850,32.97304519
0.13900,30.53148992
0.13950,33.583434
0.14000,39.68732216
0.14050,45.4860159
0.14100,47.31718235
0.14150,44.26523827
0.14200,38.46654452
0.14250,34.80421163
0.14300,40.60290538
0.14350,57.3885978
0.14400,77.2262343
0.14450,90.04439943
0.14500,90.65478824
0.14550,79.97298397
0.14600,60.13534747
0.14650,32.97304519
0.14700,6.726326124
0.14750,-9.143783077
0.14800,-13.41650478
0.14850,-12.50092156
0.14900,-14.33208801
0.14950,-21.9619482
0.15000,-32.33855806
0.15050,-42.71516792
0.15100,-50.65022252
0.15150,-57.05930509
0.15200,-65.6047485
0.15250,-75.67616396
0.15300,-82.08524652
0.15350,-80.55927448
0.15400,-76.28655277
0.15450,-77.5073304
0.15500,-81.4748577
0.15550,-76.89694159
0.15600,-62.55280442
0.15650,-49.42944489
0.15700,-47.29308404
0.15750,-52.78658338
0.15800,-55.83852745
0.15850,-50.95541693
0.15900,-39.96841825
0.15950,-28.06583635
0.16000,-20.74117057
0.16050,-21.35155938
0.16100,-27.45544754
0.16150,-32.03336365
0.16200,-31.11778043
0.16250,-26.23466991
0.16300,-18.91000412
0.16350,-10.0593663
0.16400,-1.208728476
0.16450,5.200354085
0.16500,10.99904783
0.16550,19.23929684
0.16600,28.70032348
0.16650,35.10940604
0.16700,39.68732216
0.16750,47.31718235
0.16800,56.47301458
0.16850,58.91456984
0.16900,52.81068169
0.16950,43.34965505
0.17000,36.02498926
0.17050,29.92110111
0.17100,23.51201855
0.17150,17.40813039
0.17200,9.167881386
0.17250,-7.923005446
0.17300,-34.78011332
0.17350,-59.80605475
0.17400,-71.70863666
0.17450,-71.70863666
0.17500,-68.35149817
0.17550,-64.99435969
0.17600,-59.50086035
0.17650,-51.87100015
0.17700,-46.98788963
0.17750,-44.85152878
0.17800,-42.40997352
0.17850,-37.22166859
0.17900,-34.16972451
0.17950,-38.74764062
0.18000,-50.03983371
0.18050,-60.41644357
0.18100,-62.55280442
0.18150,-54.92294423
0.18200,-43.93594555
0.18250,-36.61127977
0.18300,-33.25414128
0.18350,-28.06583635
0.18400,-17.9944209
0.18450,-7.007422223
0.18500,1.843215601
0.18550,12.52501987
0.18600,28.70032348
0.18650,48.53795998
0.18700,64.71326359
0.18750,74.78467904
0.18800,80.58337279
0.18850,84.24570568
0.18900,83.02492805
0.18950,77.53142871
0.19000,70.81715174
0.19050,63.79768036
0.19100,53.4210705
0.19150,39.68732216
0.19200,28.39512907
0.19250,23.81721296
0.19300,22.59643532
0.19350,18.62890802
0.19400,10.08346461
0.19450,-0.2931452532
0.19500,-11.28014393
0.19550,-19.52039294
0.19600,-20.74117057
0.19650,-16.16325445
0.19700,-11.58533834
0.19750,-8.838588669
0.19800,-1.208728476
0.19850,14.35618632
0.19900,29.00551789
0.19950,31.75226756
0.20000,25.6483794
0.20050,23.20682414
0.20100,27.17435144
0.20150,31.14187874
0.20200,31.44707315
0.20250,33.88862841
0.20300,40.29771097
0.20350,45.4860159
0.20400,47.31718235
0.20450,52.81068169
0.20500,66.54443003
0.20550,79.66778956
0.20600,80.58337279
0.20650,69.2911797
0.20700,54.33665373
0.20750,38.46654452
0.20800,20.46007447
0.20850,1.843215601
0.20900,-13.11131038
0.20950,-25.9294755
0.21000,-42.71516792
0.21050,-62.85799883
0.21100,-77.5073304
0.21150,-81.4748577
0.21200,-79.94888566
0.21250,-79.64369126
0.21300,-80.25408007
0.21350,-76.89694159
0.21400,-72.01383106
0.21450,-69.5722758
0.21500,-67.74110936
0.21550,-61.33202679
0.21600,-49.12425049
0.21650,-37.52686299
0.21700,-30.20219721
0.21750,-23.48792024
0.21800,-15.24767123
0.21850,-9.143783077
0.21900,-8.838588669
0.21950,-9.754171892
0.22000,-5.481450184
0.22050,4.284770862
0.22100,14.35618632
0.22150,18.93410243
0.22200,20.46007447
0.22250,23.51201855
0.22300,29.00551789
0.22350,33.27823959
0.22400,33.27823959
0.22450,29.6159067
0.22500,25.95357381
0.22550,24.42760177
0.22600,25.6483794
0.22650,28.39512907
0.22700,30.53148992
0.22750,29.00551789
0.22800,22.90162973
0.22850,15.88215836
0.22900,15.88215836
0.22950,26.56396262
0.23000,41.21329419
0.23050,50.97951524
0.23100,55.25223695
0.23150,61.96651392
0.23200,75.39506786
0.23250,89.43401061
0.23300,96.14828758
0.23350,94.62231554
0.23400,89.73920502
0.23450,83.33012246
0.23500,74.47948463
0.23550,64.10287477
0.23600,56.77820899
0.23650,55.25223695
0.23700,56.77820899
0.23750,56.77820899
0.23800,53.4210705
0.23850,47.01198794
0.23900,37.24576689
0.23950,21.98604651
0.24000,1.843215601
0.24050,-18.91000412
0.24100,-39.35802944
0.24150,-61.33202679
0.24200,-85.13719059
0.24250,-108.0267712
0.24300,-125.7280468
0.24350,-138.2410175
0.24400,-144.9552945
0.24450,-145.8708777
0.24500,-140.3773784
0.24550,-130.9163517
0.24600,-119.9293531
0.24650,-107.1111879
0.24700,-90.32549553
0.24750,-69.87747021
0.24800,-49.42944489
0.24850,-33.25414128
0.24900,-23.48792024
0.24950,-18.60480972
0.25000,-13.72169919
0.25050,-6.397033407
0.25100,0.01204915453
0.25150,0.6224379699
0.25200,-3.039894922
0.25250,-4.871061369
0.25300,0.01204915453
0.25350,7.031520532
0.25400,10.69385342
0.25450,10.99904783
0.25500,10.99904783
0.25550,11.91463105
0.25600,12.52501987
0.25650,14.35618632
0.25700,19.54449125
0.25750,27.17435144
0.25800,36.02498926
0.25850,47.31718235
0.25900,61.05093069
0.25950,71.73273496
0.26000,75.08987345
0.26050,73.56390141
0.26100,72.34312378
0.26150,70.81715174
0.26200,64.71326359
0.26250,52.50548728
0.26300,39.07693334
0.26350,28.08993466
0.26400,18.62890802
0.26450,9.473075793
0.26500,0.01204915453
0.26550,-10.36456071
0.26600,-22.87753142
0.26650,-36.61127977
0.26700,-46.37750082
0.26750,-49.12425049
0.26800,-47.59827845
0.26850,-46.68269522
0.26900,-47.29308404
0.26950,-46.37750082
0.27000,-41.7995847
0.27050,-36.00089095
0.27100,-32.64375247
0.27150,-32.94894688
0.27200,-35.08530773
0.27250,-36.61127977
0.27300,-36.00089095
0.27350,-29.59180839
0.27400,-15.55286564
0.27450,1.843215601
0.27500,12.52501987
0.27550,10.38865902
0.27600,1.232826785
0.27650,-3.039894922
0.27700,-1.208728476
0.27750,0.6224379699
0.27800,0.01204915453
0.27850,0.6224379699
0.27900,8.862686978
0.27950,21.6808521
0.28000,31.75226756
0.28050,36.94057249
0.28100,39.68732216
0.28150,41.21329419
0.28200,41.21329419
0.28250,39.68732216
0.28300,37.24576689
0.28350,34.49901722
0.28400,32.05746196
0.28450,33.583434
0.28500,40.90809979
0.28550,51.28470965
0.28600,58.60937543
0.28650,60.44054188
0.28700,57.99898662
0.28750,52.81068169
0.28800,46.70679353
0.28850,41.82368301
0.28900,37.5509613
0.28950,31.14187874
0.29000,19.54449125
0.29050,5.505548493
0.29100,-6.397033407
0.29150,-15.24767123
0.29200,-22.57233702
0.29250,-30.81258602
0.29300,-40.27361266
0.29350,-50.34502812
0.29400,-59.50086035
0.29450,-64.07877646
0.29500,-62.55280442
0.29550,-57.05930509
0.29600,-51.56580575
0.29650,-47.29308404
0.29700,-43.63075115
0.29750,-39.66322385
0.29800,-34.47491892
0.29850,-26.23466991
0.29900,-14.94247682
0.29950,-5.176255776
0.30000,0.01204915453
0.30050,3.674382047
0.30100,7.641909347
0.30150,9.778270201
0.30200,7.947103755
0.30250,4.895159678
0.30300,5.200354085
0.30350,7.641909347
0.30400,6.115937309
0.30450,0.6224379699
0.30500,-3.039894922
0.30550,-3.650283738
0.30600,-4.260672553
0.30650,-5.786644592
0.30700,-5.786644592
0.30750,-2.734700515
0.30800,1.232826785
0.30850,6.115937309
0.30900,14.05099191
0.30950,25.6483794
0.31000,36.94057249
0.31050,43.96004386
0.31100,47.62237676
0.31150,51.58990406
0.31200,57.08340339
0.31250,61.3561251
0.31300,62.57690273
0.31350,62.57690273
0.31400,65.3236524
0.31450,70.81715174
0.31500,75.08987345
0.31550,75.08987345
0.31600,71.42754056
0.31650,65.93404122
0.31700,57.69379221
0.31750,45.18082149
0.31800,31.14187874
0.31850,18.32371362
0.31900,7.641909347
0.31950,-4.260672553
0.32000,-18.29961531
0.32050,-33.8645301
0.32100,-51.56580575
0.32150,-73.5398031
0.32200,-95.51380046
0.32250,-108.0267712
0.32300,-107.1111879
0.32350,-95.81899486
0.32400,-79.03330244
0.32450,-59.50086035
0.32500,-41.18919589
0.32550,-30.20219721
0.32600,-28.06583635
0.32650,-27.76064195
0.32700,-24.40350346
0.32750,-20.74117057
0.32800,-21.65675379
0.32850,-24.70869787
0.32900,-22.87753142
0.32950,-14.33208801
0.33000,-2.124311699
0.33050,9.473075793
0.33100,19.84968566
0.33150,27.17435144
0.33200,29.92110111
0.33250,29.00551789
0.33300,28.08993466
0.33350,28.08993466
0.33400,27.47954585
0.33450,23.51201855
0.33500,15.57696395
0.33550,3.063993232
0.33600,-11.28014393
0.33650,-24.70869787
0.33700,-33.55933569
0.33750,-39.66322385
0.33800,-44.24113996
0.33850,-45.767112
0.33900,-41.7995847
0.33950,-35.69569655
0.34000,-33.25414128
0.34050,-35.69569655
0.34100,-39.05283503
0.34150,-39.05283503
0.34200,-37.8320574
0.34250,-39.35802944
0.34300,-44.54633437
0.34350,-50.03983371
0.34400,-49.7346393
0.34450,-41.18919589
0.34500,-26.23466991
0.34550,-11.89053275
0.34600,-4.871061369
0.34650,-3.955478146
0.34700,-3.650283738
0.34750,-0.9035340686
0.34800,4.58996527
0.34850,11.30424224
0.34900,18.62890802
0.34950,25.34318499
0.35000,29.31071229
0.35050,30.22629552
0.35100,29.92110111
0.35150,29.6159067
0.35200,27.17435144
0.35250,20.46007447
0.35300,11.91463105
0.35350,5.810742901
0.35400,4.284770862
0.35450,4.895159678
0.35500,3.674382047
0.35550,-0.5983396609
0.35600,-7.31261663
0.35650,-12.19572715
0.35700,-14.0268936
0.35750,-15.24767123
0.35800,-17.9944209
0.35850,-21.04636498
0.35900,-21.35155938
0.35950,-19.52039294
0.36000,-17.38403208
0.36050,-16.77364327
0.36100,-15.24767123
0.36150,-11.89053275
0.36200,-7.923005446
0.36250,-3.955478146
0.36300,0.3172435622
0.36350,4.895159678
0.36400,7.947103755
0.36450,9.778270201
0.36500,14.05099191
0.36550,21.07046329
0.36600,26.86915703
0.36650,29.00551789
0.36700,29.31071229
0.36750,32.66785078
0.36800,38.16135012
0.36850,43.34965505
0.36900,46.70679353
0.36950,49.75873761
0.37000,52.50548728
0.37050,52.20029287
0.37100,47.62237676
0.37150,40.29771097
0.37200,33.88862841
0.37250,28.70032348
0.37300,22.59643532
0.37350,16.49254717
0.37400,14.66138072
0.37450,18.93410243
0.37500,25.95357381
0.37550,30.22629552
0.37600,32.05746196
0.37650,34.80421163
0.37700,39.68732216
0.37750,43.34965505
0.37800,41.82368301
0.37850,36.63537808
0.37900,30.22629552
0.37950,21.6808521
0.38000,8.252298162
0.38050,-6.702227815
0.38100,-15.85806005
0.38150,-16.16325445
0.38200,-14.0268936
0.38250,-17.9944209
0.38300,-30.50739162
0.38350,-44.24113996
0.38400,-52.48138897
0.38450,-54.61774982
0.38500,-54.92294423
0.38550,-57.05930509
0.38600,-60.72163798
0.38650,-63.16319324
0.38700,-60.41644357
0.38750,-51.56580575
0.38800,-38.13725181
0.38850,-23.18272583
0.38900,-7.617811038
0.38950,7.336714939
0.39000,19.54449125
0.39050,22.59643532
0.39100,16.18735276
0.39150,7.031520532
0.39200,3.674382047
0.39250,7.031520532
0.39300,11.60943665
0.39350,10.38865902
0.39400,1.843215601
0.39450,-9.143783077
0.39500,-15.85806005
0.39550,-13.72169919
0.39600,-9.754171892
0.39650,-14.63728242
0.39700,-30.20219721
0.39750,-43.63075115
0.39800,-43.93594555
0.39850,-34.16972451
0.39900,-23.48792024
0.39950,-13.72169919
0.40000,0.9276323776
0.40050,19.84968566
0.40100,37.24576689
0.40150,53.11587609
0.40200,69.59637411
0.40250,84.24570568
0.40300,89.43401061
0.40350,86.99245535
0.40400,85.77167772
0.40450,89.43401061
0.40500,94.62231554
0.40550,97.67425962
0.40600,98.89503725
0.40650,94.01192673
0.40700,78.14181753
0.40750,54.94704254
0.40800,36.94057249
0.40850,27.78474026
0.40900,19.23929684
0.40950,5.505548493
0.41000,-7.617811038
0.41050,-16.77364327
0.41100,-28.67622517
0.41150,-50.03983371
0.41200,-75.98135836
0.41250,-95.81899486
0.41300,-107.1111879
0.41350,-113.8254649
0.41400,-119.9293531
0.41450,-125.117658
0.41500,-131.5267406
0.41550,-139.7669896
0.41600,-145.5656833
0.41650,-144.9552945
0.41700,-138.2410175
0.41750,-129.6955741
0.41800,-120.2345475
0.41850,-108.9423544
0.41900,-96.73457809
0.41950,-84.52680178
0.42000,-72.01383106
0.42050,-58.58527712
0.42100,-45.46191759
0.42150,-34.78011332
0.42200,-24.70869787
0.42250,-14.0268936
0.42300,-4.260672553
0.42350,2.453604416
0.42400,7.947103755
0.42450,15.27176954
0.42500,21.98604651
0.42550,24.42760177
0.42600,21.98604651
0.42650,18.62890802
0.42700,18.62890802
0.42750,22.29124092
0.42800,26.86915703
0.42850,29.6159067
0.42900,29.92110111
0.42950,28.39512907
0.43000,26.86915703
0.43050,25.6483794
0.43100,25.34318499
0.43150,25.95357381
0.43200,28.08993466
0.43250,29.92110111
0.43300,28.39512907
0.43350,24.42760177
0.43400,22.59643532
0.43450,24.73279618
0.43500,27.78474026
0.43550,29.6159067
0.43600,29.92110111
0.43650,29.31071229
0.43700,29.00551789
0.43750,30.22629552
0.43800,31.75226756
0.43850,29.6159067
0.43900,20.15488006
0.43950,6.115937309
0.44000,-3.955478146
0.44050,-5.176255776
0.44100,2.453604416
0.44150,14.66138072
0.44200,24.73279618
0.44250,28.08993466
0.44300,25.6483794
0.44350,22.59643532
0.44400,22.29124092
0.44450,19.84968566
0.44500,11.30424224
0.44550,1.232826785
0.44600,-1.513922884
0.44650,0.01204915453
0.44700,-2.429506107
0.44750,-10.97494952
0.44800,-14.33208801
0.44850,-3.955478146
0.44900,15.27176954
0.44950,31.75226756
0.45000,38.46654452
0.45050,37.5509613
0.45100,33.27823959
0.45150,30.53148992
0.45200,31.14187874
0.45250,31.75226756
0.45300,27.17435144
0.45350,15.57696395
0.45400,3.369187639
0.45450,-4.260672553
0.45500,-6.702227815
0.45550,-6.397033407
0.45600,-5.481450184
0.45650,-3.650283738
0.45700,-1.819117292
0.45750,0.01204915453
0.45800,2.453604416
0.45850,6.115937309
0.45900,10.08346461
0.45950,13.7457975
0.46000,15.57696395
0.46050,15.27176954
0.46100,13.13540869
0.46150,12.21982546
0.46200,14.66138072
0.46250,20.46007447
0.46300,28.70032348
0.46350,38.16135012
0.46400,47.01198794
0.46450,53.11587609
0.46500,56.16782017
0.46550,57.08340339
0.46600,55.86262576
0.46650,52.50548728
0.46700,50.67432083
0.46750,54.03145932
0.46800,59.83015306
0.46850,59.83015306
0.46900,53.11587609
0.46950,47.62237676
0.47000,47.01198794
0.47050,44.26523827
0.47100,31.75226756
0.47150,15.88215836
0.47200,8.252298162
0.47250,9.473075793
0.47300,8.862686978
0.47350,-0.9035340686
0.47400,-15.24767123
0.47450,-25.01389228
0.47500,-25.01389228
0.47550,-18.29961531
0.47600,-10.36456071
0.47650,-5.786644592
0.47700,-6.091839
0.47750,-9.448977484
0.47800,-14.0268936
0.47850,-18.91000412
0.47900,-24.09830905
0.47950,-29.59180839
0.48000,-35.69569655
0.48050,-44.24113996
0.48100,-55.22813864
0.48150,-67.13072054
0.48200,-79.64369126
0.48250,-92.76705079
0.48300,-104.9748271
0.48350,-113.8254649
0.48400,-118.0981866
0.48450,-118.403381
0.48500,-112.2994929
0.48550,-98.56574453
0.48600,-80.55927448
0.48650,-67.13072054
0.48700,-60.41644357
0.48750,-54.00736101
0.48800,-41.49439029
0.48850,-24.40350346
0.48900,-9.143783077
0.48950,0.9276323776
0.49000,8.252298162
0.49050,13.44060309
0.49100,17.10293599
0.49150,19.84968566
0.49200,22.29124092
0.49250,24.12240736
0.49300,24.73279618
0.49350,23.51201855
0.49400,22.59643532
0.49450,21.6808521
0.49500,21.07046329
0.49550,20.46007447
0.49600,19.23929684
0.49650,17.7133248
0.49700,16.18735276
0.49750,14.96657513
0.49800,14.05099191
0.49850,14.05099191
0.49900,14.66138072
0.49950,14.96657513
0.50000,13.7457975
0.50050,9.778270201
0.50100,3.674382047
0.50150,-2.124311699
0.50200,-5.786644592
0.50250,-7.007422223
0.50300,-7.923005446
0.50350,-9.143783077
0.50400,-9.448977484
0.50450,-7.923005446
0.50500,-6.397033407
0.50550,-7.007422223
0.50600,-8.533394261
0.50650,-7.31261663
0.50700,-2.734700515
0.50750,3.063993232
0.50800,10.69385342
0.50850,21.07046329
0.50900,31.44707315
0.50950,35.41460045
0.51000,32.97304519
0.51050,29.6159067
0.51100,28.08993466
0.51150,26.56396262
0.51200,25.03799059
0.51250,25.95357381
0.51300,29.6159067
0.51350,31.44707315
0.51400,31.75226756
0.51450,36.63537808
0.51500,47.01198794
0.51550,54.33665373
0.51600,53.11587609
0.51650,46.40159913
0.51700,39.68732216
0.51750,31.14187874
0.51800,19.54449125
0.51850,8.862686978
0.51900,0.01204915453
0.51950,-11.58533834
0.52000,-26.23466991
0.52050,-35.69569655
0.52100,-36.30608536
0.52150,-35.69569655
0.52200,-40.57880707
0.52250,-46.07230641
0.52300,-42.40997352
0.52350,-30.50739162
0.52400,-18.91000412
0.52450,-10.66975512
0.52500,-3.039894922
0.52550,5.810742901
0.52600,14.35618632
0.52650,19.54449125
0.52700,18.93410243
0.52750,11.30424224
0.52800,3.369187639
0.52850,4.895159678
0.52900,14.66138072
0.52950,18.62890802
0.53000,8.252298162
0.53050,-5.481450184
0.53100,-9.754171892
0.53150,-6.702227815
0.53200,-7.923005446
0.53250,-12.19572715
0.53300,-8.838588669
0.53350,2.758798824
0.53400,12.21982546
0.53450,16.18735276
0.53500,21.37565769
0.53550,29.6159067
0.53600,32.66785078
0.53650,26.25876822
0.53700,20.46007447
0.53750,24.42760177
0.53800,32.97304519
0.53850,36.63537808
0.53900,35.10940604
0.53950,32.05746196
0.54000,26.86915703
0.54050,20.15488006
0.54100,17.40813039
0.54150,21.6808521
0.54200,24.42760177
0.54250,14.66138072
0.54300,-5.786644592
0.54350,-26.84505872
0.54400,-39.66322385
0.54450,-44.85152878
0.54500,-44.85152878
0.54550,-45.15672319
0.54600,-51.56580575
0.54650,-64.99435969
0.54700,-76.59174718
0.54750,-80.55927448
0.54800,-79.64369126
0.54850,-77.81252481
0.54900,-72.92941429
0.54950,-64.68916528
0.55000,-57.05930509
0.55050,-50.34502812
0.55100,-34.47491892
0.55150,-4.565866961
0.55200,27.47954585
0.55250,49.14834879
0.55300,61.96651392
0.55350,72.64831819
0.55400,79.66778956
0.55450,78.14181753
0.55500,72.64831819
0.55550,70.81715174
0.55600,68.68079089
0.55650,57.99898662
0.55700,42.43407183
0.55750,32.66785078
0.55800,26.25876822
0.55850,14.96657513
0.55900,3.369187639
0.55950,5.200354085
0.56000,18.93410243
0.56050,26.25876822
0.56100,17.10293599
0.56150,0.6224379699
0.56200,-12.19572715
0.56250,-21.04636498
0.56300,-27.76064195
0.56350,-32.03336365
0.56400,-36.91647418
0.56450,-51.56580575
0.56500,-77.81252481
0.56550,-103.7540495
0.56600,-119.9293531
0.56650,-130.9163517
0.56700,-144.6501001
0.56750,-158.078654
0.56800,-161.1305981
0.56850,-149.5332106
0.56900,-129.6955741
0.56950,-110.7735208
0.57000,-97.03977249
0.57050,-85.74757941
0.57100,-72.31902547
0.57150,-54.31255542
0.57200,-34.78011332
0.57250,-18.91000412
0.57300,-9.143783077
0.57350,-3.955478146
0.57400,-0.5983396609
0.57450,2.453604416
0.57500,5.505548493
0.57550,8.252298162
0.57600,9.473075793
0.57650,8.252298162
0.57700,6.421131716
0.57750,6.421131716
0.57800,7.336714939
0.57850,7.641909347
0.57900,8.252298162
0.57950,10.69385342
0.58000,14.96657513
0.58050,17.10293599
0.58100,16.49254717
0.58150,16.18735276
0.58200,17.7133248
0.58250,19.54449125
0.58300,18.62890802
0.58350,16.79774158
0.58400,17.10293599
0.58450,18.93410243
0.58500,20.15488006
0.58550,21.07046329
0.58600,24.73279618
0.58650,29.00551789
0.58700,30.22629552
0.58750,29.6159067
0.58800,32.97304519
0.58850,42.12887742
0.58900,49.4535432
0.58950,49.75873761
0.59000,45.79121031
0.59050,43.65484946
0.59100,43.96004386
0.59150,42.12887742
0.59200,37.85615571
0.59250,35.10940604
0.59300,35.10940604
0.59350,34.49901722
0.59400,31.75226756
0.59450,29.31071229
0.59500,29.31071229
0.59550,30.22629552
0.59600,31.14187874
0.59650,31.44707315
0.59700,30.83668433
0.59750,29.31071229
0.59800,29.31071229
0.59850,31.14187874
0.59900,32.05746196
0.59950,29.92110111
0.60000,27.78474026
0.60050,30.83668433
0.60100,37.85615571
0.60150,42.73926623
0.60200,43.96004386
0.60250,47.62237676
0.60300,55.86262576
0.60350,61.96651392
0.60400,60.13534747
0.60450,53.72626491
0.60500,48.23276557
0.60550,43.34965505
0.60600,36.94057249
0.60650,31.44707315
0.60700,29.31071229
0.60750,26.86915703
0.60800,20.46007447
0.60850,14.35618632
0.60900,15.57696395
0.60950,21.37565769
0.61000,20.15488006
0.61050,8.862686978
0.61100,-0.5983396609
0.61150,1.843215601
0.61200,14.96657513
0.61250,27.47954585
0.61300,33.583434
0.61350,34.19382282
0.61400,30.53148992
0.61450,21.98604651
0.61500,10.99904783
0.61550,1.538021193
0.61600,-3.039894922
0.61650,-3.34508933
0.61700,-1.513922884
0.61750,-2.429506107
0.61800,-13.11131038
0.61850,-34.47491892
0.61900,-58.89047153
0.61950,-76.59174718
0.62000,-86.05277382
0.62050,-91.85146756
0.62100,-96.73457809
0.62150,-94.90341164
0.62200,-81.4748577
0.62250,-60.41644357
0.62300,-40.88400148
0.62350,-28.98141958
0.62400,-21.65675379
0.62450,-12.19572715
0.62500,2.758798824
0.62550,24.42760177
0.62600,52.50548728
0.62650,84.24570568
0.62700,112.6287856
0.62750,128.8040892
0.62800,131.5508389
0.62850,125.7521451
0.62900,114.459952
0.62950,94.01192673
0.63000,63.18729155
0.63050,29.31071229
0.63100,0.01204915453
0.63150,-25.9294755
0.63200,-53.09177779
0.63250,-77.81252481
0.63300,-93.68263401
0.63350,-100.7021054
0.63400,-105.5852159
0.63450,-113.2150761
0.63500,-120.8449363
0.63550,-122.9812971
0.63600,-116.877409
0.63650,-104.0592439
0.63700,-89.10471789
0.63750,-77.5073304
0.63800,-65.6047485
0.63850,-47.59827845
0.63900,-27.45544754
0.63950,-21.65675379
0.64000,-31.42297484
0.64050,-32.64375247
0.64100,-4.565866961
0.64150,40.90809979
0.64200,74.47948463
0.64250,88.51842739
0.64300,102.5573701
0.64350,131.2456445
0.64400,168.4793622
0.64450,205.7130799
0.64500,240.200048
0.64550,260.9532677
0.64600,250.5766579
0.64650,207.239052
0.64700,152.609253
0.64750,107.1352863
0.64800,71.42754056
0.64850,39.38212775
0.64900,13.44060309
0.64950,-3.955478146
0.65000,-21.65675379
0.65050,-48.20866726
0.65100,-82.08524652
0.65150,-119.0137698
0.65200,-161.7409869
0.65250,-207.2149537
0.65300,-242.617505
0.65350,-256.9616421
0.65400,-253.2993092
0.65450,-240.1759497
0.65500,-218.8123412
0.65550,-189.8188724
0.65600,-162.9617646
0.65650,-145.5656833
0.65700,-133.0527126
0.65750,-119.0137698
0.65800,-108.63716
0.65850,-109.5527432
0.65900,-115.351437
0.65950,-113.5202705
0.66000,-103.1436606
0.66050,-96.73457809
0.66100,-98.56574453
0.66150,-100.7021054
0.66200,-94.59821723
0.66250,-83.00082974
0.66300,-71.70863666
0.66350,-60.41644357
0.66400,-46.68269522
0.66450,-32.03336365
0.66500,-20.13078175
0.66550,-11.89053275
0.66600,-5.481450184
0.66650,0.6224379699
0.66700,6.726326124
0.66750,12.52501987
0.66800,17.7133248
0.66850,21.98604651
0.66900,25.95357381
0.66950,29.92110111
0.67000,34.80421163
0.67050,39.68732216
0.67100,43.34965505
0.67150,45.79121031
0.67200,50.36912643
0.67250,57.69379221
0.67300,62.57690273
0.67350,58.30418103
0.67400,44.57043268
0.67450,31.44707315
0.67500,27.17435144
0.67550,30.53148992
0.67600,33.88862841
0.67650,32.66785078
0.67700,30.53148992
0.67750,31.14187874
0.67800,33.583434
0.67850,34.49901722
0.67900,35.10940604
0.67950,36.33018367
0.68000,37.24576689
0.68050,37.24576689
0.68100,38.77173893
0.68150,42.73926623
0.68200,46.09640472
0.68250,46.09640472
0.68300,45.18082149
0.68350,47.01198794
0.68400,50.67432083
0.68450,52.81068169
0.68500,53.11587609
0.68550,53.72626491
0.68600,54.33665373
0.68650,52.50548728
0.68700,49.4535432
0.68750,47.01198794
0.68800,45.4860159
0.68850,43.04446064
0.68900,40.60290538
0.68950,39.68732216
0.69000,38.46654452
0.69050,34.49901722
0.69100,31.14187874
0.69150,32.66785078
0.69200,36.63537808
0.69250,40.29771097
0.69300,45.79121031
0.69350,55.55743136
0.69400,63.79768036
0.69450,62.88209714
0.69500,56.16782017
0.69550,54.94704254
0.69600,61.66131951
0.69650,69.90156852
0.69700,77.83662312
0.69750,91.26517706
0.69800,109.2716471
0.69850,120.5638402
0.69900,117.5118961
0.69950,105.3041198
0.70000,93.40153791
0.70050,81.80415042
0.70100,67.76520766
0.70150,52.81068169
0.70200,41.5184886
0.70250,35.10940604
0.70300,28.39512907
0.70350,18.93410243
0.70400,8.862686978
0.70450,0.3172435622
0.70500,-7.617811038
0.70550,-17.38403208
0.70600,-30.20219721
0.70650,-45.767112
0.70700,-61.02683239
0.70750,-70.18266462
0.70800,-67.43591495
0.70850,-54.00736101
0.70900,-38.74764062
0.70950,-29.59180839
0.71000,-25.62428109
0.71050,-25.01389228
0.71100,-31.42297484
0.71150,-47.90347285
0.71200,-64.99435969
0.71250,-66.21513732
0.71300,-47.29308404
0.71350,-17.9944209
0.71400,14.35618632
0.71450,50.36912643
0.71500,85.77167772
0.71550,114.459952
0.71600,141.9274487
0.71650,180.3819441
0.71700,222.8039668
0.71750,242.6416033
0.71800,227.3818829
0.71850,200.524775
0.71900,191.3689428
0.71950,196.2520533
0.72000,193.5053036
0.72050,177.9403888
0.72100,160.5443076
0.72150,143.4534208
0.72200,116.9015073
0.72250,82.10934483
0.72300,56.47301458
0.72350,48.84315439
0.72400,44.87562709
0.72450,24.42760177
0.72500,-15.55286564
0.72550,-57.6696939
0.72600,-86.35796822
0.72650,-110.4683264
0.72700,-157.4682652
0.72750,-236.2084224
0.72800,-314.0329964
0.72850,-349.1303533
0.72900,-338.1433546
0.72950,-312.5070243
0.73000,-290.8382214
0.73050,-254.8252813
0.73100,-185.5461507
0.73150,-97.3449669
0.73200,-23.79311465
0.73250,15.88215836
0.73300,21.37565769
0.73350,0.3172435622
0.73400,-31.42297484
0.73450,-53.09177779
0.73500,-56.75411068
0.73550,-53.39697219
0.73600,-54.61774982
0.73650,-53.09177779
0.73700,-40.88400148
0.73750,-28.06583635
0.73800,-30.81258602
0.73850,-46.07230641
0.73900,-56.75411068
0.73950,-56.14372186
0.74000,-53.39697219
0.74050,-55.53333305
0.74100,-64.07877646
0.74150,-83.30602415
0.74200,-119.9293531
0.74250,-171.8124024
0.74300,-223.0850629
0.74350,-258.1824198
0.74400,-272.5265569
0.74450,-272.5265569
0.74500,-266.1174744
0.74550,-259.4031974
0.74600,-253.6045036
0.74650,-245.3642546
0.74700,-229.7993398
0.74750,-205.0785928
0.74800,-173.9487632
0.74850,-142.8189336
0.74900,-118.7085754
0.74950,-102.8384662
0.75000,-86.66316263
0.75050,-62.55280442
0.75100,-31.42297484
0.75150,-3.039894922
0.75200,17.7133248
0.75250,35.71979486
0.75300,54.64184813
0.75350,70.20676293
0.75400,79.36259516
0.75450,84.8560945
0.75500,90.04439943
0.75550,90.95998265
0.75600,82.71973364
0.75650,69.2911797
0.75700,59.52495866
0.75750,55.55743136
0.75800,52.20029287
0.75850,47.31718235
0.75900,43.34965505
0.75950,43.65484946
0.76000,47.01198794
0.76050,51.89509846
0.76100,56.77820899
0.76150,59.21976425
0.76200,58.60937543
0.76250,57.69379221
0.76300,59.52495866
0.76350,64.10287477
0.76400,68.9859853
0.76450,74.47948463
0.76500,79.36259516
0.76550,77.83662312
0.76600,67.76520766
0.76650,57.99898662
0.76700,57.3885978
0.76750,62.27170833
0.76800,61.66131951
0.76850,53.72626491
0.76900,46.09640472
0.76950,43.34965505
0.77000,41.21329419
0.77050,39.07693334
0.77100,39.68732216
0.77150,41.82368301
0.77200,37.5509613
0.77250,26.25876822
0.77300,18.32371362
0.77350,21.37565769
0.77400,29.92110111
0.77450,35.71979486
0.77500,38.46654452
0.77550,41.82368301
0.77600,45.4860159
0.77650,47.31718235
0.77700,50.06393202
0.77750,56.77820899
0.77800,63.49248596
0.77850,62.57690273
0.77900,54.33665373
0.77950,45.4860159
0.78000,40.60290538
0.78050,38.77173893
0.78100,39.68732216
0.78150,43.04446064
0.78200,46.40159913
0.78250,46.40159913
0.78300,43.34965505
0.78350,42.12887742
0.78400,47.62237676
0.78450,58.60937543
0.78500,70.51195733
0.78550,78.75220634
0.78600,82.71973364
0.78650,87.29764976
0.78700,96.45348199
0.78750,108.9664527
0.78800,118.1222849
0.78850,122.7002011
0.78900,126.0573395
0.78950,132.7716165
0.79000,141.9274487
0.79050,151.083281
0.79100,158.7131412
0.79150,165.4274181
0.79200,170.9209175
0.79250,172.7520839
0.79300,166.6481958
0.79350,151.083281
0.79400,129.414478
0.79450,109.2716471
0.79500,93.70673232
0.79550,77.83662312
0.79600,56.77820899
0.79650,34.19382282
0.79700,17.10293599
0.79750,5.810742901
0.79800,-5.786644592
0.79850,-20.43597616
0.79900,-33.25414128
0.79950,-44.85152878
0.80000,-66.52033172
0.80050,-102.5332718
0.80100,-137.9358231
0.80150,-148.9228218
0.80200,-128.1696021
0.80250,-87.88394026
0.80300,-43.02036233
0.80350,2.148410008
0.80400,50.36912643
0.80450,101.6417869
0.80500,151.083281
0.80550,191.3689428
0.80600,212.1221625
0.80650,208.765024
0.80700,185.570249
0.80750,151.083281
0.80800,108.6612583
0.80850,57.3885978
0.80900,2.758798824
0.80950,-44.54633437
0.81000,-83.30602415
0.81050,-120.5397419
0.81100,-158.3838484
0.81150,-186.1565395
0.81200,-195.0071774
0.81250,-190.1240668
0.81300,-186.461734
0.81350,-196.227955
0.81400,-229.188951
0.81450,-283.81875
0.81500,-334.1758273
0.81550,-333.8706329
0.81600,-252.6889204
0.81650,-104.0592439
0.81700,72.03792937
0.81750,247.8299082
0.81800,412.6348884
0.81850,557.602232
0.81900,666.5566356
0.81950,726.0695451
0.82000,732.4786276
0.82050,685.7838833
0.82100,590.5632281
0.82150,459.6348272
0.82200,306.4272345
0.82250,138.8755047
0.82300,-33.8645301
0.82350,-194.701983
0.82400,-323.1888286
0.82450,-411.3900124
0.82500,-460.5263121
0.82550,-470.5977275
0.82600,-443.1302308
0.82650,-392.1627647
0.82700,-338.448549
0.82750,-296.0265263
0.82800,-270.3901961
0.82850,-268.2538352
0.82900,-296.3317207
0.82950,-348.8251588
0.83000,-408.6432628
0.83050,-466.3250058
0.83100,-524.0067489
0.83150,-585.3508248
0.83200,-641.5065958
0.83250,-673.5520086
0.83300,-667.1429261
0.83350,-618.3118208
0.83400,-538.350886
0.83450,-446.1821749
0.83500,-362.5589072
0.83550,-296.6369151
0.83600,-245.669449
0.83650,-202.3318432
0.83700,-160.5202093
0.83750,-117.7929922
0.83800,-74.45538632
0.83850,-34.16972451
0.83900,-4.260672553
0.83950,8.55749257
0.84000,8.55749257
0.84050,9.778270201
0.84100,22.59643532
0.84150,40.90809979
0.84200,46.40159913
0.84250,32.36265637
0.84300,14.96657513
0.84350,13.7457975
0.84400,29.00551789
0.84450,43.04446064
0.84500,45.79121031
0.84550,43.34965505
0.84600,46.09640472
0.84650,53.4210705
0.84700,57.3885978
0.84750,53.72626491
0.84800,48.23276557
0.84850,50.36912643
0.84900,66.23923563
0.84950,93.70673232
0.85000,123.3105899
0.85050,145.2845872
0.85100,155.0508083
0.85150,155.6611971
0.85200,152.609253
0.85250,153.5248362
0.85300,162.3754741
0.85350,177.9403888
0.85400,194.1156925
0.85450,205.4078855
0.85500,210.2909961
0.85550,209.3754128
0.85600,205.1026911
0.85650,198.3884142
0.85700,188.6221931
0.85750,175.4988336
0.85800,166.0378069
0.85850,166.9533902
0.85900,175.1936392
0.85950,179.4663609
0.86000,175.4988336
0.86050,169.7001398
0.86100,164.2066405
0.86150,152.3040586
0.86200,132.7716165
0.86250,117.5118961
0.86300,112.6287856
0.86350,111.7132024
0.86400,110.7976192
0.86450,118.1222849
0.86500,130.6352557
0.86550,128.4988948
0.86600,105.3041198
0.86650,85.1612889
0.86700,86.99245535
0.86750,97.97945403
0.86800,106.5248974
0.86850,131.8560333
0.86900,182.518305
0.86950,211.2065793
0.87000,159.32353
0.87050,42.43407183
0.87100,-52.48138897
0.87150,-63.16319324
0.87200,-7.923005446
0.87250,59.21976425
0.87300,116.2911185
0.87350,175.4988336
0.87400,247.5247138
0.87450,321.0765661
0.87500,371.4336433
0.87550,384.8621973
0.87600,374.7907818
0.87650,373.5700042
0.87700,394.9336127
0.87750,415.9920269
0.87800,403.7842505
0.87850,352.8167845
0.87900,278.6545434
0.87950,188.9273875
0.88000,79.36259516
0.88050,-47.90347285
0.88100,-182.4942067
0.88150,-318.6109125
0.88200,-456.8639792
0.88250,-586.8767969
0.88300,-686.6753682
0.88350,-739.4740007
0.88400,-743.1363336
0.88450,-702.8506718
0.88500,-629.2988195
0.88550,-545.3703574
0.88600,-479.7535598
0.88650,-448.3185358
0.88700,-436.4159539
0.88750,-413.2211789
0.88800,-360.1173519
0.88850,-288.7018605
0.88900,-221.5590908
0.88950,-159.2994317
0.89000,-76.59174718
0.89050,34.80421163
0.89100,141.9274487
0.89150,202.0507471
0.89200,215.479301
0.89250,220.6676059
0.89300,243.2519921
0.89350,279.875321
0.89400,324.4337045
0.89450,379.6738923
0.89500,433.0829137
0.89550,453.8361334
0.89600,437.050441
0.89650,422.4011094
0.89700,441.6283571
0.89750,464.2127433
0.89800,422.095915
0.89850,288.7259588
0.89900,111.7132024
0.89950,-38.13725181
0.90000,-131.831935
0.90050,-191.6500389
0.90100,-252.383726
0.90150,-323.7992174
0.90200,-388.8056263
0.90250,-427.565316
0.90300,-442.8250364
0.90350,-451.3704798
0.90400,-458.6951456
0.90450,-450.760091
0.90500,-422.6822055
0.90550,-398.8770417
0.90600,-403.7601522
0.90650,-422.6822055
0.90700,-415.9679285
0.90750,-373.5459059
0.90800,-324.4096062
0.90850,-286.2603053
0.90900,-236.2084224
0.90950,-151.6695715
0.91000,-52.48138897
0.91050,26.25876822
0.91100,83.33012246
0.91150,141.6222543
0.91200,206.0182744
0.91250,253.628602
0.91300,272.5506552
0.91350,274.3818217
0.91400,269.1935167
0.91450,249.3558802
0.91500,206.6286632
0.91550,147.1157537
0.91600,83.63531686
0.91650,22.90162973
0.91700,-29.59180839
0.91750,-66.21513732
0.91800,-82.08524652
0.91850,-77.81252481
0.91900,-58.28008272
0.91950,-34.16972451
0.92000,-15.85806005
0.92050,-2.429506107
0.92100,10.99904783
0.92150,5.810742901
0.92200,-59.80605475
0.92250,-192.8708165
0.92300,-324.7148006
0.92350,-364.695268
0.92400,-292.3641934
0.92450,-161.7409869
0.92500,-22.57233702
0.92550,125.7521451
0.92600,292.0830973
0.92650,448.3426341
0.92700,555.1606768
0.92750,605.2125596
0.92800,613.758003
0.92850,587.2060896
0.92900,528.9139577
0.92950,455.6672999
0.93000,384.5570029
0.93050,313.1415115
0.93100,236.5377151
0.93150,167.8689734
0.93200,121.7846178
0.93250,84.55090009
0.93300,32.66785078
0.93350,-28.98141958
0.93400,-83.61121856
0.93450,-140.9877672
0.93500,-227.662979
0.93550,-334.7862161
0.93600,-420.8510391
0.93650,-471.8185052
0.93700,-518.5132495
0.93750,-577.1105758
0.93800,-610.6819607
0.93850,-577.4157702
0.93900,-488.2990032
0.93950,-385.4484878
0.94000,-283.81875
0.94050,-173.9487632
0.94100,-59.80605475
0.94150,38.46654452
0.94200,116.5963129
0.94250,184.044277
0.94300,238.3688816
0.94350,263.7000174
0.94400,257.5961293
0.94450,234.4013543
0.94500,201.4403582
0.94550,153.2196418
0.94600,93.70673232
0.94650,40.60290538
0.94700,3.979576455
0.94750,-22.57233702
0.94800,-45.46191759
0.94850,-57.6696939
0.94900,-54.31255542
0.94950,-41.7995847
0.95000,-26.84505872
0.95050,-8.533394261
0.95100,16.49254717
0.95150,46.70679353
0.95200,75.08987345
0.95250,97.36906521
0.95300,112.3235912
0.95350,122.7002011
0.95400,134.2975885
0.95450,147.4209481
0.95500,151.9988642
0.95550,142.5378376
0.95600,131.5508389
0.95650,135.2131718
0.95700,152.609253
0.95750,168.4793622
0.95800,173.6676671
0.95850,174.5832504
0.95900,178.5507777
0.95950,184.6546658
0.96000,188.0118043
0.96050,181.9079161
0.96100,159.9339188
0.96150,126.6677284
0.96200,108.6612583
0.96250,127.888506
0.96300,170.3105287
0.96350,191.6741372
0.96400,166.6481958
0.96450,118.7326738
0.96500,95.53789877
0.96550,119.3430626
0.96600,166.3430014
0.96650,188.3169987
0.96700,162.6806685
0.96750,122.0898122
0.96800,122.3950066
0.96850,162.0702796
0.96900,159.6287244
0.96950,43.34965505
0.97000,-146.7864609
0.97050,-285.9551109
0.97100,-295.4161375
0.97150,-208.1305369
0.97200,-100.0917166
0.97250,-1.819117292
0.97300,96.45348199
0.97350,194.4208869
0.97400,272.2454608
0.97450,318.3298164
0.97500,327.790843
0.97550,293.9142638
0.97600,220.0572171
0.97650,128.4988948
0.97700,36.02498926
0.97750,-66.21513732
0.97800,-186.461734
0.97850,-303.0459977
0.97900,-385.1432934
0.97950,-429.0912881
0.98000,-450.1497022
0.98050,-450.1497022
0.98100,-429.3964825
0.98150,-412.9159845
0.98200,-430.9224545
0.98250,-467.240589
0.98300,-462.9678673
0.98350,-379.9549884
0.98400,-233.7668671
0.98450,-61.02683239
0.98500,117.8170905
0.98550,292.6934861
0.98600,444.3751068
0.98650,557.2970376
0.98700,633.900834
0.98750,679.0696063
0.98800,687.0046609
0.98850,653.433276
0.98900,592.6995889
0.98950,527.6931801
0.99000,467.2646873
0.99050,407.7517778
0.99100,351.5960068
0.99150,302.7649016
0.99200,255.4597684
0.99250,200.8299694
0.99300,145.5897816
0.99350,101.9469813
0.99400,51.58990406
0.99450,-54.00736101
0.99500,-239.2603665
0.99550,-459.9159233
0.99600,-633.2663468
0.99650,-712.006504
0.99700,-712.6168928
0.99750,-675.3831751
0.99800,-618.0066264
0.99850,-542.6236077
0.99900,-462.9678673
0.99950,-411.6952068
1.00000,-404.9809299
1.00050,-417.4939006
1.00100,-394.9095144
1.00150,-302.7408033
1.00200,-162.9617646
1.00250,-38.44244622
1.00300,25.34318499
1.00350,37.5509613
1.00400,37.5509613
1.00450,46.40159913
1.00500,53.11587609
1.00550,41.5184886
1.00600,16.79774158
1.00650,-2.734700515
1.00700,-4.565866961
1.00750,7.641909347
1.00800,19.54449125
1.00850,16.79774158
1.00900,-0.5983396609
1.00950,-26.23466991
1.01000,-62.24761002
1.01050,-124.5072692
1.01100,-217.2863691
1.01150,-315.253774
1.01200,-389.4160151
1.01250,-436.1107595
1.01300,-463.2730617
1.01350,-457.7795624
1.01400,-390.9419871
1.01450,-261.8447527
1.01500,-112.2994929
1.01550,12.52501987
1.01600,104.9989254
1.01650,185.8754434
1.01700,271.635072
1.01750,359.5310614
1.01800,432.7777193
1.01850,473.6737699
1.01900,472.7581867
1.01950,429.4205808
1.02000,352.2063956
1.02050,255.4597684
1.02100,161.4598908
1.02150,88.21323298
1.02200,36.63537808
1.02250,-10.66975512
1.02300,-60.72163798
1.02350,-90.93588434
1.02400,-77.81252481
1.02450,-29.28661398
1.02500,21.37565769
1.02550,57.08340339
1.02600,87.90803857
1.02650,119.9534514
1.02700,133.0768109
1.02750,101.0313981
1.02800,25.95357381
1.02850,-60.11124916
1.02900,-130.0007685
1.02950,-180.3578458
1.03000,-224.0006461
1.03050,-266.4226688
1.03100,-298.4680816
1.03150,-310.6758579
1.03200,-307.3187194
1.03250,-302.1304145
1.03300,-301.8252201
1.03350,-304.8771641
1.03400,-308.2343026
1.03450,-312.5070243
1.03500,-316.4745516
1.03550,-318.3057181
1.03600,-318.0005237
1.03650,-317.0849404
1.03700,-312.8122187
1.03750,-304.2667753
1.03800,-296.3317207
1.03850,-292.6693878
1.03900,-287.4810829
1.03950,-271.6109737
1.04000,-243.8382826
1.04050,-207.2149537
1.04100,-160.2150149
1.04150,-103.4488551
1.04200,-44.54633437
1.04250,8.252298162
1.04300,59.21976425
1.04350,110.7976192
1.04400,154.7456139
1.04450,185.2650546
1.04500,209.0702184
1.04550,229.8234382
1.04600,238.3688816
1.04650,237.4532983
1.04700,250.5766579
1.04750,282.6220707
1.04800,298.4921799
1.04850,273.7714329
1.04900,237.4532983
1.04950,219.7520227
1.05000,185.2650546
1.05050,82.71973364
1.05100,-52.78658338
1.05150,-118.7085754
1.05200,-73.5398031
1.05250,23.51201855
1.05300,117.5118961
1.05350,225.245522
1.05400,373.8751986
1.05450,530.4399297
1.05500,644.2774438
1.05550,705.9267142
1.05600,731.25785
1.05650,713.8617688
1.05700,643.0566662
1.05750,536.2386235
1.05800,422.7063038
1.05850,308.5635953
1.05900,186.1806379
1.05950,55.86262576
1.06000,-77.20213599
1.06050,-209.0461201
1.06100,-319.2213013
1.06150,-378.7342108
1.06200,-385.4484878
1.06250,-367.7472121
1.06300,-339.3641322
1.06350,-285.9551109
1.06400,-205.6889816
1.06450,-125.117658
1.06500,-58.89047153
1.06550,8.862686978
1.06600,77.2262343
1.06650,104.0833422
1.06700,62.88209714
1.06750,-9.448977484
1.06800,-50.95541693
1.06850,-34.78011332
1.06900,25.95357381
1.06950,113.5443688
1.07000,204.7974967
1.07050,264.920795
1.07100,278.6545434
1.07150,272.2454608
1.07200,281.4012931
1.07250,305.8168457
1.07300,321.3817605
1.07350,321.9921493
1.07400,322.6025381
1.07450,329.3168151
1.07500,334.1999256
1.07550,333.2843424
1.07600,334.50512
1.07650,343.0505634
1.07700,353.1219789
1.07750,354.0375621
1.07800,333.2843424
1.07850,283.2324595
1.07900,208.765024
1.07950,125.7521451
1.08000,46.70679353
1.08050,-24.40350346
1.08100,-85.442385
1.08150,-135.7994623
1.08200,-187.0721228
1.08250,-253.9096981
1.08300,-321.0524677
1.08350,-342.7212707
1.08400,-287.4810829
1.08450,-175.1695409
1.08500,-52.48138897
1.08550,49.75873761
1.08600,125.4469507
1.08650,168.1741678
1.08700,168.1741678
1.08750,125.1417563
1.08800,48.53795998
1.08850,-57.05930509
1.08900,-188.5980948
1.08950,-324.1044118
1.09000,-434.8899818
1.09050,-512.4093614
1.09100,-571.9222709
1.09150,-622.5845426
1.09200,-654.0195665
1.09250,-658.5974827
1.09300,-643.9481511
1.09350,-619.2274041
1.09400,-582.2988807
1.09450,-534.6885531
1.09500,-484.3314759
1.09550,-429.0912881
1.09600,-351.8771029
1.09650,-248.4161987
1.09700,-144.0397113
1.09750,-65.29955409
1.09800,-14.94247682
1.09850,15.57696395
1.09900,25.6483794
1.09950,15.27176954
1.10000,0.9276323776
1.10050,-6.702227815
1.10100,-27.76064195
1.10150,-82.08524652
1.10200,-148.9228218
1.10250,-177.3059017
1.10300,-144.3449057
1.10350,-71.40344225
1.10400,14.05099191
1.10450,111.408008
1.10500,226.7714941
1.10550,347.0180907
1.10600,448.6478285
1.10650,519.4529311
1.10700,563.4009258
1.10750,585.9853119
1.10800,583.2385623
1.10850,549.6671774
1.10900,487.1023238
1.10950,403.1738617
1.11000,304.9012624
1.11050,199.3039974
1.11100,98.58984284
1.11150,18.01851921
1.11200,-39.96841825
1.11250,-95.51380046
1.11300,-170.2864303
1.11350,-255.7408645
1.11400,-316.779746
1.11450,-334.1758273
1.11500,-330.5134944
1.11550,-340.5849098
1.11600,-366.8316289
1.11650,-381.1757661
1.11700,-366.8316289
1.11750,-342.1108819
1.11800,-331.4290776
1.11850,-329.5979112
1.11900,-308.8446914
1.11950,-250.2473652
1.12000,-162.0461813
1.12050,-61.94241561
1.12100,38.77173893
1.12150,133.9923941
1.12200,215.7844954
1.12250,281.0960986
1.12300,338.1674529
1.12350,390.9660854
1.12400,423.621887
1.12450,414.1608604
1.12500,366.2453384
1.12550,312.5311226
1.12600,282.0116819
1.12650,272.5506552
1.12700,265.8363783
1.12750,257.2909348
1.12800,255.4597684
1.12850,258.8169069
1.12900,249.3558802
1.12950,216.0896898
1.13000,170.9209175
1.13050,127.888506
1.13100,73.56390141
1.13150,-19.21519853
1.13200,-151.3643771
1.13250,-277.4096674
1.13300,-343.6368539
1.13350,-335.0914105
1.13400,-276.4940842
1.13450,-196.227955
1.13500,-107.4163824
1.13550,-16.77364327
1.13600,60.74573629
1.13650,113.8495632
1.13700,142.843032
1.13750,153.2196418
1.13800,141.9274487
1.13850,103.4729534
1.13900,45.18082149
1.13950,-14.33208801
1.14000,-66.21513732
1.14050,-120.5397419
1.14100,-190.1240668
1.14150,-264.8966967
1.14200,-310.0654691
1.14250,-299.6888592
1.14300,-246.5850323
1.14350,-192.2604277
1.14400,-166.318903
1.14450,-159.9098205
1.14500,-140.6825728
1.14550,-88.18913467
1.14600,-10.36456071
1.14650,69.2911797
1.14700,136.128755
1.14750,188.9273875
1.14800,230.1286326
1.14850,258.8169069
1.14900,278.349349
1.14950,298.7973743
1.15000,324.4337045
1.15050,342.1349802
1.15100,331.7583703
1.15150,294.2194582
1.15200,254.8493796
1.15250,231.3494102
1.15300,210.9013849
1.15350,169.3949454
1.15400,108.3560639
1.15450,54.64184813
1.15500,30.22629552
1.15550,32.36265637
1.15600,45.79121031
1.15650,57.69379221
1.15700,59.83015306
1.15750,48.23276557
1.15800,25.6483794
1.15850,1.843215601
1.15900,-16.46844886
1.15950,-35.69569655
1.16000,-66.82552613
1.16050,-115.6566314
1.16100,-177.6110961
1.16150,-242.0071162
1.16200,-297.5524984
1.16250,-340.2797154
1.16300,-374.4614891
1.16350,-407.4224851
1.16400,-437.3315371
1.16450,-453.5068407
1.16500,-445.5717861
1.16550,-418.1042894
1.16600,-386.0588766
1.16650,-358.8965743
1.16700,-328.9875223
1.16750,-283.81875
1.16800,-226.4422014
1.16850,-175.1695409
1.16900,-138.8514063
1.16950,-100.396911
1.17000,-40.88400148
1.17050,32.97304519
1.17100,94.31712113
1.17150,128.8040892
1.17200,146.2001704
1.17250,163.5962517
1.17300,186.4858323
1.17350,211.2065793
1.17400,228.6026605
1.17450,224.3299388
1.17500,187.7066099
1.17550,133.3820053
1.17600,98.58984284
1.17650,113.2391744
1.17700,172.1416951
1.17750,245.9987418
1.17800,309.1739842
1.17850,352.51159
1.17900,375.0959762
1.17950,377.8427259
1.18000,362.2778111
1.18050,328.0960374
1.18100,271.635072
1.18150,195.6416645
1.18200,115.3755353
1.18250,49.75873761
1.18300,4.284770862
1.18350,-30.81258602
1.18400,-65.90994291
1.18450,-99.48132776
1.18500,-126.9488244
1.18550,-152.2799603
1.18600,-189.8188724
1.18650,-243.2278938
1.18700,-292.6693878
1.18750,-306.7083306
1.18800,-274.052529
1.18850,-223.0850629
1.18900,-192.8708165
1.18950,-188.5980948
1.19000,-174.5591521
1.19050,-118.403381
1.19100,-28.06583635
1.19150,62.57690273
1.19200,135.5183662
1.19250,195.9468589
1.19300,249.6610747
1.19350,293.9142638
1.19400,329.6220095
1.19450,364.7193664
1.19500,394.6284183
1.19550,398.2907512
1.19600,362.8881999
1.19650,304.2908736
1.19700,247.2195194
1.19750,193.5053036
1.19800,123.3105899
1.19850,22.29124092
1.19900,-99.78652216
1.19950,-228.2733678
1.20000,-358.5913799
1.20050,-499.2860018
1.20100,-651.2728169
1.20150,-791.6622444
1.20200,-881.6945947
1.20250,-890.2400381
1.20300,-817.6037691
1.20350,-694.000034
1.20400,-549.9482735
1.20450,-396.7406809
1.20500,-236.5136168
1.20550,-81.78005211
1.20600,46.40159913
1.20650,141.6222543
1.20700,217.6156618
1.20750,286.2844036
1.20800,340.9142026
1.20850,367.466116
1.20900,365.940144
1.20950,347.6284795
1.21000,317.4142332
1.21050,272.5506552
1.21100,220.6676059
1.21150,179.7715553
1.21200,151.9988642
1.21250,113.8495632
1.21300,49.75873761
1.21350,-15.85806005
1.21400,-41.7995847
1.21450,-20.13078175
1.21500,12.83021428
1.21550,24.73279618
1.21600,22.90162973
1.21650,33.88862841
1.21700,63.18729155
1.21750,91.26517706
1.21800,104.0833422
1.21850,104.0833422
1.21900,94.92750995
1.21950,75.39506786
1.22000,51.28470965
1.22050,34.80421163
1.22100,28.39512907
1.22150,19.84968566
1.22200,6.421131716
1.22250,7.031520532
1.22300,40.90809979
1.22350,97.97945403
1.22400,146.2001704
1.22450,166.3430014
1.22500,169.7001398
1.22550,170.9209175
1.22600,164.2066405
1.22650,130.6352557
1.22700,67.46001326
1.22750,-7.007422223
1.22800,-76.89694159
1.22850,-145.8708777
1.22900,-222.4746741
1.22950,-292.9745822
1.23000,-324.1044118
1.23050,-293.8901655
1.23100,-213.3188418
1.23150,-110.4683264
1.23200,-3.650283738
1.23250,102.5573701
1.23300,200.8299694
1.23350,265.8363783
1.23400,270.1091
1.23450,208.1546352
1.23500,108.0508695
1.23550,16.79774158
1.23600,-36.91647418
1.23650,-62.85799883
1.23700,-90.93588434
1.23750,-131.5267406
1.23800,-162.6565702
1.23850,-157.1630708
1.23900,-109.2475488
1.23950,-33.8645301
1.24000,49.4535432
1.24050,121.4794234
1.24100,165.4274181
1.24150,181.6027217
1.24200,188.9273875
1.24250,199.6091918
1.24300,203.8819135
1.24350,188.6221931
1.24400,162.6806685
1.24450,143.4534208
1.24500,132.1612277
1.24550,114.7651465
1.24600,85.77167772
1.24650,48.23276557
1.24700,-3.650283738
1.24750,-77.20213599
1.24800,-152.2799603
1.24850,-187.6825116
1.24900,-159.9098205
1.24950,-85.442385
1.25000,3.674382047
1.25050,88.51842739
1.25100,160.5443076
1.25150,210.9013849
1.25200,231.0442158
1.25250,220.0572171
1.25300,179.1611665
1.25350,103.7781478
1.25400,-16.77364327
1.25450,-186.1565395
1.25500,-390.9419871
1.25550,-594.8118515
1.25600,-751.9869714
1.25650,-834.9998503
1.25700,-850.2595707
1.25750,-820.6557132
1.25800,-755.3441099
1.25850,-649.7468448
1.25900,-513.0197502
1.25950,-371.1043506
1.26000,-239.8707553
1.26050,-115.0462425
1.26100,5.200354085
1.26150,104.3885366
1.26200,170.6157231
1.26250,214.8689122
1.26300,255.4597684
1.26350,294.829847
1.26400,323.5181213
1.26450,339.9986193
1.26500,343.9661466
1.26550,325.9596766
1.26600,286.2844036
1.26650,251.7974355
1.26700,256.3753516
1.26750,297.5765967
1.26800,341.8297858
1.26850,364.7193664
1.26900,370.2128657
1.26950,364.414172
1.27000,339.0830361
1.27050,286.2844036
1.27100,211.8169681
1.27150,127.888506
1.27200,47.62237676
1.27250,-10.0593663
1.27300,-36.00089095
1.27350,-49.12425049
1.27400,-84.83199619
1.27450,-147.0916554
1.27500,-198.9747047
1.27550,-210.8772866
1.27600,-196.227955
1.27650,-179.747457
1.27700,-158.078654
1.27750,-112.6046873
1.27800,-48.81905608
1.27850,7.336714939
1.27900,48.23276557
1.27950,88.8236218
1.28000,137.654727
1.28050,180.9923329
1.28100,199.9143862
1.28150,188.3169987
1.28200,149.2521145
1.28250,90.95998265
1.28300,22.29124092
1.28350,-54.31255542
1.28400,-149.2280162
1.28450,-265.5070855
1.28500,-376.5978499
1.28550,-436.7211483
1.28600,-415.0523453
1.28650,-314.0329964
1.28700,-155.9422932
1.28750,30.22629552
1.28800,211.8169681
1.28850,357.0895062
1.28900,451.3945781
1.28950,504.4984051
1.29000,529.5243465
1.29050,527.9983745
1.29100,499.6152946
1.29150,454.1413278
1.29200,402.2582785
1.29250,339.9986193
1.29300,250.5766579
1.29350,132.4664221
1.29400,4.284770862
1.29450,-113.8254649
1.29500,-223.0850629
1.29550,-334.4810217
1.29600,-446.4873693
1.29650,-543.539191
1.29700,-615.2598768
1.29750,-662.8702044
1.29800,-683.3182297
1.29850,-656.4611218
1.29900,-560.6300778
1.29950,-399.7926249
1.30000,-203.5526208
1.30050,-7.31261663
1.30100,166.0378069
1.30150,308.2584009
1.30200,415.381638
1.30250,483.1347965
1.30300,503.8880163
1.30350,474.5893531
1.30400,409.5829443
1.30450,334.8103144
1.30500,266.1415727
1.30550,194.4208869
1.30600,105.6093142
1.30650,4.58996527
1.30700,-93.07224519
1.30750,-183.7149843
1.30800,-272.8317513
1.30850,-353.7082694
1.30900,-411.3900124
1.30950,-447.7081469
1.31000,-481.8899206
1.31050,-522.1755824
1.31100,-550.8638567
1.31150,-545.065163
1.31200,-495.0132801
1.31250,-401.318597
1.31300,-274.3577234
1.31350,-138.2410175
1.31400,-17.68922649
1.31450,86.68726094
1.31500,195.9468589
1.31550,310.6999562
1.31600,399.5115288
1.31650,441.6283571
1.31700,455.9724943
1.31750,468.7906594
1.31800,473.0633811
1.31850,448.9530229
1.31900,399.8167232
1.31950,344.271341
1.32000,282.0116819
1.32050,201.1351638
1.32100,108.0508695
1.32150,19.54449125
1.32200,-69.87747021
1.32250,-179.747457
1.32300,-298.1628872
1.32350,-384.838099
1.32400,-418.4094838
1.32450,-414.4419565
1.32500,-390.6367927
1.32550,-346.9939924
1.32600,-288.0914717
1.32650,-235.2928392
1.32700,-195.0071774
1.32750,-141.9033504
1.32800,-57.36449949
1.32850,44.26523827
1.32900,139.1806991
1.32950,225.5507164
1.33000,304.2908736
1.33050,352.8167845
1.33100,345.7973131
1.33150,294.5246526
1.33200,235.6221319
1.33250,183.4338882
1.33300,126.3625339
1.33350,58.30418103
1.33400,-10.0593663
1.33450,-72.62421988
1.33500,-127.5592133
1.33550,-167.5396807
1.33600,-184.9357619
1.33650,-187.6825116
1.33700,-186.7669284
1.33750,-175.7799297
1.33800,-146.1760721
1.33850,-114.4358537
1.33900,-101.6176886
1.33950,-90.02030112
1.34000,-48.81905608
1.34050,5.200354085
1.34100,14.05099191
1.34150,-34.47491892
1.34200,-78.42291362
1.34250,-57.05930509
1.34300,13.13540869
1.34350,77.83662312
1.34400,117.2067017
1.34450,145.894976
1.34500,164.8170293
1.34550,157.7975579
1.34600,125.7521451
1.34650,91.57037146
1.34700,70.51195733
1.34750,60.44054188
1.34800,58.60937543
1.34850,65.3236524
1.34900,75.70026226
1.34950,83.63531686
1.35000,96.14828758
1.35050,123.3105899
1.35100,162.3754741
1.35150,200.524775
1.35200,237.4532983
1.35250,279.875321
1.35300,321.3817605
1.35350,339.3882305
1.35400,314.6674835
1.35450,243.2519921
1.35500,134.602783
1.35550,13.44060309
1.35600,-88.18913467
1.35650,-157.7734596
1.35700,-217.2863691
1.35750,-291.1434158
1.35800,-362.5589072
1.35850,-387.5848486
1.35900,-353.403075
1.35950,-292.058999
1.36000,-230.7149231
1.36050,-158.6890429
1.36100,-61.94241561
1.36150,37.24576689
1.36200,105.6093142
1.36250,137.654727
1.36300,150.1676977
1.36350,141.3170599
1.36400,94.92750995
1.36450,16.18735276
1.36500,-64.99435969
1.36550,-131.5267406
1.36600,-185.5461507
1.36650,-216.3707859
1.36700,-192.8708165
1.36750,-103.4488551
1.36800,19.23929684
1.36850,130.3300612
1.36900,209.3754128
1.36950,256.9857404
1.37000,271.635072
1.37050,254.8493796
1.37100,218.5312451
1.37150,173.3624727
1.37200,113.2391744
1.37250,33.27823959
1.37300,-51.56580575
1.37350,-126.0332412
1.37400,-191.9552333
1.37450,-252.383726
1.37500,-283.5135556
1.37550,-256.3512533
1.37600,-182.7994011
1.37650,-107.4163824
1.37700,-52.48138897
1.37750,-3.039894922
1.37800,51.58990406
1.37850,94.92750995
1.37900,112.93398
1.37950,123.9209787
1.38000,152.3040586
1.38050,193.810498
1.38100,225.8559109
1.38150,240.8104368
1.38200,247.2195194
1.38250,246.914325
1.38300,231.0442158
1.38350,193.5053036
1.38400,133.3820053
1.38450,50.36912643
1.38500,-46.68269522
1.38550,-137.0202399
1.38600,-202.0266487
1.38650,-246.8902267
1.38700,-283.5135556
1.38750,-307.013525
1.38800,-302.7408033
1.38850,-279.5460283
1.38900,-263.3707247
1.38950,-260.3187806
1.39000,-245.669449
1.39050,-197.753927
1.39100,-130.0007685
1.39150,-71.70863666
1.39200,-32.94894688
1.39250,0.01204915453
1.39300,39.07693334
1.39350,80.27817838
1.39400,112.93398
1.39450,136.4339494
1.39500,159.6287244
1.39550,184.044277
1.39600,198.0832198
1.39650,192.8949148
1.39700,182.518305
1.39750,195.3364701
1.39800,239.8948536
1.39850,293.6090694
1.39900,335.7258976
1.39950,370.8232545
1.40000,408.9725555
1.40050,432.7777193
1.40100,413.855666
1.40150,351.9012012
1.40200,269.4987112
1.40250,167.8689734
1.40300,21.07046329
1.40350,-170.2864303
1.40400,-353.0978806
1.40450,-465.4094226
1.40500,-498.675613
1.40550,-494.7080857
1.40600,-493.7925025
1.40650,-500.5067795
1.40700,-488.909392
1.40750,-430.3120657
1.40800,-318.0005237
1.40850,-175.7799297
1.40900,-42.71516792
1.40950,57.99898662
1.41000,131.2456445
1.41050,185.2650546
1.41100,208.765024
1.41150,184.6546658
1.41200,120.2586458
1.41250,49.4535432
1.41300,4.895159678
1.41350,-6.702227815
1.41400,0.01204915453
1.41450,11.30424224
1.41500,26.25876822
1.41550,56.47301458
1.41600,109.2716471
1.41650,170.6157231
1.41700,212.4273569
1.41750,224.9403276
1.41800,227.9922717
1.41850,239.8948536
1.41900,246.3039362
1.41950,218.8364395
1.42000,161.4598908
1.42050,110.7976192
1.42100,84.55090009
1.42150,56.16782017
1.42200,-0.5983396609
1.42250,-70.48785902
1.42300,-114.7410481
1.42350,-122.3709083
1.42400,-112.9098817
1.42450,-101.922883
1.42500,-95.51380046
1.42550,-108.63716
1.42600,-155.02671
1.42650,-216.3707859
1.42700,-250.857754
1.42750,-244.143477
1.42800,-221.5590908
1.42850,-204.1630096
1.42900,-182.4942067
1.42950,-144.9552945
1.43000,-103.1436606
1.43050,-70.18266462
1.43100,-35.69569655
1.43150,13.44060309
1.43200,66.23923563
1.43250,98.58984284
1.43300,105.9145086
1.43350,97.97945403
1.43400,79.05740075
1.43450,49.14834879
1.43500,14.35618632
1.43550,-16.77364327
1.43600,-44.54633437
1.43650,-71.40344225
1.43700,-101.3124942
1.43750,-148.9228218
1.43800,-231.0201175
1.43850,-336.0069937
1.43900,-416.5783174
1.43950,-430.6172601
1.44000,-375.0718779
1.44050,-270.0850017
1.44100,-130.9163517
1.44150,22.90162973
1.44200,154.135225
1.44250,226.7714941
1.44300,243.5571865
1.44350,237.4532983
1.44400,232.5701878
1.44450,225.245522
1.44500,201.1351638
1.44550,154.135225
1.44600,92.18076028
1.44650,32.05746196
1.44700,-15.24767123
1.44750,-51.87100015
1.44800,-83.30602415
1.44850,-104.9748271
1.44900,-108.0267712
1.44950,-94.90341164
1.45000,-77.5073304
1.45050,-57.6696939
1.45100,-29.28661398
1.45150,3.979576455
1.45200,31.75226756
1.45250,54.64184813
1.45300,80.58337279
1.45350,104.3885366
1.45400,113.5443688
1.45450,112.93398
1.45500,114.1547576
1.45550,101.6417869
1.45600,46.70679353
1.45650,-41.18919589
1.45700,-105.5852159
1.45750,-101.922883
1.45800,-43.32555674
1.45850,29.31071229
1.45900,95.53789877
1.45950,152.609253
1.46000,197.1676365
1.46050,231.3494102
1.46100,268.2779335
1.46150,314.3622891
1.46200,351.5960068
1.46250,362.2778111
1.46300,354.9531453
1.46350,349.1544516
1.46400,340.6090081
1.46450,300.0181519
1.46500,207.8494408
1.46550,77.53142871
1.46600,-59.19566594
1.46650,-184.3253731
1.46700,-296.3317207
1.46750,-394.9095144
1.46800,-467.240589
1.46850,-502.9483347
1.46900,-513.9353334
1.46950,-524.3119433
1.47000,-533.7729699
1.47050,-508.1366397
1.47100,-418.7146782
1.47150,-284.1239444
1.47200,-153.1955435
1.47250,-53.39697219
1.47300,25.6483794
1.47350,108.0508695
1.47400,204.4923023
1.47450,312.2259282
1.47500,420.569943
1.47550,505.4139883
1.47600,540.8165396
1.47650,521.2840975
1.47700,470.6218258
1.47750,416.6024157
1.47800,361.6674223
1.47850,288.11557
1.47900,185.2650546
1.47950,67.46001326
1.48000,-41.7995847
1.48050,-131.831935
1.48100,-201.4162599
1.48150,-246.8902267
1.48200,-265.2018911
1.48250,-263.9811135
1.48300,-256.0460589
1.48350,-240.7863385
1.48400,-207.8253425
1.48450,-169.9812359
1.48500,-160.5202093
1.48550,-186.7669284
1.48600,-206.9097593
1.48650,-181.8838178
1.48700,-127.5592133
1.48750,-85.13719059
1.48800,-61.6372212
1.48850,-39.66322385
1.48900,-34.16972451
1.48950,-90.63068993
1.49000,-209.0461201
1.49050,-321.0524677
1.49100,-360.1173519
1.49150,-330.2083
1.49200,-277.7148619
1.49250,-225.5266181
1.49300,-165.0981254
1.49350,-97.3449669
1.49400,-43.63075115
1.49450,-15.55286564
1.49500,2.453604416
1.49550,35.71979486
1.49600,89.73920502
1.49650,148.9469201
1.49700,192.5897204
1.49750,207.239052
1.49800,184.6546658
1.49850,121.7846178
1.49900,23.51201855
1.49950,-89.10471789
1.50000,-187.987706
1.50050,-254.2148925
1.50100,-282.292778
1.50150,-266.1174744
1.50200,-197.753927
1.50250,-87.57874586
1.50300,32.97304519
1.50350,142.2326431
1.50400,243.8623809
1.50450,345.1869243
1.50500,431.2517472
1.50550,480.6932413
1.50600,491.68024
1.50650,473.6737699
1.50700,427.8946088
1.50750,354.0375621
1.50800,267.6675447
1.50850,187.7066099
1.50900,117.8170905
1.50950,50.97951524
1.51000,-8.533394261
1.51050,-50.95541693
1.51100,-72.62421988
1.51150,-78.72810803
1.51200,-73.84499751
1.51250,-69.26708139
1.51300,-75.37096955
1.51350,-83.91641296
1.51400,-73.84499751
1.51450,-52.17619456
1.51500,-61.33202679
1.51550,-118.7085754
1.51600,-172.1175968
1.51650,-151.3643771
1.51700,-50.03983371
1.51750,72.34312378
1.51800,162.3754741
1.51850,213.6481345
1.51900,239.2844648
1.51950,241.1156312
1.52000,212.7325513
1.52050,157.1871691
1.52100,86.68726094
1.52150,15.57696395
1.52200,-46.98788963
1.52250,-99.17613335
1.52300,-134.5786846
1.52350,-134.883879
1.52400,-86.66316263
1.52450,-9.448977484
1.52500,52.20029287
1.52550,85.1612889
1.52600,123.3105899
1.52650,197.7780253
1.52700,280.7909042
1.52750,311.310345
1.52800,268.5831279
1.52850,190.4533596
1.52900,129.7196724
1.52950,108.0508695
1.53000,117.2067017
1.53050,137.654727
1.53100,154.7456139
1.53150,165.7326125
1.53200,182.518305
1.53250,217.005273
1.53300,258.8169069
1.53350,276.5181825
1.53400,249.0506858
1.53450,186.1806379
1.53500,118.1222849
1.53550,64.71326359
1.53600,22.29124092
1.53650,-19.82558735
1.53700,-63.46838765
1.53750,-103.4488551
1.53800,-144.0397113
1.53850,-196.227955
1.53900,-266.4226688
1.53950,-350.0459365
1.54000,-444.0458141
1.54050,-544.7599686
1.54100,-636.9286797
1.54150,-692.7792563
1.54200,-694.000034
1.54250,-648.8312616
1.54300,-579.5521311
1.54350,-498.675613
1.54400,-405.8965131
1.54450,-300.9096368
1.54500,-191.3448445
1.54550,-90.32549553
1.54600,-12.19572715
1.54650,33.583434
1.54700,52.50548728
1.54750,62.88209714
1.54800,75.08987345
1.54850,80.58337279
1.54900,68.37559648
1.54950,46.70679353
1.55000,31.14187874
1.55050,14.66138072
1.55100,-20.43597616
1.55150,-64.07877646
1.55200,-77.5073304
1.55250,-42.71516792
1.55300,10.99904783
1.55350,48.23276557
1.55400,67.46001326
1.55450,85.77167772
1.55500,106.5248974
1.55550,127.2781172
1.55600,162.0702796
1.55650,222.4987724
1.55700,294.829847
1.55750,361.3622279
1.55800,428.1998032
1.55850,495.3425729
1.55900,528.3035689
1.55950,503.5828219
1.56000,456.8880775
1.56050,427.2842199
1.56100,369.9076713
1.56150,206.0182744
1.56200,-41.18919589
1.56250,-245.3642546
1.56300,-335.7017993
1.56350,-375.6822667
1.56400,-442.2146476
1.56450,-508.7470285
1.56500,-504.7795012
1.56550,-426.9549272
1.56600,-321.968051
1.56650,-201.7214543
1.56700,-53.7021666
1.56750,96.45348199
1.56800,205.7130799
1.56850,275.6025993
1.56900,333.5895368
1.56950,367.7713104
1.57000,341.5245914
1.57050,266.1415727
1.57100,192.5897204
1.57150,137.3495326
1.57200,69.90156852
1.57250,-19.82558735
1.57300,-104.0592439
1.57350,-171.2020136
1.57400,-241.3967273
1.57450,-314.6433852
1.57500,-357.3706023
1.57550,-364.0848792
1.57600,-386.9744598
1.57650,-460.2211177
1.57700,-542.6236077
1.57750,-569.1755212
1.57800,-537.1301084
1.57850,-495.0132801
1.57900,-465.714617
1.57950,-423.9029831
1.58000,-346.3836036
1.58050,-252.383726
1.58100,-180.6630402
1.58150,-146.4812665
1.58200,-133.0527126
1.58250,-114.4358537
1.58300,-80.86446889
1.58350,-44.24113996
1.58400,-27.45544754
1.58450,-38.44244622
1.58500,-53.7021666
1.58550,-38.44244622
1.58600,13.13540869
1.58650,68.9859853
1.58700,93.70673232
1.58750,90.65478824
1.58800,91.26517706
1.58850,108.3560639
1.58900,125.1417563
1.58950,126.6677284
1.59000,126.6677284
1.59050,144.9793928
1.59100,177.0248056
1.59150,207.8494408
1.59200,243.5571865
1.59250,301.2389296
1.59300,373.2648098
1.59350,430.0309696
1.59400,458.7192439
1.59450,476.725714
1.59500,501.446461
1.59550,527.6931801
1.59600,546.0048445
1.59650,558.8230097
1.59700,566.7580643
1.59750,553.9398991
1.59800,501.446461
1.59850,410.4985275
1.59900,300.6285407
1.59950,188.0118043
1.60000,77.83662312
1.60050,-25.62428109
1.60100,-113.5202705
1.60150,-173.3383744
1.60200,-201.1110655
1.60250,-208.4357313
1.60300,-212.4032586
1.60350,-216.3707859
1.60400,-206.6045649
1.60450,-168.1500695
1.60500,-99.48132776
1.60550,-12.19572715
1.60600,75.70026226
1.60650,145.894976
1.60700,188.6221931
1.60750,207.239052
1.60800,205.7130799
1.60850,172.4468895
1.60900,98.28464843
1.60950,4.58996527
1.61000,-75.37096955
1.61050,-141.2929616
1.61100,-220.3383132
1.61150,-310.6758579
1.61200,-369.5783786
1.61250,-372.0199338
1.61300,-341.8056875
1.61350,-304.8771641
1.61400,-253.6045036
1.61450,-181.273429
1.61500,-117.1826034
1.61550,-91.24107875
1.61600,-87.88394026
1.61650,-73.23460869
1.61700,-44.85152878
1.61750,-25.9294755
1.61800,-25.9294755
1.61850,-35.39050214
1.61900,-45.15672319
1.61950,-42.10477911
1.62000,-13.72169919
1.62050,25.34318499
1.62100,28.70032348
1.62150,-29.28661398
1.62200,-119.3189643
1.62250,-191.6500389
1.62300,-228.2733678
1.62350,-234.6824504
1.62400,-209.3513145
1.62450,-153.5007379
1.62500,-89.4099123
1.62550,-39.05283503
1.62600,-2.429506107
1.62650,25.03799059
1.62700,31.75226756
1.62750,15.27176954
1.62800,4.895159678
1.62850,31.44707315
1.62900,86.38206653
1.62950,137.3495326
1.63000,170.3105287
1.63050,192.5897204
1.63100,210.9013849
1.63150,225.245522
1.63200,234.0961599
1.63250,231.6546046
1.63300,209.0702184
1.63350,171.2261119
1.63400,138.5703103
1.63450,118.7326738
1.63500,94.62231554
1.63550,47.92757116
1.63600,-14.94247682
1.63650,-72.62421988
1.63700,-103.4488551
1.63750,-98.87093894
1.63800,-69.87747021
1.63850,-42.10477911
1.63900,-23.48792024
1.63950,11.30424224
1.64000,73.86909582
1.64050,115.0703409
1.64100,69.90156852
1.64150,-47.90347285
1.64200,-141.9033504
1.64250,-138.2410175
1.64300,-60.11124916
1.64350,25.03799059
1.64400,89.73920502
1.64450,151.083281
1.64500,214.8689122
1.64550,261.2584621
1.64600,283.8428483
1.64650,304.9012624
1.64700,342.1349802
1.64750,374.180393
1.64800,362.5830055
1.64850,305.2064569
1.64900,249.9662691
1.64950,240.200048
1.65000,262.7844342
1.65050,273.161044
1.65100,251.4922411
1.65150,215.479301
1.65200,173.6676671
1.65250,111.7132024
1.65300,21.6808521
1.65350,-80.86446889
1.65400,-181.273429
1.65450,-278.3252507
1.65500,-358.8965743
1.65550,-387.890043
1.65600,-349.4355477
1.65650,-268.864224
1.65700,-184.0201787
1.65750,-108.0267712
1.65800,-39.05283503
1.65850,16.49254717
1.65900,46.70679353
1.65950,48.23276557
1.66000,21.07046329
1.66050,-32.94894688
1.66100,-101.922883
1.66150,-162.9617646
1.66200,-201.4162599
1.66250,-218.8123412
1.66300,-220.0331188
1.66350,-204.468204
1.66400,-181.273429
1.66450,-163.8773478
1.66500,-150.4487938
1.66550,-121.7605195
1.66600,-70.18266462
1.66650,-18.60480972
1.66700,2.758798824
1.66750,-7.007422223
1.66800,-22.57233702
1.66850,-16.46844886
1.66900,10.38865902
1.66950,30.22629552
1.67000,18.93410243
1.67050,-11.89053275
1.67100,-24.70869787
1.67150,1.232826785
1.67200,43.96004386
1.67250,68.07040207
1.67300,63.18729155
1.67350,48.53795998
1.67400,40.60290538
1.67450,31.14187874
1.67500,-10.0593663
1.67550,-109.2475488
1.67600,-251.4681428
1.67650,-375.0718779
1.67700,-417.799095
1.67750,-372.3251282
1.67800,-282.292778
1.67850,-187.987706
1.67900,-98.26055013
1.67950,-14.0268936
1.68000,54.94704254
1.68050,108.6612583
1.68100,156.5767803
1.68150,196.5572477
1.68200,211.8169681
1.68250,202.6611359
1.68300,193.5053036
1.68350,195.0312757
1.68400,187.4014155
1.68450,152.9144474
1.68500,108.6612583
1.68550,83.02492805
1.68600,77.83662312
1.68650,69.2911797
1.68700,34.80421163
1.68750,-29.28661398
1.68800,-109.5527432
1.68850,-188.9032892
1.68900,-262.1499471
1.68950,-335.7017993
1.69000,-402.2341802
1.69050,-431.5328433
1.69100,-404.370541
1.69150,-336.9225769
1.69200,-259.7083918
1.69250,-180.0526514
1.69300,-93.3774396
1.69350,-11.28014393
1.69400,47.92757116
1.69450,93.40153791
1.69500,143.1482264
1.69550,183.4338882
1.69600,183.1286938
1.69650,146.2001704
1.69700,118.7326738
1.69750,132.1612277
1.69800,166.0378069
1.69850,187.7066099
1.69900,199.3039974
1.69950,228.2974661
1.70000,284.7584315
1.70050,344.271341
1.70100,377.5375315
1.70150,378.7583091
1.70200,359.225867
1.70250,321.3817605
1.70300,257.5961293
1.70350,177.33
1.70400,109.8820359
1.70450,58.60937543
1.70500,-26.23466991
1.70550,-187.6825116
1.70600,-380.8705717
1.70650,-495.9288634
1.70700,-475.1756436
1.70750,-365.3056569
1.70800,-244.4486714
1.70850,-137.6306287
1.70900,-36.00089095
1.70950,49.4535432
1.71000,96.7586764
1.71050,111.7132024
1.71100,116.5963129
1.71150,108.9664527
1.71200,71.12234615
1.71250,19.54449125
1.71300,-0.5983396609
1.71350,22.59643532
1.71400,44.26523827
1.71450,11.30424224
1.71500,-72.62421988
1.71550,-158.3838484
1.71600,-208.1305369
1.71650,-228.5785622
1.71700,-246.5850323
1.71750,-269.4746128
1.71800,-281.3771947
1.71850,-268.5590296
1.71900,-239.8707553
1.71950,-215.1500083
1.72000,-202.942232
1.72050,-193.4812053
1.72100,-173.6435688
1.72150,-140.3773784
1.72200,-99.48132776
1.72250,-58.89047153
1.72300,-23.48792024
1.72350,10.38865902
1.72400,52.50548728
1.72450,103.7781478
1.72500,153.5248362
1.72550,193.810498
1.72600,229.2130493
1.72650,265.5311839
1.72700,294.2194582
1.72750,303.070096
1.72800,297.5765967
1.72850,294.829847
1.72900,295.7454302
1.72950,278.9597378
1.73000,223.1091612
1.73050,127.888506
1.73100,5.200354085
1.73150,-123.2864916
1.73200,-224.3058405
1.73250,-267.9486408
1.73300,-259.7083918
1.73350,-241.3967273
1.73400,-243.8382826
1.73450,-253.6045036
1.73500,-238.6499777
1.73550,-193.4812053
1.73600,-138.2410175
1.73650,-88.49432908
1.73700,-46.68269522
1.73750,-13.72169919
1.73800,9.473075793
1.73850,36.02498926
1.73900,81.80415042
1.73950,142.843032
1.74000,195.0312757
1.74050,224.6351332
1.74100,241.4208256
1.74150,255.154574
1.74200,258.2065181
1.74250,238.9792704
1.74300,201.4403582
1.74350,160.2391132
1.74400,116.9015073
1.74450,64.10287477
1.74500,6.421131716
1.74550,-32.33855806
1.74600,-44.54633437
1.74650,-57.97488831
1.74700,-104.6696327
1.74750,-171.2020136
1.74800,-209.3513145
1.74850,-201.1110655
1.74900,-185.8513451
1.74950,-204.468204
1.75000,-235.903228
1.75050,-224.9162293
1.75100,-150.1435994
1.75150,-35.08530773
1.75200,94.92750995
1.75250,229.5182437
1.75300,346.1025075
1.75350,419.0439709
1.75400,456.2776887
1.75450,490.7646567
1.75500,521.5892919
1.75550,501.446461
1.75600,408.6673611
1.75650,290.8623197
1.75700,211.2065793
1.75750,173.0572783
1.75800,133.3820053
1.75850,73.86909582
1.75900,17.40813039
1.75950,-16.46844886
1.76000,-39.05283503
1.76050,-62.55280442
1.76100,-77.81252481
1.76150,-74.15019192
1.76200,-66.52033172
1.76250,-82.39044092
1.76300,-125.117658
1.76350,-169.3708471
1.76400,-195.9227606
1.76450,-210.5720922
1.76500,-224.6110349
1.76550,-224.3058405
1.76600,-189.2084836
1.76650,-124.8124636
1.76700,-59.50086035
1.76750,-10.0593663
1.76800,31.14187874
1.76850,70.81715174
1.76900,98.28464843
1.76950,105.6093142
1.77000,98.28464843
1.77050,75.70026226
1.77100,20.76526888
1.77150,-74.45538632
1.77200,-193.1760109
1.77250,-303.6563865
1.77300,-380.8705717
1.77350,-405.8965131
1.77400,-374.1562947
1.77450,-319.2213013
1.77500,-296.6369151
1.77550,-321.3576622
1.77600,-343.9420483
1.77650,-311.8966355
1.77700,-236.5136168
1.77750,-163.8773478
1.77800,-101.922883
1.77850,-20.74117057
1.77900,83.63531686
1.77950,173.9728615
1.78000,224.3299388
1.78050,250.5766579
1.78100,278.9597378
1.78150,305.5116513
1.78200,308.2584009
1.78250,275.9077937
1.78300,216.0896898
1.78350,146.5053649
1.78400,89.1288162
1.78450,52.50548728
1.78500,20.15488006
1.78550,-28.67622517
1.78600,-81.16966329
1.78650,-97.95535572
1.78700,-69.87747021
1.78750,-34.78011332
1.78800,-30.50739162
1.78850,-52.48138897
1.78900,-72.62421988
1.78950,-77.81252481
1.79000,-72.31902547
1.79050,-55.83852745
1.79100,-30.81258602
1.79150,-13.11131038
1.79200,-14.0268936
1.79250,-23.18272583
1.79300,-24.70869787
1.79350,-26.23466991
1.79400,-33.8645301
1.79450,-20.43597616
1.79500,52.50548728
1.79550,176.7196112
1.79600,289.0311532
1.79650,338.7778417
1.79700,335.1155088
1.79750,320.4661772
1.79800,317.4142332
1.79850,316.1934555
1.79900,300.6285407
1.79950,270.1091
1.80000,236.2325207
1.80050,205.7130799
1.80100,169.7001398
1.80150,113.2391744
1.80200,40.29771097
1.80250,-21.65675379
1.80300,-56.14372186
1.80350,-83.61121856
1.80400,-135.4942679
1.80450,-207.2149537
1.80500,-265.81228
1.80550,-297.2473039
1.80600,-321.6628566
1.80650,-349.1303533
1.80700,-355.2342414
1.80750,-319.8316901
1.80800,-263.9811135
1.80850,-224.3058405
1.80900,-203.2474264
1.80950,-171.2020136
1.81000,-116.2670202
1.81050,-67.74110936
1.81100,-67.74110936
1.81150,-124.8124636
1.81200,-206.6045649
1.81250,-266.7278632
1.81300,-276.1888898
1.81350,-237.7343944
1.81400,-171.8124024
1.81450,-95.51380046
1.81500,-15.55286564
1.81550,63.79768036
1.81600,134.602783
1.81650,191.6741372
1.81700,245.6935474
1.81750,310.6999562
1.81800,386.6933637
1.81850,459.3296327
1.81900,512.1282653
1.81950,527.9983745
1.82000,486.7971294
1.82050,379.0635035
1.82100,231.0442158
1.82150,96.45348199
1.82200,14.35618632
1.82250,-19.52039294
1.82300,-31.42297484
1.82350,-35.69569655
1.82400,-36.61127977
1.82450,-41.7995847
1.82500,-56.75411068
1.82550,-71.70863666
1.82600,-73.5398031
1.82650,-63.77358206
1.82700,-50.65022252
1.82750,-32.33855806
1.82800,-4.565866961
1.82850,22.90162973
1.82900,39.07693334
1.82950,48.84315439
1.83000,66.23923563
1.83050,92.7911491
1.83100,118.7326738
1.83150,141.6222543
1.83200,163.9014461
1.83250,181.2975273
1.83300,191.3689428
1.83350,209.0702184
1.83400,242.0312145
1.83450,259.7324901
1.83500,209.0702184
1.83550,72.34312378
1.83600,-108.0267712
1.83650,-267.338252
1.83700,-370.1887674
1.83750,-430.0068713
1.83800,-485.5522535
1.83850,-561.8508554
1.83900,-644.2533455
1.83950,-696.4415892
1.84000,-696.1363948
1.84050,-649.136456
1.84100,-570.3962988
1.84150,-468.4613667
1.84200,-356.455019
1.84250,-253.6045036
1.84300,-163.8773478
1.84350,-74.45538632
1.84400,9.167881386
1.84450,57.08340339
1.84500,62.27170833
1.84550,70.20676293
1.84600,128.4988948
1.84650,213.3429401
1.84700,257.2909348
1.84750,244.1675753
1.84800,238.9792704
1.84850,300.3233463
1.84900,402.5634729
1.84950,465.1283265
1.85000,454.7517166
1.85050,419.3491653
1.85100,424.8426647
1.85150,476.725714
1.85200,522.5048751
1.85250,524.641236
1.85300,497.7841281
1.85350,471.8426035
1.85400,439.1868018
1.85450,365.3297552
1.85500,245.3883529
1.85550,112.6287856
1.85600,-9.448977484
1.85650,-134.5786846
1.85700,-274.3577234
1.85750,-405.8965131
1.85800,-496.8444466
1.85850,-548.4223015
1.85900,-591.1495186
1.85950,-636.0130965
1.86000,-659.2078715
1.86050,-634.18193
1.86100,-569.4807156
1.86150,-498.9808074
1.86200,-443.7406196
1.86250,-385.7536822
1.86300,-290.533027
1.86350,-153.5007379
1.86400,-9.143783077
1.86450,108.6612583
1.86500,199.6091918
1.86550,274.9922105
1.86600,320.7713716
1.86650,319.8557884
1.86700,291.4727085
1.86750,271.635072
1.86800,255.154574
1.86850,197.7780253
1.86900,91.87556587
1.86950,-5.786644592
1.87000,-45.767112
1.87050,-40.88400148
1.87100,-29.59180839
1.87150,-19.82558735
1.87200,-4.260672553
1.87250,5.505548493
1.87300,-4.260672553
1.87350,-17.9944209
1.87400,-10.66975512
1.87450,13.13540869
1.87500,36.63537808
1.87550,63.49248596
1.87600,108.0508695
1.87650,160.849502
1.87700,203.8819135
1.87750,238.3688816
1.87800,268.2779335
1.87850,266.4467671
1.87900,204.7974967
1.87950,107.1352863
1.88000,21.98604651
1.88050,-47.59827845
1.88100,-145.5656833
1.88150,-281.6823892
1.88200,-399.4874305
1.88250,-444.3510085
1.88300,-424.8185664
1.88350,-381.4809605
1.88400,-327.1563559
1.88450,-245.669449
1.88500,-135.1890735
1.88550,-25.01389228
1.88600,48.23276557
1.88650,70.81715174
1.88700,62.27170833
1.88750,65.3236524
1.88800,109.8820359
1.88850,177.33
1.88900,213.3429401
1.88950,189.2325819
1.89000,135.2131718
1.89050,104.9989254
1.89100,112.6287856
1.89150,121.174229
1.89200,89.43401061
1.89250,21.6808521
1.89300,-31.42297484
1.89350,-21.04636498
1.89400,51.89509846
1.89450,135.5183662
1.89500,173.9728615
1.89550,151.9988642
1.89600,91.26517706
1.89650,17.40813039
1.89700,-50.95541693
1.89750,-98.56574453
1.89800,-118.7085754
1.89850,-120.8449363
1.89900,-114.7410481
1.89950,-90.93588434
1.90000,-34.16972451
1.90050,44.57043268
1.90100,117.2067017
1.90150,167.8689734
1.90200,206.0182744
1.90250,240.8104368
1.90300,267.9727391
1.90350,282.6220707
1.90400,287.8103756
1.90450,286.8947924
1.90500,275.9077937
1.90550,248.1351026
1.90600,195.3364701
1.90650,111.408008
1.90700,11.91463105
1.90750,-70.79305343
1.90800,-122.6761027
1.90850,-172.7279856
1.90900,-259.098003
1.90950,-378.4290164
1.91000,-489.2145864
1.91050,-556.9677449
1.91100,-569.4807156
1.91150,-525.2275265
1.91200,-436.1107595
1.91250,-336.6173825
1.91300,-254.2148925
1.91350,-180.9682346
1.91400,-90.02030112
1.91450,19.84968566
1.91500,130.0248668
1.91550,228.9078549
1.91600,310.6999562
1.91650,352.8167845
1.91700,336.9466753
1.91750,284.4532371
1.91800,239.8948536
1.91850,217.3104674
1.91900,194.7260813
1.91950,156.2715859
1.92000,101.9469813
1.92050,23.81721296
1.92100,-88.18913467
1.92150,-211.182481
1.92200,-294.1953599
1.92250,-313.727802
1.92300,-293.5849711
1.92350,-263.6759191
1.92400,-220.948702
1.92450,-139.7669896
1.92500,-12.50092156
1.92550,126.0573395
1.92600,221.5831891
1.92650,254.2389908
1.92700,274.0766273
1.92750,350.6804236
1.92800,470.9270202
1.92850,534.1022626
1.92900,471.8426035
1.92950,342.1349802
1.93000,249.9662691
1.93050,212.1221625
1.93100,158.4079468
1.93150,60.44054188
1.93200,-15.55286564
1.93250,-9.143783077
1.93300,48.23276557
1.93350,79.97298397
1.93400,57.69379221
1.93450,12.52501987
1.93500,-28.06583635
1.93550,-72.31902547
1.93600,-129.6955741
1.93650,-184.3253731
1.93700,-210.8772866
1.93750,-208.4357313
1.93800,-202.0266487
1.93850,-215.4552027
1.93900,-249.6369763
1.93950,-281.3771947
1.94000,-291.4486102
1.94050,-283.5135556
1.94100,-282.5979724
1.94150,-307.013525
1.94200,-354.6238526
1.94250,-408.0328739
1.94300,-447.0977581
1.94350,-449.234119
1.94400,-402.2341802
1.94450,-328.9875223
1.94500,-285.9551109
1.94550,-304.2667753
1.94600,-335.3966049
1.94650,-293.8901655
1.94700,-167.2344863
1.94750,-46.98788963
1.94800,-21.9619482
1.94850,-65.90994291
1.94900,-72.62421988
1.94950,12.52501987
1.95000,145.2845872
1.95050,256.9857404
1.95100,337.8622585
1.95150,420.8751374
1.95200,517.6217646
1.95250,600.3294491
1.95300,636.0371948
1.95350,618.946308
1.95400,570.7255916
1.95450,516.0957926
1.95500,463.29716
1.95550,403.4790561
1.95600,331.4531759
1.95650,260.0376845
1.95700,202.3559415
1.95750,149.5573089
1.95800,79.36259516
1.95850,-18.60480972
1.95900,-140.9877672
1.95950,-288.0914717
1.96000,-458.3899512
1.96050,-620.7533761
1.96100,-723.6038915
1.96150,-739.7791951
1.96200,-694.000034
1.96250,-625.6364866
1.96300,-541.0976357
1.96350,-419.0198726
1.96400,-256.9616421
1.96450,-92.76705079
1.96500,27.47954585
1.96550,97.0638708
1.96600,150.7780866
1.96650,222.4987724
1.96700,304.596068
1.96750,355.2583397
1.96800,346.1025075
1.96850,292.9986805
1.96900,237.4532983
1.96950,207.5442464
1.97000,203.2715247
1.97050,211.8169681
1.97100,217.9208563
1.97150,208.1546352
1.97200,179.7715553
1.97250,148.6417257
1.97300,133.9923941
1.97350,130.6352557
1.97400,104.9989254
1.97450,25.03799059
1.97500,-107.1111879
1.97550,-254.5200869
1.97600,-368.6627953
1.97650,-422.0718167
1.97700,-420.5458447
1.97750,-385.7536822
1.97800,-328.0719391
1.97850,-243.8382826
1.97900,-139.4617952
1.97950,-41.18919589
1.98000,34.19382282
1.98050,105.9145086
1.98100,197.1676365
1.98150,288.4207644
1.98200,326.8752598
1.98250,289.9467365
1.98300,218.2260507
1.98350,165.1222237
1.98400,142.843032
1.98450,131.5508389
1.98500,124.5313675
1.98550,133.6871997
1.98600,151.083281
1.98650,147.7261425
1.98700,111.408008
1.98750,65.62884681
1.98800,32.97304519
1.98850,11.91463105
1.98900,7.031520532
1.98950,47.31718235
1.99000,148.6417257
1.99050,268.5831279
1.99100,343.6609522
1.99150,354.6479509
1.99200,322.9077325
1.99250,258.8169069
1.99300,156.2715859
1.99350,35.10940604
1.99400,-67.74110936
1.99450,-150.4487938
1.99500,-238.3447833
1.99550,-323.494023
1.99600,-364.0848792
1.99650,-350.6563253
1.99700,-321.3576622
1.99750,-292.3641934
1.99800,-232.5460895
1.99850,-131.2215462
1.99900,-33.55933569
1.99950,19.54449125
2.00000,41.82368301
2.00050,59.52495866
2.00100,71.42754056
2.00150,83.63531686
2.00200,128.4988948
2.00250,208.4598296
2.00300,271.635072
2.00350,282.6220707
2.00400,274.0766273
2.00450,286.589598
2.00500,302.7649016
2.00550,292.9986805
2.00600,279.5701266
2.00650,296.6610134
2.00700,320.4661772
2.00750,297.8817911
2.00800,216.0896898
2.00850,102.8625645
2.00900,-17.07883768
2.00950,-124.5072692
2.01000,-191.6500389
2.01050,-218.8123412
2.01100,-255.7408645
2.01150,-336.0069937
2.01200,-417.1887062
2.01250,-437.0263427
2.01300,-401.318597
2.01350,-362.5589072
2.01400,-332.0394664
2.01450,-269.4746128
2.01500,-160.5202093
2.01550,-51.56580575
2.01600,3.674382047
2.01650,-8.838588669
2.01700,-69.26708139
2.01750,-138.8514063
2.01800,-176.0851241
2.01850,-159.2994317
2.01900,-104.9748271
2.01950,-44.85152878
2.02000,13.7457975
2.02050,87.90803857
2.02100,186.7910267
2.02150,302.7649016
2.02200,426.0634423
2.02250,548.7515942
2.02300,656.1800257
2.02350,731.8682388
2.02400,769.1019566
2.02450,761.4720964
2.02500,686.3942721
2.02550,520.6737087
2.02600,273.4662385
2.02650,-3.650283738
2.02700,-248.1110043
2.02750,-413.5263733
2.02800,-482.5003094
2.02850,-470.2925331
2.02900,-421.1562335
2.02950,-385.7536822
2.03000,-387.5848486
2.03050,-412.3055957
2.03100,-436.1107595
2.03150,-459.6107288
2.03200,-506.3054732
2.03250,-581.0781031
2.03300,-649.136456
2.03350,-670.805259
2.03400,-647.3052896
2.03450,-605.7988501
2.03500,-540.7924413
2.03550,-410.7796236
2.03600,-209.6565089
2.03650,-14.94247682
2.03700,80.27817838
2.03750,77.83662312
2.03800,74.47948463
2.03850,151.9988642
2.03900,293.6090694
2.03950,425.1478591
2.04000,505.7191827
2.04050,547.5308166
2.04100,566.1476754
2.04150,555.1606768
2.04200,511.5178765
2.04250,456.5828831
2.04300,412.9400828
2.04350,380.2842812
2.04400,343.3557578
2.04450,293.6090694
2.04500,224.9403276
2.04550,124.2261731
2.04600,-15.24767123
2.04650,-176.3903185
2.04700,-328.6823279
2.04750,-454.1172295
2.04800,-550.8638567
2.04850,-609.1559886
2.04900,-607.0196278
2.04950,-525.8379153
2.05000,-376.9030444
2.05050,-206.9097593
2.05100,-76.59174718
2.05150,-8.838588669
2.05200,40.29771097
2.05250,144.6741984
2.05300,317.1090388
2.05350,482.2192133
2.05400,559.1282041
2.05450,550.8879551
2.05500,520.9789031
2.05550,505.1087939
2.05600,485.8815462
2.05650,447.7322453
2.05700,402.2582785
2.05750,343.6609522
2.05800,227.0766885
2.05850,32.05746196
2.05900,-179.747457
2.05950,-314.6433852
2.06000,-348.5199644
2.06050,-343.9420483
2.06100,-360.4225463
2.06150,-386.0588766
2.06200,-378.4290164
2.06250,-339.974521
2.06300,-308.8446914
2.06350,-290.8382214
2.06400,-249.0265875
2.06450,-172.4227912
2.06500,-111.0787152
2.06550,-110.7735208
2.06600,-152.5851547
2.06650,-188.9032892
2.06700,-217.5915635
2.06750,-271.0005849
2.06800,-344.5524371
2.06850,-390.9419871
2.06900,-385.7536822
2.06950,-347.6043812
2.07000,-285.6499165
2.07050,-176.0851241
2.07100,-19.82558735
2.07150,124.5313675
2.07200,206.9338576
2.07250,253.3234075
2.07300,332.979148
2.07350,461.771188
2.07400,582.6281735
2.07450,637.5631668
2.07500,623.5242241
2.07550,574.3879244
2.07600,517.3165702
2.07650,470.3166314
2.07700,447.7322453
2.07750,447.7322453
2.07800,438.576413
2.07850,389.7453078
2.07900,310.0895674
2.07950,230.433827
2.08000,142.5378376
2.08050,-6.702227815
2.08100,-237.4292
2.08150,-471.5133107
2.08200,-594.2014626
2.08250,-576.500187
2.08300,-505.6950844
2.08350,-480.669143
2.08400,-510.2730005
2.08450,-530.110637
2.08500,-498.675613
2.08550,-441.2990644
2.08600,-400.4030137
2.08650,-379.9549884
2.08700,-349.1303533
2.08750,-288.3966661
2.08800,-210.8772866
2.08850,-138.2410175
2.08900,-72.31902547
2.08950,-0.2931452532
2.09000,84.24570568
2.09050,176.7196112
2.09100,268.5831279
2.09150,341.8297858
2.09200,359.8362558
2.09250,296.355819
2.09300,184.044277
2.09350,101.3365925
2.09400,89.73920502
2.09450,112.6287856
2.09500,116.9015073
2.09550,101.9469813
2.09600,97.97945403
2.09650,110.7976192
2.09700,133.9923941
2.09750,184.3494714
2.09800,269.8039056
2.09850,336.031092
2.09900,321.0765661
2.09950,251.4922411
2.10000,209.0702184
2.10050,204.1871079
2.10100,169.3949454
2.10150,92.48595469
2.10200,57.69379221
2.10250,108.6612583
2.10300,161.7650852
2.10350,126.3625339
2.10400,31.75226756
2.10450,-42.10477911
2.10500,-96.42938368
2.10550,-177.9162905
2.10600,-269.7798073
2.10650,-317.6953293
2.10700,-336.9225769
2.10750,-387.2796542
2.10800,-449.234119
2.10850,-432.753621
2.10900,-325.3251895
2.10950,-226.137007
2.11000,-206.6045649
2.11050,-213.6240362
2.11100,-164.1825422
2.11150,-64.68916528
2.11200,10.08346461
2.11250,27.17435144
2.11300,18.62890802
2.11350,22.59643532
2.11400,36.02498926
2.11450,28.39512907
2.11500,-16.77364327
2.11550,-83.91641296
2.11600,-133.9682958
2.11650,-144.9552945
2.11700,-130.0007685
2.11750,-114.1306593
2.11800,-98.87093894
2.11850,-69.87747021
2.11900,-28.06583635
2.11950,7.336714939
2.12000,26.25876822
2.12050,32.66785078
2.12100,27.17435144
2.12150,-3.955478146
2.12200,-77.81252481
2.12250,-199.5850935
2.12300,-354.0134638
2.12350,-499.2860018
2.12400,-585.6560192
2.12450,-589.9287409
2.12500,-529.8054426
2.12550,-431.8380377
2.12600,-301.5200257
2.12650,-140.9877672
2.12700,22.29124092
2.12750,155.9663915
2.12800,255.4597684
2.12850,346.1025075
2.12900,451.3945781
2.12950,571.6411748
2.13000,687.9202441
2.13050,766.6604013
2.13100,774.2902615
2.13150,707.4526862
2.13200,609.1800869
2.13250,534.1022626
2.13300,498.3945169
2.13350,484.0503798
2.13400,477.0309084
2.13450,474.2841587
2.13500,457.1932719
2.13550,394.6284183
2.13600,284.1480427
2.13650,166.6481958
2.13700,78.75220634
2.13750,12.52501987
2.13800,-60.11124916
2.13850,-142.5137392
2.13900,-211.7928698
2.13950,-252.6889204
2.14000,-268.864224
2.14050,-268.2538352
2.14100,-247.1954211
2.14150,-199.2798991
2.14200,-129.3903797
2.14250,-67.43591495
2.14300,-60.41644357
2.14350,-133.357907
2.14400,-249.0265875
2.14450,-329.2927168
2.14500,-335.7017993
2.14550,-306.7083306
2.14600,-302.4356089
2.14650,-323.494023
2.14700,-311.5914411
2.14750,-219.42273
2.14800,-56.44891627
2.14850,124.5313675
2.14900,260.9532677
2.14950,309.1739842
2.15000,266.4467671
2.15050,170.9209175
2.15100,70.51195733
2.15150,-8.533394261
2.15200,-60.72163798
2.15250,-79.33849685
2.15300,-61.33202679
2.15350,-19.52039294
2.15400,31.44707315
2.15450,103.7781478
2.15500,230.433827
2.15550,422.095915
2.15600,637.2579724
2.15650,802.9785358
2.15700,867.3745558
2.15750,829.5304493
2.15800,716.9137128
2.15850,557.602232
2.15900,377.5375315
2.15950,207.8494408
2.16000,54.64184813
2.16050,-131.831935
2.16100,-403.1497634
2.16150,-706.2078103
2.16200,-889.6296493
2.16250,-860.941375
2.16300,-703.766255
2.16350,-579.5521311
2.16400,-545.3703574
2.16450,-531.3314147
2.16500,-476.7016157
2.16550,-403.4549578
2.16600,-341.1952987
2.16650,-269.7798073
2.16700,-171.2020136
2.16750,-80.55927448
2.16800,-36.91647418
2.16850,-21.04636498
2.16900,4.284770862
2.16950,24.12240736
2.17000,-11.89053275
2.17050,-104.9748271
2.17100,-192.2604277
2.17150,-227.0525902
2.17200,-233.4616727
2.17250,-257.8772254
2.17300,-295.1109431
2.17350,-293.5849711
2.17400,-225.5266181
2.17450,-119.3189643
2.17500,-19.52039294
2.17550,56.16782017
2.17600,108.0508695
2.17650,125.7521451
2.17700,107.1352863
2.17750,84.24570568
2.17800,91.87556587
2.17850,122.0898122
2.17900,140.7066711
2.17950,144.6741984
2.18000,163.5962517
2.18050,205.7130799
2.18100,244.1675753
2.18150,263.394823
2.18200,279.2649322
2.18250,299.1025687
2.18300,311.6155394
2.18350,324.7388989
2.18400,372.3492266
2.18450,453.8361334
2.18500,517.3165702
2.18550,534.7126514
2.18600,547.2256222
2.18650,589.3424504
2.18700,616.8099471
2.18750,557.2970376
2.18800,403.4790561
2.18850,202.3559415
2.18900,-25.9294755
2.18950,-285.6499165
2.19000,-541.0976357
2.19050,-722.9935027
2.19100,-806.311576
2.19150,-824.9284349
2.19200,-799.9024934
2.19250,-715.0584481
2.19300,-577.7209646
2.19350,-443.7406196
2.19400,-345.7732148
2.19450,-245.9746435
2.19500,-102.5332718
2.19550,51.28470965
2.19600,142.5378376
2.19650,151.9988642
2.19700,131.8560333
2.19750,135.2131718
2.19800,166.9533902
2.19850,204.1871079
2.19900,226.1611053
2.19950,222.8039668
2.20000,196.8624421
2.20050,172.1416951
2.20100,183.1286938
2.20150,237.7584928
2.20200,312.2259282
2.20250,383.3362252
2.20300,451.0893837
2.20350,517.3165702
2.20400,562.4853425
2.20450,563.7061202
2.20500,519.1477367
2.20550,436.1348578
2.20600,312.5311226
2.20650,156.5767803
2.20700,3.674382047
2.20750,-121.1501307
2.20800,-248.7213931
2.20850,-420.2406503
2.20900,-605.1884613
2.20950,-714.4480593
2.21000,-713.2272816
2.21050,-661.0390379
2.21100,-619.8377929
2.21150,-571.0066877
2.21200,-474.5652548
2.21250,-357.0654079
2.21300,-284.1239444
2.21350,-270.6953905
2.21400,-271.9161681
2.21450,-261.5395582
2.21500,-256.6564477
2.21550,-265.5070855
2.21600,-253.6045036
2.21650,-191.3448445
2.21700,-108.63716
2.21750,-76.89694159
2.21800,-126.3384356
2.21850,-200.5006767
2.21900,-208.7409257
2.21950,-133.357907
2.22000,-53.09177779
2.22050,-39.05283503
2.22100,-57.36449949
2.22150,-18.91000412
2.22200,91.26517706
2.22250,205.4078855
2.22300,290.5571253
2.22350,390.9660854
2.22400,525.2516248
2.22450,618.3359192
2.22500,592.0892001
2.22550,476.1153252
2.22600,363.4985887
2.22650,295.4402358
2.22700,243.5571865
2.22750,187.4014155
2.22800,145.5897816
2.22850,128.4988948
2.22900,118.7326738
2.22950,100.1158149
2.23000,74.47948463
2.23050,39.99251656
2.23100,-13.41650478
2.23150,-83.30602415
2.23200,-151.0591827
2.23250,-205.994176
2.23300,-259.7083918
2.23350,-319.8316901
2.23400,-370.7991562
2.23450,-383.9225157
2.23500,-350.6563253
2.23550,-295.1109431
2.23600,-254.2148925
2.23650,-242.3123106
2.23700,-237.4292
2.23750,-210.2668978
2.23800,-152.8903491
2.23850,-75.98135836
2.23900,18.93410243
2.23950,139.4858935
2.24000,274.3818217
2.24050,384.5570029
2.24100,438.2712186
2.24150,446.816662
2.24200,445.9010788
2.24250,441.6283571
2.24300,399.5115288
2.24350,298.1869855
2.24400,183.7390826
2.24450,137.0443382
2.24500,173.6676671
2.24550,207.239052
2.24600,144.369004
2.24650,-0.9035340686
2.24700,-119.0137698
2.24750,-133.6631014
2.24800,-73.5398031
2.24850,-10.0593663
2.24900,29.00551789
2.24950,56.77820899
2.25000,69.2911797
2.25050,44.57043268
2.25100,-19.82558735
2.25150,-102.2280774
2.25200,-185.2409563
2.25250,-263.6759191
2.25300,-322.8836342
2.25350,-335.3966049
2.25400,-285.6499165
2.25450,-179.4422626
2.25500,-37.52686299
2.25550,108.0508695
2.25600,220.3624115
2.25650,280.7909042
2.25700,300.3233463
2.25750,297.2714023
2.25800,267.0571559
2.25850,198.6936086
2.25900,104.693731
2.25950,10.08346461
2.26000,-81.78005211
2.26050,-183.7149843
2.26100,-292.9745822
2.26150,-395.8250976
2.26200,-491.3509472
2.26250,-573.4482429
2.26300,-596.6430179
2.26350,-505.38989
2.26400,-307.3187194
2.26450,-83.00082974
2.26500,89.73920502
2.26550,192.284526
2.26600,239.8948536
2.26650,248.440297
2.26700,233.1805766
2.26750,203.8819135
2.26800,144.0638096
2.26850,39.68732216
2.26900,-63.77358206
2.26950,-87.57874586
2.27000,-26.23466991
2.27050,30.53148992
2.27100,24.12240736
2.27150,12.21982546
2.27200,70.81715174
2.27250,161.7650852
2.27300,178.5507777
2.27350,100.7262037
2.27400,26.25876822
2.27450,48.53795998
2.27500,168.4793622
2.27550,329.0116207
2.27600,470.011437
2.27650,540.2061508
2.27700,510.6022932
2.27750,406.8361946
2.27800,291.7779029
2.27850,203.5767191
2.27900,136.7391438
2.27950,85.77167772
2.28000,65.62884681
2.28050,74.17429023
2.28100,77.2262343
2.28150,37.24576689
2.28200,-60.11124916
2.28250,-209.3513145
2.28300,-379.0394052
2.28350,-511.4937782
2.28400,-566.4287715
2.28450,-571.3118821
2.28500,-583.8248528
2.28550,-601.220934
2.28600,-560.3248834
2.28650,-438.8575091
2.28700,-299.0784704
2.28750,-205.994176
2.28800,-151.0591827
2.28850,-96.12418927
2.28900,-46.98788963
2.28950,-32.64375247
2.29000,-43.63075115
2.29050,-37.8320574
2.29100,-10.97494952
2.29150,-7.923005446
2.29200,-58.28008272
2.29250,-126.64363
2.29300,-143.7345169
2.29350,-82.39044092
2.29400,12.83021428
2.29450,72.9535126
2.29500,74.47948463
2.29550,57.3885978
2.29600,63.18729155
2.29650,78.75220634
2.29700,59.83015306
2.29750,3.979576455
2.29800,-29.8970028
2.29850,13.7457975
2.29900,135.5183662
2.29950,295.1350414
2.30000,450.1738005
2.30050,557.2970376
2.30100,569.5048139
2.30150,470.011437
2.30200,302.7649016
2.30250,136.7391438
2.30300,0.01204915453
2.30350,-129.0851853
2.30400,-260.9291694
2.30450,-357.9809911
2.30500,-384.838099
2.30550,-362.5589072
2.30600,-343.3316595
2.30650,-338.7537434
2.30700,-310.3706635
2.30750,-237.1240056
2.30800,-152.8903491
2.30850,-94.59821723
2.30900,-46.37750082
2.30950,24.12240736
2.31000,94.31712113
2.31050,99.20023166
2.31100,27.17435144
2.31150,-44.24113996
2.31200,-32.94894688
2.31250,57.99898662
2.31300,153.8300306
2.31350,198.998803
2.31400,209.6806072
2.31450,242.0312145
2.31500,324.4337045
2.31550,420.569943
2.31600,461.1607992
2.31650,417.8231933
2.31700,339.9986193
2.31750,298.7973743
2.31800,302.7649016
2.31850,302.1545128
2.31900,273.4662385
2.31950,250.8818523
2.32000,249.0506858
2.32050,213.6481345
2.32100,99.50542607
2.32150,-46.98788963
2.32200,-142.2085448
2.32250,-176.3903185
2.32300,-207.5201481
2.32350,-256.6564477
2.32400,-286.5654997
2.32450,-285.9551109
2.32500,-302.4356089
2.32550,-363.169296
2.32600,-427.2601216
2.32650,-446.4873693
2.32700,-419.9354558
2.32750,-359.2017687
2.32800,-253.2993092
2.32850,-106.5007991
2.32900,24.73279618
2.32950,87.60284416
2.33000,96.14828758
2.33050,103.4729534
2.33100,132.1612277
2.33150,162.9858629
2.33200,180.3819441
2.33250,184.9598602
2.33300,173.3624727
2.33350,141.0118655
2.33400,94.31712113
2.33450,47.92757116
2.33500,7.641909347
2.33550,-23.48792024
2.33600,-43.02036233
2.33650,-58.58527712
2.33700,-88.18913467
2.33750,-130.6111573
2.33800,-156.552682
2.33850,-147.3968498
2.33900,-124.2020748
2.33950,-119.6241587
2.34000,-133.357907
2.34050,-136.7150455
2.34100,-110.4683264
2.34150,-63.16319324
2.34200,-19.52039294
2.34250,-4.260672553
2.34300,-21.65675379
2.34350,-42.10477911
2.34400,-19.21519853
2.34450,69.90156852
2.34500,202.6611359
2.34550,324.1285101
2.34600,383.0310308
2.34650,362.2778111
2.34700,296.0506246
2.34750,246.6091306
2.34800,244.7779641
2.34850,263.0896286
2.34900,259.4272957
2.34950,234.7065487
2.35000,217.6156618
2.35050,215.479301
2.35100,219.4468283
2.35150,243.2519921
2.35200,307.0376233
2.35250,376.6219483
2.35300,377.8427259
2.35350,284.7584315
2.35400,148.0313369
2.35450,14.66138072
2.35500,-135.1890735
2.35550,-335.3966049
2.35600,-545.6755518
2.35650,-672.9416198
2.35700,-667.7533149
2.35750,-566.7339659
2.35800,-437.9419259
2.35850,-324.4096062
2.35900,-246.2798379
2.35950,-220.3383132
2.36000,-245.3642546
2.36050,-277.4096674
2.36100,-262.1499471
2.36150,-192.5656221
2.36200,-119.9293531
2.36250,-92.76705079
2.36300,-106.8059935
2.36350,-126.64363
2.36400,-133.9682958
2.36450,-131.2215462
2.36500,-111.9942985
2.36550,-57.36449949
2.36600,36.63537808
2.36650,148.0313369
2.36700,246.3039362
2.36750,305.5116513
2.36800,312.2259282
2.36850,279.875321
2.36900,244.1675753
2.36950,219.4468283
2.37000,167.8689734
2.37050,46.09640472
2.37100,-115.0462425
2.37150,-220.6435076
2.37200,-209.9617033
2.37250,-126.3384356
2.37300,-70.79305343
2.37350,-107.1111879
2.37400,-216.9811747
2.37450,-321.968051
2.37500,-336.3121881
2.37550,-225.5266181
2.37600,-43.02036233
2.37650,103.167759
2.37700,138.2651158
2.37750,76.9210399
2.37800,-3.650283738
2.37850,-36.91647418
2.37900,-9.448977484
2.37950,49.14834879
2.38000,99.50542607
2.38050,123.6157843
2.38100,129.414478
2.38150,134.2975885
2.38200,151.6936698
2.38250,200.8299694
2.38300,304.596068
2.38350,454.1413278
2.38400,583.2385623
2.38450,614.3683919
2.38500,529.5243465
2.38550,375.0959762
2.38600,193.5053036
2.38650,-10.36456071
2.38700,-230.7149231
2.38750,-414.1367621
2.38800,-493.7925025
2.38850,-454.4224239
2.38900,-355.8446302
2.38950,-285.9551109
2.39000,-292.3641934
2.39050,-347.9095756
2.39100,-385.1432934
2.39150,-368.9679898
2.39200,-325.6303839
2.39250,-299.9940536
2.39300,-297.2473039
2.39350,-291.4486102
2.39400,-271.3057793
2.39450,-248.4161987
2.39500,-226.4422014
2.39550,-199.5850935
2.39600,-174.8643465
2.39650,-160.5202093
2.39700,-133.357907
2.39750,-52.17619456
2.39800,77.2262343
2.39850,188.9273875
2.39900,226.7714941
2.39950,205.7130799
2.40000,179.4663609
2.40050,170.0053342
2.40100,156.2715859
2.40150,122.3950066
2.40200,85.1612889
2.40250,67.15481885
2.40300,66.23923563
2.40350,68.9859853
2.40400,76.00545667
2.40450,97.36906521
2.40500,128.1937004
2.40550,147.1157537
2.40600,147.7261425
2.40650,148.0313369
2.40700,159.32353
2.40750,166.3430014
2.40800,165.4274181
2.40850,192.284526
2.40900,278.9597378
2.40950,393.4076407
2.41000,469.0958538
2.41050,490.7646567
2.41100,503.5828219
2.41150,525.2516248
2.41200,500.5308778
2.41250,381.8102532
2.41300,216.7000786
2.41350,111.1028136
2.41400,111.1028136
2.41450,157.1871691
2.41500,156.5767803
2.41550,74.47948463
2.41600,-48.81905608
2.41650,-152.8903491
2.41700,-210.8772866
2.41750,-238.0395889
2.41800,-258.1824198
2.41850,-271.9161681
2.41900,-264.2863079
2.41950,-233.4616727
2.42000,-200.8058711
2.42050,-193.4812053
2.42100,-211.7928698
2.42150,-219.1175356
2.42200,-165.4033198
2.42250,-39.05283503
2.42300,109.8820359
2.42350,215.1741066
2.42400,265.8363783
2.42450,312.5311226
2.42500,396.4595848
2.42550,496.5633505
2.42600,561.8749537
2.42650,578.6606462
2.42700,577.7450629
2.42750,595.1411442
2.42800,640.3099165
2.42850,690.9721882
2.42900,696.1604931
2.42950,594.8359498
2.43000,372.654421
2.43050,96.14828758
2.43100,-136.1046567
2.43150,-290.533027
2.43200,-414.1367621
2.43250,-546.591135
2.43300,-654.9351498
2.43350,-687.8961458
2.43400,-663.4805932
2.43450,-647.0000952
2.43500,-649.4416504
2.43550,-619.8377929
2.43600,-546.2859406
2.43650,-492.5717249
2.43700,-494.0976969
2.43750,-481.5847262
2.43800,-382.3965437
2.43850,-242.0071162
2.43900,-163.8773478
2.43950,-154.1111267
2.44000,-124.8124636
2.44050,-35.39050214
2.44100,62.88209714
2.44150,137.9599214
2.44200,220.0572171
2.44250,306.7324289
2.44300,316.4986499
2.44350,200.2195806
2.44400,25.95357381
2.44450,-112.2994929
2.44500,-203.8578152
2.44550,-289.9226382
2.44600,-378.7342108
2.44650,-451.3704798
2.44700,-505.38989
2.44750,-528.584665
2.44800,-477.6171989
2.44850,-342.4160763
2.44900,-195.0071774
2.44950,-114.1306593
2.45000,-92.46185638
2.45050,-72.01383106
2.45100,-38.13725181
2.45150,-17.07883768
2.45200,-10.36456071
2.45250,7.336714939
2.45300,39.99251656
2.45350,75.70026226
2.45400,126.6677284
2.45450,206.6286632
2.45500,286.8947924
2.45550,324.7388989
2.45600,323.5181213
2.45650,320.1609828
2.45700,326.264871
2.45750,325.6544822
2.45800,317.7194276
2.45850,311.9207338
2.45900,286.2844036
2.45950,210.5961905
2.46000,105.6093142
2.46050,34.49901722
2.46100,21.37565769
2.46150,27.47954585
2.46200,10.38865902
2.46250,-32.03336365
2.46300,-81.4748577
2.46350,-122.0657139
2.46400,-133.9682958
2.46450,-96.73457809
2.46500,-19.52039294
2.46550,56.77820899
2.46600,98.58984284
2.46650,103.7781478
2.46700,87.29764976
2.46750,60.13534747
2.46800,34.80421163
2.46850,24.42760177
2.46900,32.36265637
2.46950,55.86262576
2.47000,102.2521757
2.47050,179.4663609
2.47100,268.5831279
2.47150,328.4012318
2.47200,338.1674529
2.47250,315.2778723
2.47300,288.11557
2.47350,256.9857404
2.47400,195.6416645
2.47450,81.49895601
2.47500,-76.59174718
2.47550,-230.4097287
2.47600,-314.6433852
2.47650,-299.9940536
2.47700,-226.7473958
2.47750,-172.7279856
2.47800,-182.7994011
2.47850,-235.903228
2.47900,-276.1888898
2.47950,-270.3901961
2.48000,-231.3253119
2.48050,-196.5331494
2.48100,-187.987706
2.48150,-199.5850935
2.48200,-216.9811747
2.48250,-236.2084224
2.48300,-245.9746435
2.48350,-220.0331188
2.48400,-154.4163211
2.48450,-96.73457809
2.48500,-92.15666197
2.48550,-107.4163824
2.48600,-64.99435969
2.48650,47.62237676
2.48700,170.6157231
2.48750,267.9727391
2.48800,353.4271733
2.48850,398.90114
2.48900,327.4856486
2.48950,154.135225
2.49000,36.63537808
2.49050,86.07687213
2.49100,206.3234688
2.49150,219.7520227
2.49200,106.5248974
2.49250,2.758798824
2.49300,-0.2931452532
2.49350,50.36912643
2.49400,82.10934483
2.49450,81.49895601
2.49500,66.54443003
2.49550,44.26523827
2.49600,22.59643532
2.49650,3.369187639
2.49700,-41.18919589
2.49750,-134.5786846
2.49800,-233.1564783
2.49850,-265.2018911
2.49900,-226.4422014
2.49950,-189.8188724
2.50000,-211.182481
2.50050,-272.5265569
2.50100,-314.3381908
2.50150,-287.1758885
2.50200,-185.5461507
2.50250,-71.09824784
2.50300,-34.47491892
2.50350,-86.05277382
2.50400,-102.5332718
2.50450,51.28470965
2.50500,365.940144
2.50550,698.6020484
2.50600,922.3095492
2.50650,1000.134123
2.50700,942.4523801
2.50750,777.6474
2.50800,570.4203971
2.50850,396.7647792
2.50900,268.5831279
2.50950,142.843032
2.51000,11.60943665
2.51050,-74.76058073
2.51100,-101.0072998
2.51150,-128.7799909
2.51200,-217.2863691
2.51250,-338.7537434
2.51300,-420.8510391
2.51350,-444.9613973
2.51400,-454.7276183
2.51450,-483.4158926
2.51500,-513.630139
2.51550,-510.8833893
2.51600,-467.8509779
2.51650,-404.6757355
2.51700,-338.448549
2.51750,-274.9681122
2.51800,-220.948702
2.51850,-188.2929004
2.51900,-175.4747353
2.51950,-154.7215156
2.52000,-98.87093894
2.52050,-16.16325445
2.52100,57.99898662
2.52150,104.693731
2.52200,135.2131718
2.52250,159.0183356
2.52300,154.7456139
2.52350,99.20023166
2.52400,5.505548493
2.52450,-84.83199619
2.52500,-150.4487938
2.52550,-200.1954823
2.52600,-233.1564783
2.52650,-211.4876754
2.52700,-98.56574453
2.52750,78.14181753
2.52800,236.5377151
2.52850,318.3298164
2.52900,329.6220095
2.52950,298.1869855
2.53000,223.71955
2.53050,106.5248974
2.53100,-10.0593663
2.53150,-77.5073304
2.53200,-99.17613335
2.53250,-111.9942985
2.53300,-117.7929922
2.53350,-89.10471789
2.53400,-34.16972451
2.53450,0.6224379699
2.53500,-0.2931452532
2.53550,-8.838588669
2.53600,-6.397033407
2.53650,-6.091839
2.53700,-7.923005446
2.53750,3.979576455
2.53800,18.62890802
2.53850,7.641909347
2.53900,-5.481450184
2.53950,36.94057249
2.54000,132.4664221
2.54050,205.7130799
2.54100,226.1611053
2.54150,252.7130187
2.54200,329.3168151
2.54250,403.1738617
2.54300,401.9530841
2.54350,325.6544822
2.54400,215.1741066
2.54450,92.18076028
2.54500,-18.60480972
2.54550,-68.04630376
2.54600,-39.66322385
2.54650,9.778270201
2.54700,27.47954585
2.54750,25.03799059
2.54800,24.73279618
2.54850,2.148410008
2.54900,-55.22813864
2.54950,-98.56574453
2.55000,-91.85146756
2.55050,-82.08524652
2.55100,-113.2150761
2.55150,-130.9163517
2.55200,-65.90994291
2.55250,35.10940604
2.55300,65.93404122
2.55350,18.32371362
2.55400,-13.11131038
2.55450,22.59643532
2.55500,86.07687213
2.55550,131.2456445
2.55600,154.135225
2.55650,141.9274487
2.55700,71.42754056
2.55750,-22.26714261
2.55800,-60.72163798
2.55850,-21.04636498
2.55900,42.73926623
2.55950,86.68726094
2.56000,116.2911185
2.56050,124.8365619
2.56100,77.2262343
2.56150,-17.9944209
2.56200,-91.54627316
2.56250,-105.8904103
2.56300,-101.6176886
2.56350,-112.6046873
2.56400,-102.5332718
2.56450,-36.61127977
2.56500,41.21329419
2.56550,56.47301458
2.56600,-7.617811038
2.56650,-115.9618258
2.56700,-235.903228
2.56750,-340.8901042
2.56800,-390.0264039
2.56850,-359.8121575
2.56900,-286.8706941
2.56950,-231.0201175
2.57000,-209.6565089
2.57050,-198.3643159
2.57100,-184.6305675
2.57150,-177.0007073
2.57200,-169.6760415
2.57250,-141.2929616
2.57300,-91.24107875
2.57350,-44.85152878
2.57400,-15.85806005
2.57450,13.44060309
2.57500,61.66131951
2.57550,114.459952
2.57600,134.9079774
2.57650,97.97945403
2.57700,14.96657513
2.57750,-61.94241561
2.57800,-75.37096955
2.57850,-19.52039294
2.57900,31.14187874
2.57950,-7.617811038
2.58000,-128.1696021
2.58050,-225.5266181
2.58100,-220.6435076
2.58150,-153.5007379
2.58200,-116.877409
2.58250,-125.117658
2.58300,-104.3644383
2.58350,-9.143783077
2.58400,113.5443688
2.58450,193.2001092
2.58500,210.5961905
2.58550,184.6546658
2.58600,122.0898122
2.58650,27.78474026
2.58700,-65.6047485
2.58750,-125.7280468
2.58800,-160.5202093
2.58850,-194.3967886
2.58900,-212.4032586
2.58950,-167.8448751
2.59000,-51.26061134
2.59050,83.33012246
2.59100,175.4988336
2.59150,218.5312451
2.59200,245.6935474
2.59250,271.3298776
2.59300,269.8039056
2.59350,224.9403276
2.59400,175.1936392
2.59450,182.8234994
2.59500,253.3234075
2.59550,319.8557884
2.59600,324.1285101
2.59650,280.4857098
2.59700,232.5701878
2.59750,176.4144168
2.59800,81.49895601
2.59850,-28.06583635
2.59900,-76.59174718
2.59950,-33.8645301
2.60000,38.77173893
2.60050,68.07040207
2.60100,47.31718235
2.60150,16.79774158
2.60200,-1.208728476
2.60250,-13.72169919
2.60300,-26.53986432
2.60350,-43.32555674
2.60400,-72.01383106
2.60450,-108.3319656
2.60500,-121.1501307
2.60550,-84.83199619
2.60600,-21.04636498
2.60650,18.62890802
2.60700,11.91463105
2.60750,-18.60480972
2.60800,-43.93594555
2.60850,-56.75411068
2.60900,-57.97488831
2.60950,-40.88400148
2.61000,-2.734700515
2.61050,39.07693334
2.61100,65.3236524
2.61150,75.39506786
2.61200,73.56390141
2.61250,42.73926623
2.61300,-39.35802944
2.61350,-154.1111267
2.61400,-234.9876448
2.61450,-227.9681734
2.61500,-144.6501001
2.61550,-44.54633437
2.61600,25.6483794
2.61650,68.07040207
2.61700,108.9664527
2.61750,158.1027523
2.61800,194.7260813
2.61850,191.9793316
2.61900,154.4404195
2.61950,112.0183968
2.62000,76.9210399
2.62050,30.22629552
2.62100,-23.48792024
2.62150,-26.84505872
2.62200,66.23923563
2.62250,199.9143862
2.62300,257.2909348
2.62350,198.0832198
2.62400,100.7262037
2.62450,46.70679353
2.62500,24.42760177
2.62550,-17.07883768
2.62600,-75.98135836
2.62650,-108.9423544
2.62700,-106.8059935
2.62750,-102.2280774
2.62800,-115.9618258
2.62850,-138.2410175
2.62900,-155.3319044
2.62950,-161.7409869
2.63000,-154.4163211
2.63050,-137.6306287
2.63100,-124.8124636
2.63150,-110.4683264
2.63200,-68.35149817
2.63250,7.947103755
2.63300,85.1612889
2.63350,132.1612277
2.63400,164.5118349
2.63450,200.8299694
2.63500,210.9013849
2.63550,154.4404195
2.63600,51.89509846
2.63650,-32.94894688
2.63700,-78.72810803
2.63750,-115.6566314
2.63800,-158.9942373
2.63850,-182.1890122
2.63900,-169.6760415
2.63950,-151.0591827
2.64000,-159.9098205
2.64050,-195.9227606
2.64100,-243.8382826
2.64150,-290.8382214
2.64200,-310.9810523
2.64250,-275.8836954
2.64300,-203.5526208
2.64350,-157.1630708
2.64400,-160.8254037
2.64450,-164.1825422
2.64500,-118.7085754
2.64550,-53.09177779
2.64600,-21.9619482
2.64650,-17.07883768
2.64700,5.200354085
2.64750,38.16135012
2.64800,38.77173893
2.64850,22.59643532
2.64900,55.86262576
2.64950,151.3884754
2.65000,241.4208256
2.65050,280.4857098
2.65100,301.544124
2.65150,337.5570641
2.65200,354.9531453
2.65250,308.5635953
2.65300,214.2585234
2.65350,112.93398
2.65400,7.947103755
2.65450,-110.163132
2.65500,-207.5201481
2.65550,-232.5460895
2.65600,-193.7863997
2.65650,-155.02671
2.65700,-148.6176274
2.65750,-142.8189336
2.65800,-93.98782842
2.65850,-11.58533834
2.65900,51.28470965
2.65950,49.75873761
2.66000,-17.68922649
2.66050,-114.7410481
2.66100,-197.1435382
2.66150,-237.1240056
2.66200,-223.6954517
2.66250,-160.2150149
2.66300,-72.62421988
2.66350,-6.091839
2.66400,5.810742901
2.66450,-26.53986432
2.66500,-61.02683239
2.66550,-59.80605475
2.66600,-20.43597616
2.66650,26.56396262
2.66700,44.26523827
2.66750,31.14187874
2.66800,34.19382282
2.66850,87.90803857
2.66900,147.7261425
2.66950,131.2456445
2.67000,42.73926623
2.67050,-9.754171892
2.67100,40.29771097
2.67150,125.7521451
2.67200,145.894976
2.67250,108.9664527
2.67300,94.92750995
2.67350,122.3950066
2.67400,138.8755047
2.67450,119.3430626
2.67500,90.04439943
2.67550,64.40806918
2.67600,26.86915703
2.67650,-25.9294755
2.67700,-88.79952349
2.67750,-186.1565395
2.67800,-332.0394664
2.67850,-458.0847568
2.67900,-463.8834506
2.67950,-348.21477
2.68000,-218.8123412
2.68050,-155.6370988
2.68100,-128.1696021
2.68150,-75.06577514
2.68200,1.538021193
2.68250,57.08340339
2.68300,72.34312378
2.68350,68.68079089
2.68400,78.75220634
2.68450,124.2261731
2.68500,200.524775
2.68550,271.3298776
2.68600,300.9337351
2.68650,294.5246526
2.68700,281.4012931
2.68750,265.2259894
2.68800,227.9922717
2.68850,175.804028
2.68900,142.5378376
2.68950,142.843032
2.69000,164.8170293
2.69050,205.7130799
2.69100,274.0766273
2.69150,348.2388683
2.69200,374.7907818
2.69250,329.0116207
2.69300,237.4532983
2.69350,135.8235606
2.69400,35.71979486
2.69450,-58.58527712
2.69500,-135.7994623
2.69550,-196.5331494
2.69600,-260.0135862
2.69650,-333.2602441
2.69700,-396.130292
2.69750,-433.9743986
2.69800,-452.2860631
2.69850,-452.2860631
2.69900,-417.1887062
2.69950,-348.5199644
2.70000,-280.4616115
2.70050,-233.7668671
2.70100,-184.6305675
2.70150,-112.9098817
2.70200,-50.95541693
2.70250,-48.81905608
2.70300,-95.20860605
2.70350,-122.9812971
2.70400,-92.15666197
2.70450,-26.23466991
2.70500,39.68732216
2.70550,108.9664527
2.70600,198.6936086
2.70650,296.355819
2.70700,365.0245608
2.70750,380.2842812
2.70800,344.5765354
2.70850,274.3818217
2.70900,194.4208869
2.70950,129.1092836
2.71000,86.07687213
2.71050,47.62237676
2.71100,-7.31261663
2.71150,-82.08524652
2.71200,-163.266959
2.71250,-238.6499777
2.71300,-295.4161375
2.71350,-315.8641628
2.71400,-294.5005543
2.71450,-250.857754
2.71500,-209.3513145
2.71550,-174.2539576
2.71600,-137.0202399
2.71650,-104.6696327
2.71700,-97.95535572
2.71750,-116.2670202
2.71800,-129.6955741
2.71850,-119.0137698
2.71900,-103.1436606
2.71950,-106.1956047
2.72000,-105.8904103
2.72050,-49.42944489
2.72100,71.73273496
2.72150,187.7066099
2.72200,223.71955
2.72250,186.1806379
2.72300,140.7066711
2.72350,122.0898122
2.72400,109.2716471
2.72450,86.99245535
2.72500,72.03792937
2.72550,62.88209714
2.72600,27.47954585
2.72650,-26.23466991
2.72700,-25.62428109
2.72750,66.23923563
2.72800,179.4663609
2.72850,226.1611053
2.72900,227.3818829
2.72950,268.5831279
2.73000,354.0375621
2.73050,396.4595848
2.73100,348.8492572
2.73150,262.1740454
2.73200,192.8949148
2.73250,133.9923941
2.73300,67.46001326
2.73350,14.05099191
2.73400,-7.923005446
2.73450,-24.40350346
2.73500,-60.41644357
2.73550,-102.8384662
2.73600,-135.1890735
2.73650,-170.8968192
2.73700,-215.4552027
2.73750,-238.3447833
2.73800,-222.4746741
2.73850,-204.468204
2.73900,-223.0850629
2.73950,-255.7408645
2.74000,-256.6564477
2.74050,-227.0525902
2.74100,-195.0071774
2.74150,-148.9228218
2.74200,-48.51386167
2.74250,103.167759
2.74300,243.5571865
2.74350,315.2778723
2.74400,319.8557884
2.74450,292.3882917
2.74500,258.8169069
2.74550,217.9208563
2.74600,150.4728922
2.74650,35.41460045
2.74700,-124.5072692
2.74750,-291.7538046
2.74800,-412.3055957
2.74850,-450.4548966
2.74900,-401.318597
2.74950,-286.5654997
2.75000,-144.9552945
2.75050,-10.97494952
2.75100,107.7456751
2.75150,217.6156618
2.75200,295.1350414
2.75250,296.0506246
2.75300,220.0572171
2.75350,130.3300612
2.75400,72.64831819
2.75450,14.05099191
2.75500,-90.32549553
2.75550,-203.5526208
2.75600,-236.5136168
2.75650,-170.8968192
2.75700,-83.91641296
2.75750,-47.59827845
2.75800,-60.41644357
2.75850,-95.20860605
2.75900,-143.4293225
2.75950,-184.9357619
2.76000,-167.2344863
2.76050,-66.21513732
2.76100,56.77820899
2.76150,116.5963129
2.76200,99.20023166
2.76250,67.15481885
2.76300,76.00545667
2.76350,126.6677284
2.76400,186.1806379
2.76450,220.6676059
2.76500,199.9143862
2.76550,118.7326738
2.76600,23.51201855
2.76650,-14.0268936
2.76700,25.95357381
2.76750,82.10934483
2.76800,66.84962444
2.76850,-45.15672319
2.76900,-204.468204
2.76950,-340.2797154
2.77000,-410.4744292
2.77050,-413.2211789
2.77100,-372.3251282
2.77150,-321.6628566
2.77200,-287.1758885
2.77250,-270.3901961
2.77300,-254.5200869
2.77350,-234.9876448
2.77400,-227.0525902
2.77450,-237.4292
2.77500,-237.1240056
2.77550,-183.7149843
2.77600,-80.55927448
2.77650,15.88215836
2.77700,58.60937543
2.77750,64.40806918
2.77800,87.29764976
2.77850,145.5897816
2.77900,209.0702184
2.77950,253.3234075
2.78000,291.4727085
2.78050,339.6934249
2.78100,383.3362252
2.78150,401.6478897
2.78200,405.9206114
2.78250,424.2322759
2.78300,464.2127433
2.78350,506.0243771
2.78400,527.6931801
2.78450,514.5698205
2.78500,455.056911
2.78550,354.0375621
2.78600,236.2325207
2.78650,122.7002011
2.78700,15.27176954
2.78750,-78.72810803
2.78800,-129.3903797
2.78850,-122.6761027
2.78900,-94.90341164
2.78950,-97.3449669
2.79000,-133.6631014
2.79050,-169.3708471
2.79100,-186.1565395
2.79150,-192.5656221
2.79200,-193.1760109
2.79250,-191.0396501
2.79300,-201.7214543
2.79350,-229.7993398
2.79400,-239.5655609
2.79450,-194.3967886
2.79500,-111.0787152
2.79550,-29.59180839
2.79600,53.11587609
2.79650,162.3754741
2.79700,261.868851
2.79750,277.7389602
2.79800,203.8819135
2.79850,119.9534514
2.79900,83.33012246
2.79950,67.15481885
2.80000,29.00551789
2.80050,-20.74117057
2.80100,-59.50086035
2.80150,-102.8384662
2.80200,-175.7799297
2.80250,-272.8317513
2.80300,-375.9874611
2.80350,-478.5327821
2.80400,-559.4093002
2.80450,-570.3962988
2.80500,-487.0782255
2.80550,-350.9615197
2.80600,-226.137007
2.80650,-137.9358231
2.80700,-73.5398031
2.80750,-20.43597616
2.80800,23.20682414
2.80850,62.88209714
2.80900,103.7781478
2.80950,151.3884754
2.81000,220.9728003
2.81050,318.024622
2.81100,400.4271121
2.81150,400.7323065
2.81200,312.2259282
2.81250,216.0896898
2.81300,186.7910267
2.81350,198.6936086
2.81400,166.9533902
2.81450,66.54443003
2.81500,-31.72816925
2.81550,-48.81905608
2.81600,18.93410243
2.81650,104.3885366
2.81700,141.6222543
2.81750,119.9534514
2.81800,76.31065108
2.81850,49.4535432
2.81900,49.75873761
2.81950,64.10287477
2.82000,79.36259516
2.82050,85.46648331
2.82100,76.00545667
2.82150,57.99898662
2.82200,53.4210705
2.82250,71.73273496
2.82300,94.62231554
2.82350,106.219703
2.82400,117.5118961
2.82450,136.4339494
2.82500,137.654727
2.82550,100.4210093
2.82600,54.94704254
2.82650,41.82368301
2.82700,39.07693334
2.82750,-9.754171892
2.82800,-100.0917166
2.82850,-157.7734596
2.82900,-143.4293225
2.82950,-100.0917166
2.83000,-75.67616396
2.83050,-51.87100015
2.83100,10.99904783
2.83150,101.9469813
2.83200,170.0053342
2.83250,186.1806379
2.83300,165.1222237
2.83350,144.6741984
2.83400,164.2066405
2.83450,238.3688816
2.83500,332.3687591
2.83550,379.3686979
2.83600,346.7128963
2.83650,265.5311839
2.83700,188.3169987
2.83750,130.0248668
2.83800,63.49248596
2.83850,-43.32555674
2.83900,-193.4812053
2.83950,-346.0784092
2.84000,-428.7860937
2.84050,-387.890043
2.84100,-246.5850323
2.84150,-98.87093894
2.84200,-25.31908668
2.84250,-22.57233702
2.84300,-22.57233702
2.84350,21.98604651
2.84400,89.43401061
2.84450,120.2586458
2.84500,94.92750995
2.84550,59.52495866
2.84600,72.9535126
2.84650,140.0962823
2.84700,207.8494408
2.84750,221.8883836
2.84800,162.6806685
2.84850,37.85615571
2.84900,-115.6566314
2.84950,-222.7798685
2.85000,-218.5071468
2.85050,-136.4098511
2.85100,-102.2280774
2.85150,-183.7149843
2.85200,-287.4810829
2.85250,-268.864224
2.85300,-126.0332412
2.85350,-1.513922884
2.85400,14.05099191
2.85450,-10.97494952
2.85500,25.95357381
2.85550,110.4924247
2.85600,151.083281
2.85650,121.4794234
2.85700,80.58337279
2.85750,63.79768036
2.85800,35.41460045
2.85850,-38.44244622
2.85900,-137.3254343
2.85950,-224.9162293
2.86000,-296.0265263
2.86050,-351.5719085
2.86100,-370.7991562
2.86150,-343.0264651
2.86200,-293.5849711
2.86250,-251.7733372
2.86300,-212.708453
2.86350,-159.9098205
2.86400,-96.42938368
2.86450,-30.20219721
2.86500,50.06393202
2.86550,152.609253
2.86600,251.4922411
2.86650,310.3947618
2.86700,324.4337045
2.86750,315.5830667
2.86800,295.7454302
2.86850,265.2259894
2.86900,228.9078549
2.86950,191.9793316
2.87000,141.0118655
2.87050,60.13534747
2.87100,-37.22166859
2.87150,-108.0267712
2.87200,-108.63716
2.87250,-32.03336365
2.87300,78.75220634
2.87350,157.4923635
2.87400,169.089751
2.87450,144.0638096
2.87500,126.9729228
2.87550,112.0183968
2.87600,64.10287477
2.87650,-5.481450184
2.87700,-43.93594555
2.87750,-37.22166859
2.87800,-24.09830905
2.87850,-11.28014393
2.87900,39.07693334
2.87950,116.5963129
2.88000,135.5183662
2.88050,68.37559648
2.88100,12.21982546
2.88150,53.11587609
2.88200,123.0053955
2.88250,95.84309317
2.88300,-22.87753142
2.88350,-108.3319656
2.88400,-96.12418927
2.88450,-49.12425049
2.88500,-36.00089095
2.88550,-39.96841825
2.88600,-21.9619482
2.88650,9.778270201
2.88700,26.86915703
2.88750,31.44707315
2.88800,39.38212775
2.88850,50.97951524
2.88900,60.13534747
2.88950,76.9210399
2.89000,119.3430626
2.89050,197.7780253
2.89100,310.3947618
2.89150,433.0829137
2.89200,519.4529311
2.89250,541.4269284
2.89300,524.3360416
2.89350,514.2646261
2.89400,507.5503492
2.89450,450.1738005
2.89500,311.310345
2.89550,125.7521451
2.89600,-42.40997352
2.89650,-157.4682652
2.89700,-224.9162293
2.89750,-274.3577234
2.89800,-332.0394664
2.89850,-397.0458753
2.89900,-442.519842
2.89950,-449.234119
2.90000,-428.4808993
2.90050,-394.9095144
2.90100,-340.5849098
2.90150,-262.7603359
2.90200,-191.9552333
2.90250,-156.2474876
2.90300,-133.0527126
2.90350,-82.08524652
2.90400,-13.41650478
2.90450,23.81721296
2.90500,16.79774158
2.90550,0.01204915453
2.90600,-5.481450184
2.90650,-12.50092156
2.90700,-17.9944209
2.90750,2.148410008
2.90800,40.29771097
2.90850,52.81068169
2.90900,32.66785078
2.90950,29.31071229
2.91000,61.3561251
2.91050,67.76520766
2.91100,-8.228199853
2.91150,-125.7280468
2.91200,-184.6305675
2.91250,-138.5462119
2.91300,-26.23466991
2.91350,90.34959383
2.91400,175.4988336
2.91450,218.2260507
2.91500,230.7390214
2.91550,245.3883529
2.91600,284.4532371
2.91650,330.2323983
2.91700,341.219397
2.91750,296.6610134
2.91800,218.2260507
2.91850,141.3170599
2.91900,81.49895601
2.91950,22.59643532
2.92000,-58.58527712
2.92050,-160.8254037
2.92100,-253.6045036
2.92150,-316.1693572
2.92200,-354.929047
2.92250,-376.5978499
2.92300,-364.695268
2.92350,-303.9615809
2.92400,-211.7928698
2.92450,-108.63716
2.92500,10.99904783
2.92550,149.5573089
2.92600,264.3104062
2.92650,302.7649016
2.92700,266.4467671
2.92750,199.9143862
2.92800,132.4664221
2.92850,72.03792937
2.92900,39.07693334
2.92950,53.72626491
2.93000,99.20023166
2.93050,136.128755
2.93100,148.6417257
2.93150,136.7391438
2.93200,88.21323298
2.93250,5.810742901
2.93300,-63.46838765
2.93350,-79.64369126
2.93400,-67.43591495
2.93450,-68.96188699
2.93500,-63.77358206
2.93550,-5.481450184
2.93600,82.41453923
2.93650,126.9729228
2.93700,108.9664527
2.93750,80.8885672
2.93800,76.31065108
2.93850,71.73273496
2.93900,44.87562709
2.93950,6.421131716
2.94000,-30.50739162
2.94050,-68.04630376
2.94100,-89.71510671
2.94150,-68.35149817
2.94200,-11.89053275
2.94250,32.05746196
