type,name,time_units,begin_time,frequency,count,units
signal,"Noraxon Ultium-RT BRACHIORAD.","s",0.00000,2000,53280,"uV"

time,value
0.00000,0.2966532349
0.00050,-7.638401365
0.00100,-14.04748393
0.00150,-18.93059445
0.00200,-20.15137208
0.00250,-15.57345597
0.00300,-13.43709511
0.00350,-20.45656649
0.00400,-33.57992602
0.00450,-42.12536944
0.00500,-43.34614707
0.00550,-42.12536944
0.00600,-41.82017503
0.00650,-38.15784214
0.00700,-29.30720431
0.00750,-18.62540004
0.00800,-9.774762219
0.00850,-3.06048525
0.00900,1.517430866
0.00950,1.212236458
0.01000,-3.365679658
0.01050,-9.164373404
0.01100,-11.30073426
0.01150,-10.99553985
0.01200,-11.30073426
0.01250,-12.21631748
0.01300,-12.52151189
0.01350,-10.99553985
0.01400,-8.553984588
0.01450,-6.112429327
0.01500,-4.281262881
0.01550,-3.670874065
0.01600,-3.670874065
0.01650,-3.976068473
0.01700,-3.976068473
0.01750,-4.586457288
0.01800,-4.586457288
0.01850,-2.755290842
0.01900,-0.008541172829
0.01950,2.738208496
0.02000,2.738208496
0.02050,1.517430866
0.02100,1.517430866
0.02150,3.348597312
0.02200,4.87456935
0.02250,3.65379172
0.02300,0.6018476426
0.02350,-0.3137355805
0.02400,1.517430866
0.02450,5.484958166
0.02500,7.62131902
0.02550,7.926513427
0.02600,8.842096651
0.02650,10.9784575
0.02700,11.28365191
0.02750,8.536902243
0.02800,4.87456935
0.02850,3.958986127
0.02900,6.095346981
0.02950,8.231707835
0.03000,7.316124612
0.03050,3.65379172
0.03100,0.6018476426
0.03150,-1.229318804
0.03200,-3.365679658
0.03250,-4.891651696
0.03300,-4.281262881
0.03350,-1.839707619
0.03400,-0.008541172829
0.03450,-0.008541172829
0.03500,-0.6189299882
0.03550,-1.229318804
0.03600,-1.839707619
0.03650,-3.06048525
0.03700,-3.365679658
0.03750,-1.839707619
0.03800,-0.9241243959
0.03850,-1.534513211
0.03900,-2.450096434
0.03950,-2.450096434
0.04000,-2.144902027
0.04050,-3.06048525
0.04100,-3.365679658
0.04150,-2.450096434
0.04200,-2.755290842
0.04250,-5.196846104
0.04300,-6.112429327
0.04350,-2.450096434
0.04400,2.127819681
0.04450,3.958986127
0.04500,3.65379172
0.04550,5.179763758
0.04600,7.62131902
0.04650,7.010930204
0.04700,3.65379172
0.04750,1.212236458
0.04800,-0.3137355805
0.04850,-4.891651696
0.04900,-10.38515103
0.04950,-11.60592867
0.05000,-9.469567812
0.05050,-11.30073426
0.05100,-19.23578886
0.05150,-24.11889938
0.05200,-18.93059445
0.05250,-8.553984588
0.05300,-3.365679658
0.05350,-4.891651696
0.05400,-6.112429327
0.05450,-4.586457288
0.05500,-3.365679658
0.05550,-3.976068473
0.05600,-4.281262881
0.05650,-2.450096434
0.05700,-0.9241243959
0.05750,-1.839707619
0.05800,-1.534513211
0.05850,2.433014089
0.05900,9.147291058
0.05950,14.6407904
0.06000,18.30312329
0.06050,20.13428974
0.06100,18.30312329
0.06150,14.03040158
0.06200,11.28365191
0.06250,12.50442954
0.06300,14.6407904
0.06350,16.16676244
0.06400,21.04987296
0.06450,31.73167723
0.06500,43.02387031
0.06550,46.99139761
0.06600,46.07581439
0.06650,47.90698084
0.06700,54.3160634
0.06750,60.11475714
0.06800,61.03034037
0.06850,58.2835907
0.06900,52.48489695
0.06950,41.49789827
0.07000,26.8485667
0.07050,13.72520717
0.07100,6.705735797
0.07150,4.264180535
0.07200,3.348597312
0.07250,2.127819681
0.07300,1.212236458
0.07350,0.6018476426
0.07400,0.6018476426
0.07450,-0.008541172829
0.07500,-3.670874065
0.07550,-13.1319007
0.07600,-26.86564905
0.07650,-39.37861977
0.07700,-48.22925759
0.07750,-53.41756252
0.07800,-56.77470101
0.07850,-60.4370339
0.07900,-65.93053324
0.07950,-72.64481021
0.08000,-77.52792073
0.08050,-77.22272632
0.08100,-71.72922698
0.08150,-64.4045612
0.08200,-56.16431219
0.08250,-47.61886877
0.08300,-39.37861977
0.08350,-33.57992602
0.08400,-30.52798194
0.08450,-28.08642668
0.08500,-24.7292882
0.08550,-20.7617609
0.08600,-17.099428
0.08650,-15.57345597
0.08700,-17.40462241
0.08750,-20.15137208
0.08800,-19.54098327
0.08850,-14.96306715
0.08900,-10.38515103
0.08950,-10.99553985
0.09000,-15.87865037
0.09050,-20.7617609
0.09100,-23.50851057
0.09150,-24.42409379
0.09200,-24.42409379
0.09250,-23.20331616
0.09300,-22.28773294
0.09350,-22.59292734
0.09400,-20.7617609
0.09450,-10.99553985
0.09500,5.179763758
0.09550,21.04987296
0.09600,29.59531637
0.09650,31.73167723
0.09700,31.73167723
0.09750,31.42648282
0.09800,29.90051078
0.09850,28.67973315
0.09900,30.5108996
0.09950,34.78362131
0.10000,37.83556538
0.10050,36.30959334
0.10100,29.90051078
0.10150,19.82909533
0.10200,7.926513427
0.10250,-2.144902027
0.10300,-6.417623735
0.10350,-3.976068473
0.10400,-0.008541172829
0.10450,2.433014089
0.10500,2.127819681
0.10550,1.212236458
0.10600,0.2966532349
0.10650,-1.229318804
0.10700,-3.670874065
0.10750,-5.502040511
0.10800,-8.859178996
0.10850,-15.26826156
0.10900,-21.98253853
0.10950,-23.20331616
0.11000,-17.099428
0.11050,-7.943595773
0.11100,-0.9241243959
0.11150,2.738208496
0.11200,4.569374943
0.11250,5.790152573
0.11300,7.926513427
0.11350,11.58884632
0.11400,14.6407904
0.11450,14.33559599
0.11500,10.36806869
0.11550,5.179763758
0.11600,0.6018476426
0.11650,-1.229318804
0.11700,1.822625273
0.11750,13.42001277
0.11800,27.15376111
0.11850,33.56284367
0.11900,28.37453874
0.11950,17.99792888
0.12000,10.9784575
0.12050,8.231707835
0.12100,7.316124612
0.12150,8.536902243
0.12200,11.89404073
0.12250,14.9459848
0.12300,16.16676244
0.12350,17.69273447
0.12400,20.74467855
0.12450,22.8810394
0.12500,21.04987296
0.12550,17.69273447
0.12600,16.47195684
0.12650,17.99792888
0.12700,19.52390092
0.12750,21.35506737
0.12800,24.10181704
0.12850,26.23817789
0.12900,24.71220585
0.12950,20.43948414
0.13000,17.38754007
0.13050,16.47195684
0.13100,14.9459848
0.13150,10.36806869
0.13200,3.65379172
0.13250,-3.06048525
0.13300,-9.164373404
0.13350,-12.8267063
0.13400,-13.74228952
0.13450,-13.1319007
0.13500,-13.74228952
0.13550,-18.01501123
0.13600,-23.81370497
0.13650,-27.47603787
0.13700,-25.0344826
0.13750,-18.93059445
0.13800,-14.35267833
0.13850,-14.65787274
0.13900,-15.87865037
0.13950,-12.8267063
0.14000,-6.722818142
0.14050,-3.365679658
0.14100,-2.144902027
0.14150,3.65379172
0.14200,15.25117921
0.14250,22.575845
0.14300,17.69273447
0.14350,9.147291058
0.14400,8.536902243
0.14450,14.03040158
0.14500,10.6732631
0.14550,-6.722818142
0.14600,-27.17084346
0.14650,-36.32667569
0.14700,-35.41109247
0.14750,-34.19031484
0.14800,-36.9370645
0.14850,-37.24225891
0.14900,-29.61239872
0.14950,-15.26826156
0.15000,-2.450096434
0.15050,2.433014089
0.15100,-0.6189299882
0.15150,-4.281262881
0.15200,-1.534513211
0.15250,6.705735797
0.15300,11.89404073
0.15350,8.536902243
0.15400,1.822625273
0.15450,-0.9241243959
0.15500,-0.008541172829
0.15550,0.6018476426
0.15600,-0.3137355805
0.15650,-3.06048525
0.15700,-5.196846104
0.15750,-6.722818142
0.15800,-4.891651696
0.15850,1.822625273
0.15900,11.58884632
0.15950,18.9135121
0.16000,21.04987296
0.16050,19.21870651
0.16100,14.9459848
0.16150,11.28365191
0.16200,10.36806869
0.16250,12.80962395
0.16300,15.25117921
0.16350,15.86156803
0.16400,17.38754007
0.16450,21.04987296
0.16500,23.18623381
0.16550,20.13428974
0.16600,15.25117921
0.16650,12.80962395
0.16700,10.6732631
0.16750,4.264180535
0.16800,-5.502040511
0.16850,-11.60592867
0.16900,-11.91112307
0.16950,-10.99553985
0.17000,-12.8267063
0.17050,-16.48903919
0.17100,-19.23578886
0.17150,-21.37214971
0.17200,-22.89812175
0.17250,-21.37214971
0.17300,-17.099428
0.17350,-12.21631748
0.17400,-9.774762219
0.17450,-7.943595773
0.17500,-5.196846104
0.17550,-1.839707619
0.17600,-0.3137355805
0.17650,-0.008541172829
0.17700,0.9070420503
0.17750,1.822625273
0.17800,2.433014089
0.17850,2.433014089
0.17900,3.348597312
0.17950,5.179763758
0.18000,5.790152573
0.18050,2.738208496
0.18100,-1.229318804
0.18150,-2.755290842
0.18200,-1.534513211
0.18250,-2.144902027
0.18300,-7.638401365
0.18350,-14.96306715
0.18400,-19.84617767
0.18450,-22.59292734
0.18500,-27.47603787
0.18550,-34.19031484
0.18600,-38.15784214
0.18650,-36.6318701
0.18700,-32.6643428
0.18750,-29.0020099
0.18800,-25.0344826
0.18850,-18.62540004
0.18900,-12.52151189
0.18950,-9.469567812
0.19000,-7.638401365
0.19050,-4.891651696
0.19100,-0.3137355805
0.19150,4.87456935
0.19200,12.19923514
0.19250,21.66026177
0.19300,31.12128841
0.19350,39.36153742
0.19400,46.3810088
0.19450,51.26411932
0.19500,53.70567458
0.19550,53.70567458
0.19600,54.3160634
0.19650,57.06281307
0.19700,59.19917392
0.19750,56.14722984
0.19800,49.43295287
0.19850,43.32906472
0.19900,41.19270387
0.19950,41.80309268
0.20000,42.10828709
0.20050,40.58231505
0.20100,39.05634301
0.20150,38.75114861
0.20200,39.36153742
0.20250,38.4459542
0.20300,32.64726045
0.20350,21.66026177
0.20400,9.147291058
0.20450,-2.450096434
0.20500,-15.87865037
0.20550,-34.49550924
0.20600,-56.77470101
0.20650,-74.17078224
0.20700,-80.2746704
0.20750,-77.22272632
0.20800,-72.64481021
0.20850,-69.89806054
0.20900,-65.01495001
0.20950,-55.85911778
0.21000,-46.39809114
0.21050,-40.29420299
0.21100,-36.9370645
0.21150,-33.27473161
0.21200,-30.22278754
0.21250,-27.78123227
0.21300,-21.37214971
0.21350,-7.943595773
0.21400,4.569374943
0.21450,7.926513427
0.21500,5.179763758
0.21550,7.926513427
0.21600,18.6083177
0.21650,26.23817789
0.21700,22.8810394
0.21750,16.16676244
0.21800,15.25117921
0.21850,20.13428974
0.21900,24.40701144
0.21950,25.93298348
0.22000,26.8485667
0.22050,27.76414993
0.22100,28.67973315
0.22150,31.73167723
0.22200,35.08881571
0.22250,34.78362131
0.22300,29.59531637
0.22350,26.5433723
0.22400,28.67973315
0.22450,30.5108996
0.22500,25.01740026
0.22550,14.33559599
0.22600,4.87456935
0.22650,-1.229318804
0.22700,-7.333206958
0.22750,-10.69034544
0.22800,-9.469567812
0.22850,-6.417623735
0.22900,-5.502040511
0.22950,-5.807234919
0.23000,-5.502040511
0.23050,-8.553984588
0.23100,-18.32020563
0.23150,-27.78123227
0.23200,-26.56045464
0.23250,-16.7942336
0.23300,-11.30073426
0.23350,-14.65787274
0.23400,-19.23578886
0.23450,-17.099428
0.23500,-11.30073426
0.23550,-7.638401365
0.23600,-5.502040511
0.23650,-0.008541172829
0.23700,9.452485466
0.23750,17.69273447
0.23800,21.35506737
0.23850,21.04987296
0.23900,20.13428974
0.23950,20.74467855
0.24000,22.8810394
0.24050,26.8485667
0.24100,31.73167723
0.24150,34.4784269
0.24200,33.56284367
0.24250,28.98492756
0.24300,23.18623381
0.24350,18.30312329
0.24400,12.80962395
0.24450,5.179763758
0.24500,-3.670874065
0.24550,-10.99553985
0.24600,-15.57345597
0.24650,-21.0669553
0.24700,-27.78123227
0.24750,-32.05395398
0.24800,-30.83317635
0.24850,-28.39162109
0.24900,-30.22278754
0.24950,-36.9370645
0.25000,-43.65134147
0.25050,-45.78770233
0.25100,-43.95653588
0.25150,-41.82017503
0.25200,-41.82017503
0.25250,-43.65134147
0.25300,-46.39809114
0.25350,-48.534452
0.25400,-48.22925759
0.25450,-45.78770233
0.25500,-44.5669247
0.25550,-48.83964641
0.25600,-57.69028423
0.25650,-63.48897797
0.25700,-59.82664508
0.25750,-50.36561844
0.25800,-43.95653588
0.25850,-41.82017503
0.25900,-39.68381417
0.25950,-36.6318701
0.26000,-36.02148128
0.26050,-36.32667569
0.26100,-28.39162109
0.26150,-9.469567812
0.26200,13.11481836
0.26250,31.12128841
0.26300,43.63425913
0.26350,53.09528577
0.26400,56.14722984
0.26450,51.87450814
0.26500,47.60178643
0.26550,52.79009136
0.26600,65.91345089
0.26650,75.37447753
0.26700,71.40695023
0.26750,56.14722984
0.26800,38.14075979
0.26850,24.10181704
0.26900,15.86156803
0.26950,10.9784575
0.27000,7.62131902
0.27050,6.705735797
0.27100,8.842096651
0.27150,8.842096651
0.27200,3.043402904
0.27250,-4.586457288
0.27300,-7.943595773
0.27350,-5.196846104
0.27400,-3.06048525
0.27450,-3.670874065
0.27500,-0.9241243959
0.27550,7.010930204
0.27600,15.55637362
0.27650,18.9135121
0.27700,21.66026177
0.27750,29.90051078
0.27800,41.80309268
0.27850,50.04334169
0.27900,53.09528577
0.27950,54.92645221
0.28000,57.36800748
0.28050,56.45242425
0.28100,50.04334169
0.28150,43.02387031
0.28200,39.97192624
0.28250,40.58231505
0.28300,40.88750946
0.28350,37.22517657
0.28400,26.8485667
0.28450,11.89404073
0.28500,-1.534513211
0.28550,-9.774762219
0.28600,-14.96306715
0.28650,-22.28773294
0.28700,-31.13837076
0.28750,-35.71628687
0.28800,-36.32667569
0.28850,-38.15784214
0.28900,-43.65134147
0.28950,-46.09289674
0.29000,-37.85264773
0.29050,-22.89812175
0.29100,-11.30073426
0.29150,-8.859178996
0.29200,-10.99553985
0.29250,-11.30073426
0.29300,-9.164373404
0.29350,-6.722818142
0.29400,-5.502040511
0.29450,-5.196846104
0.29500,-3.976068473
0.29550,-2.450096434
0.29600,-2.450096434
0.29650,-4.891651696
0.29700,-7.333206958
0.29750,-5.807234919
0.29800,-1.534513211
0.29850,-0.008541172829
0.29900,-4.586457288
0.29950,-11.60592867
0.30000,-16.7942336
0.30050,-19.54098327
0.30100,-19.84617767
0.30150,-16.48903919
0.30200,-7.333206958
0.30250,2.738208496
0.30300,7.010930204
0.30350,4.264180535
0.30400,-0.3137355805
0.30450,-3.976068473
0.30500,-6.112429327
0.30550,-8.859178996
0.30600,-9.469567812
0.30650,-5.502040511
0.30700,-0.008541172829
0.30750,2.127819681
0.30800,-1.534513211
0.30850,-7.333206958
0.30900,-8.859178996
0.30950,-7.02801255
0.31000,-7.638401365
0.31050,-11.60592867
0.31100,-12.8267063
0.31150,-5.196846104
0.31200,5.484958166
0.31250,9.147291058
0.31300,3.65379172
0.31350,-1.229318804
0.31400,1.822625273
0.31450,7.62131902
0.31500,5.179763758
0.31550,-6.112429327
0.31600,-14.96306715
0.31650,-12.8267063
0.31700,-3.976068473
0.31750,1.212236458
0.31800,1.212236458
0.31850,0.9070420503
0.31900,3.65379172
0.31950,6.095346981
0.32000,7.010930204
0.32050,10.06287428
0.32100,18.9135121
0.32150,27.45895552
0.32200,26.5433723
0.32250,14.6407904
0.32300,-0.008541172829
0.32350,-8.859178996
0.32400,-12.8267063
0.32450,-16.7942336
0.32500,-22.28773294
0.32550,-25.64487142
0.32600,-22.89812175
0.32650,-15.57345597
0.32700,-8.553984588
0.32750,-5.807234919
0.32800,-7.638401365
0.32850,-10.99553985
0.32900,-11.30073426
0.32950,-7.638401365
0.33000,-2.450096434
0.33050,1.212236458
0.33100,3.043402904
0.33150,2.738208496
0.33200,0.9070420503
0.33250,-0.9241243959
0.33300,-0.3137355805
0.33350,4.87456935
0.33400,12.19923514
0.33450,17.99792888
0.33500,22.27065059
0.33550,27.76414993
0.33600,33.56284367
0.33650,35.08881571
0.33700,28.37453874
0.33750,18.6083177
0.33800,12.80962395
0.33850,11.58884632
0.33900,11.89404073
0.33950,13.11481836
0.34000,17.38754007
0.34050,22.575845
0.34100,21.66026177
0.34150,12.50442954
0.34200,3.043402904
0.34250,0.6018476426
0.34300,1.822625273
0.34350,-0.008541172829
0.34400,-3.976068473
0.34450,-2.450096434
0.34500,3.043402904
0.34550,4.87456935
0.34600,-0.3137355805
0.34650,-5.196846104
0.34700,-2.144902027
0.34750,3.958986127
0.34800,5.179763758
0.34850,2.738208496
0.34900,0.9070420503
0.34950,0.6018476426
0.35000,-1.534513211
0.35050,-4.891651696
0.35100,-4.281262881
0.35150,-1.229318804
0.35200,-1.534513211
0.35250,-5.807234919
0.35300,-9.774762219
0.35350,-10.38515103
0.35400,-7.943595773
0.35450,-4.281262881
0.35500,-0.3137355805
0.35550,1.517430866
0.35600,-0.6189299882
0.35650,-7.943595773
0.35700,-16.48903919
0.35750,-21.37214971
0.35800,-19.23578886
0.35850,-10.99553985
0.35900,-0.9241243959
0.35950,3.958986127
0.36000,0.6018476426
0.36050,-7.943595773
0.36100,-16.18384478
0.36150,-20.7617609
0.36200,-21.67734412
0.36250,-20.7617609
0.36300,-21.37214971
0.36350,-24.7292882
0.36400,-28.08642668
0.36450,-26.86564905
0.36500,-20.7617609
0.36550,-16.18384478
0.36600,-16.7942336
0.36650,-18.62540004
0.36700,-15.87865037
0.36750,-11.30073426
0.36800,-9.469567812
0.36850,-11.60592867
0.36900,-13.74228952
0.36950,-13.43709511
0.37000,-9.164373404
0.37050,-2.450096434
0.37100,1.822625273
0.37150,-0.008541172829
0.37200,-4.891651696
0.37250,-4.281262881
0.37300,2.433014089
0.37350,6.705735797
0.37400,1.517430866
0.37450,-5.502040511
0.37500,-5.196846104
0.37550,0.6018476426
0.37600,3.348597312
0.37650,1.212236458
0.37700,0.6018476426
0.37750,4.264180535
0.37800,8.536902243
0.37850,10.6732631
0.37900,10.6732631
0.37950,9.757679874
0.38000,7.62131902
0.38050,5.790152573
0.38100,7.316124612
0.38150,12.80962395
0.38200,20.13428974
0.38250,27.45895552
0.38300,33.25764927
0.38350,35.39401012
0.38400,32.03687164
0.38450,27.15376111
0.38500,23.79662263
0.38550,21.66026177
0.38600,20.74467855
0.38650,21.66026177
0.38700,22.27065059
0.38750,17.08234566
0.38800,5.484958166
0.38850,-3.976068473
0.38900,-4.891651696
0.38950,-0.008541172829
0.39000,3.348597312
0.39050,4.87456935
0.39100,6.400541389
0.39150,5.790152573
0.39200,-1.839707619
0.39250,-15.57345597
0.39300,-27.78123227
0.39350,-33.88512043
0.39400,-32.35914839
0.39450,-23.20331616
0.39500,-8.553984588
0.39550,0.9070420503
0.39600,-2.144902027
0.39650,-14.65787274
0.39700,-24.7292882
0.39750,-26.56045464
0.39800,-22.59292734
0.39850,-16.48903919
0.39900,-9.164373404
0.39950,-4.281262881
0.40000,-6.112429327
0.40050,-11.30073426
0.40100,-11.60592867
0.40150,-3.06048525
0.40200,7.316124612
0.40250,13.11481836
0.40300,13.42001277
0.40350,10.9784575
0.40400,7.010930204
0.40450,1.517430866
0.40500,-2.450096434
0.40550,-2.755290842
0.40600,0.2966532349
0.40650,4.264180535
0.40700,5.484958166
0.40750,2.127819681
0.40800,-5.502040511
0.40850,-13.1319007
0.40900,-13.1319007
0.40950,-3.976068473
0.41000,9.147291058
0.41050,17.99792888
0.41100,20.13428974
0.41150,18.30312329
0.41200,15.86156803
0.41250,14.6407904
0.41300,14.33559599
0.41350,15.55637362
0.41400,16.77715125
0.41450,17.38754007
0.41500,17.69273447
0.41550,18.30312329
0.41600,17.69273447
0.41650,14.9459848
0.41700,10.6732631
0.41750,7.62131902
0.41800,5.790152573
0.41850,4.569374943
0.41900,4.87456935
0.41950,6.705735797
0.42000,8.842096651
0.42050,8.536902243
0.42100,5.484958166
0.42150,2.433014089
0.42200,0.9070420503
0.42250,0.9070420503
0.42300,1.822625273
0.42350,1.517430866
0.42400,-1.229318804
0.42450,-5.196846104
0.42500,-6.112429327
0.42550,-2.755290842
0.42600,1.822625273
0.42650,3.65379172
0.42700,1.822625273
0.42750,-0.3137355805
0.42800,-1.534513211
0.42850,-2.755290842
0.42900,-4.281262881
0.42950,-6.112429327
0.43000,-7.943595773
0.43050,-9.164373404
0.43100,-9.164373404
0.43150,-7.943595773
0.43200,-6.722818142
0.43250,-7.02801255
0.43300,-7.02801255
0.43350,-2.450096434
0.43400,4.569374943
0.43450,10.06287428
0.43500,10.36806869
0.43550,6.400541389
0.43600,1.517430866
0.43650,-2.755290842
0.43700,-5.502040511
0.43750,-3.976068473
0.43800,0.6018476426
0.43850,4.264180535
0.43900,4.569374943
0.43950,1.822625273
0.44000,-0.9241243959
0.44050,-1.839707619
0.44100,0.6018476426
0.44150,7.316124612
0.44200,14.9459848
0.44250,20.43948414
0.44300,22.575845
0.44350,23.18623381
0.44400,22.575845
0.44450,18.6083177
0.44500,11.28365191
0.44550,4.264180535
0.44600,-0.008541172829
0.44650,-2.144902027
0.44700,-6.112429327
0.44750,-14.35267833
0.44800,-24.11889938
0.44850,-30.83317635
0.44900,-32.05395398
0.44950,-29.61239872
0.45000,-26.56045464
0.45050,-24.42409379
0.45100,-22.89812175
0.45150,-20.7617609
0.45200,-19.23578886
0.45250,-18.01501123
0.45300,-14.96306715
0.45350,-10.38515103
0.45400,-6.722818142
0.45450,-5.502040511
0.45500,-4.586457288
0.45550,-1.839707619
0.45600,0.6018476426
0.45650,0.2966532349
0.45700,-2.144902027
0.45750,-3.365679658
0.45800,-1.534513211
0.45850,-0.008541172829
0.45900,-0.008541172829
0.45950,-0.9241243959
0.46000,-1.839707619
0.46050,-3.06048525
0.46100,-3.06048525
0.46150,-0.6189299882
0.46200,3.348597312
0.46250,6.095346981
0.46300,5.790152573
0.46350,5.790152573
0.46400,8.536902243
0.46450,10.6732631
0.46500,7.316124612
0.46550,-0.008541172829
0.46600,-4.891651696
0.46650,-3.670874065
0.46700,0.6018476426
0.46750,3.958986127
0.46800,4.264180535
0.46850,3.958986127
0.46900,3.043402904
0.46950,0.2966532349
0.47000,-4.586457288
0.47050,-9.774762219
0.47100,-12.52151189
0.47150,-13.43709511
0.47200,-14.04748393
0.47250,-13.43709511
0.47300,-9.469567812
0.47350,-1.534513211
0.47400,7.010930204
0.47450,13.72520717
0.47500,19.82909533
0.47550,26.23817789
0.47600,30.5108996
0.47650,29.59531637
0.47700,25.32259467
0.47750,21.35506737
0.47800,18.9135121
0.47850,14.6407904
0.47900,8.536902243
0.47950,5.790152573
0.48000,8.842096651
0.48050,14.6407904
0.48100,19.21870651
0.48150,19.82909533
0.48200,16.16676244
0.48250,7.010930204
0.48300,-3.670874065
0.48350,-8.859178996
0.48400,-5.807234919
0.48450,-0.9241243959
0.48500,-1.534513211
0.48550,-5.807234919
0.48600,-6.417623735
0.48650,-3.365679658
0.48700,-1.839707619
0.48750,-2.755290842
0.48800,-1.229318804
0.48850,3.043402904
0.48900,4.569374943
0.48950,-1.229318804
0.49000,-7.943595773
0.49050,-7.638401365
0.49100,-1.229318804
0.49150,2.127819681
0.49200,-0.008541172829
0.49250,-4.586457288
0.49300,-7.333206958
0.49350,-7.333206958
0.49400,-6.112429327
0.49450,-5.807234919
0.49500,-7.333206958
0.49550,-12.21631748
0.49600,-17.099428
0.49650,-15.57345597
0.49700,-5.196846104
0.49750,7.62131902
0.49800,14.33559599
0.49850,11.58884632
0.49900,6.095346981
0.49950,5.790152573
0.50000,12.19923514
0.50050,19.52390092
0.50100,22.27065059
0.50150,20.43948414
0.50200,17.38754007
0.50250,17.69273447
0.50300,22.8810394
0.50350,30.81609401
0.50400,35.39401012
0.50450,32.03687164
0.50500,20.74467855
0.50550,7.62131902
0.50600,-3.976068473
0.50650,-15.26826156
0.50700,-28.39162109
0.50750,-41.82017503
0.50800,-51.58639607
0.50850,-56.4695066
0.50900,-57.99547864
0.50950,-58.60586745
0.51000,-58.91106186
0.51050,-57.69028423
0.51100,-54.94353456
0.51150,-51.58639607
0.51200,-48.83964641
0.51250,-44.8721191
0.51300,-38.46303654
0.51350,-30.22278754
0.51400,-23.20331616
0.51450,-17.70981682
0.51500,-12.8267063
0.51550,-9.164373404
0.51600,-8.859178996
0.51650,-11.30073426
0.51700,-10.38515103
0.51750,-0.9241243959
0.51800,13.72520717
0.51850,25.93298348
0.51900,31.73167723
0.51950,33.25764927
0.52000,33.86803808
0.52050,33.56284367
0.52100,31.73167723
0.52150,28.67973315
0.52200,24.40701144
0.52250,19.52390092
0.52300,16.16676244
0.52350,13.72520717
0.52400,9.757679874
0.52450,3.043402904
0.52500,-2.450096434
0.52550,-2.450096434
0.52600,0.9070420503
0.52650,0.6018476426
0.52700,-3.976068473
0.52750,-8.553984588
0.52800,-10.38515103
0.52850,-11.91112307
0.52900,-16.7942336
0.52950,-21.98253853
0.53000,-22.89812175
0.53050,-19.23578886
0.53100,-14.35267833
0.53150,-8.859178996
0.53200,-2.450096434
0.53250,3.65379172
0.53300,7.926513427
0.53350,7.316124612
0.53400,3.043402904
0.53450,-0.9241243959
0.53500,-0.9241243959
0.53550,3.348597312
0.53600,8.842096651
0.53650,10.06287428
0.53700,6.705735797
0.53750,3.043402904
0.53800,0.9070420503
0.53850,-1.229318804
0.53900,-6.417623735
0.53950,-11.60592867
0.54000,-12.8267063
0.54050,-7.943595773
0.54100,0.2966532349
0.54150,9.147291058
0.54200,14.9459848
0.54250,16.16676244
0.54300,13.11481836
0.54350,9.452485466
0.54400,10.06287428
0.54450,16.16676244
0.54500,23.18623381
0.54550,26.23817789
0.54600,24.71220585
0.54650,21.66026177
0.54700,18.30312329
0.54750,14.33559599
0.54800,10.36806869
0.54850,9.452485466
0.54900,12.80962395
0.54950,17.38754007
0.55000,18.9135121
0.55050,19.21870651
0.55100,24.71220585
0.55150,34.4784269
0.55200,40.88750946
0.55250,39.66673183
0.55300,33.56284367
0.55350,28.37453874
0.55400,22.575845
0.55450,13.11481836
0.55500,3.65379172
0.55550,1.212236458
0.55600,7.316124612
0.55650,18.6083177
0.55700,32.03687164
0.55750,45.16023117
0.55800,53.09528577
0.55850,50.95892491
0.55900,43.32906472
0.55950,36.30959334
0.56000,28.98492756
0.56050,14.33559599
0.56100,-4.281262881
0.56150,-16.48903919
0.56200,-18.01501123
0.56250,-18.32020563
0.56300,-25.64487142
0.56350,-37.24225891
0.56400,-45.78770233
0.56450,-52.5019793
0.56500,-59.21625627
0.56550,-63.79417238
0.56600,-64.70975561
0.56650,-66.54092205
0.56700,-71.11883817
0.56750,-70.20325494
0.56800,-58.91106186
0.56850,-45.78770233
0.56900,-43.95653588
0.56950,-52.19678489
0.57000,-58.30067304
0.57050,-56.77470101
0.57100,-52.80717371
0.57150,-51.28120167
0.57200,-48.22925759
0.57250,-40.5993974
0.57300,-30.52798194
0.57350,-22.59292734
0.57400,-15.87865037
0.57450,-8.248790181
0.57500,-0.9241243959
0.57550,4.264180535
0.57600,7.62131902
0.57650,11.89404073
0.57700,15.86156803
0.57750,17.08234566
0.57800,14.33559599
0.57850,10.36806869
0.57900,9.452485466
0.57950,10.9784575
0.58000,11.28365191
0.58050,10.36806869
0.58100,10.9784575
0.58150,15.86156803
0.58200,21.35506737
0.58250,23.18623381
0.58300,21.04987296
0.58350,17.69273447
0.58400,15.25117921
0.58450,14.6407904
0.58500,14.6407904
0.58550,14.9459848
0.58600,13.11481836
0.58650,7.926513427
0.58700,3.348597312
0.58750,2.433014089
0.58800,2.738208496
0.58850,0.6018476426
0.58900,-2.755290842
0.58950,-3.06048525
0.59000,0.2966532349
0.59050,3.958986127
0.59100,3.65379172
0.59150,1.517430866
0.59200,0.2966532349
0.59250,0.9070420503
0.59300,2.738208496
0.59350,4.569374943
0.59400,5.790152573
0.59450,5.484958166
0.59500,6.095346981
0.59550,9.452485466
0.59600,15.25117921
0.59650,20.13428974
0.59700,21.96545618
0.59750,21.96545618
0.59800,20.74467855
0.59850,19.21870651
0.59900,17.69273447
0.59950,16.77715125
0.60000,16.47195684
0.60050,16.47195684
0.60100,16.47195684
0.60150,14.9459848
0.60200,10.6732631
0.60250,4.87456935
0.60300,-0.3137355805
0.60350,-4.281262881
0.60400,-8.859178996
0.60450,-14.04748393
0.60500,-18.01501123
0.60550,-17.70981682
0.60600,-15.87865037
0.60650,-15.57345597
0.60700,-15.26826156
0.60750,-10.69034544
0.60800,-3.976068473
0.60850,-1.229318804
0.60900,-3.670874065
0.60950,-5.502040511
0.61000,-1.229318804
0.61050,7.62131902
0.61100,14.6407904
0.61150,15.55637362
0.61200,11.89404073
0.61250,8.536902243
0.61300,7.316124612
0.61350,7.010930204
0.61400,7.010930204
0.61450,8.231707835
0.61500,11.89404073
0.61550,15.86156803
0.61600,15.86156803
0.61650,11.58884632
0.61700,6.705735797
0.61750,5.179763758
0.61800,6.095346981
0.61850,7.926513427
0.61900,11.28365191
0.61950,18.30312329
0.62000,26.23817789
0.62050,29.29012197
0.62100,25.01740026
0.62150,17.08234566
0.62200,11.89404073
0.62250,9.757679874
0.62300,7.62131902
0.62350,3.348597312
0.62400,0.2966532349
0.62450,-0.9241243959
0.62500,-3.06048525
0.62550,-7.333206958
0.62600,-8.859178996
0.62650,-4.281262881
0.62700,3.348597312
0.62750,7.316124612
0.62800,5.484958166
0.62850,1.822625273
0.62900,-1.229318804
0.62950,-5.502040511
0.63000,-10.07995663
0.63050,-11.30073426
0.63100,-8.248790181
0.63150,-2.755290842
0.63200,2.433014089
0.63250,9.147291058
0.63300,16.16676244
0.63350,17.99792888
0.63400,11.28365191
0.63450,-0.6189299882
0.63500,-11.30073426
0.63550,-14.35267833
0.63600,-8.553984588
0.63650,3.65379172
0.63700,15.86156803
0.63750,22.8810394
0.63800,24.71220585
0.63850,23.49142822
0.63900,19.52390092
0.63950,11.58884632
0.64000,1.822625273
0.64050,-1.839707619
0.64100,3.043402904
0.64150,10.9784575
0.64200,14.6407904
0.64250,11.89404073
0.64300,7.62131902
0.64350,4.569374943
0.64400,2.433014089
0.64450,-1.229318804
0.64500,-7.638401365
0.64550,-12.21631748
0.64600,-9.774762219
0.64650,-0.6189299882
0.64700,7.010930204
0.64750,6.400541389
0.64800,-0.008541172829
0.64850,-4.281262881
0.64900,-5.196846104
0.64950,-7.333206958
0.65000,-10.69034544
0.65050,-11.30073426
0.65100,-10.38515103
0.65150,-16.7942336
0.65200,-32.9695372
0.65250,-50.06042404
0.65300,-56.77470101
0.65350,-54.94353456
0.65400,-54.02795134
0.65450,-56.77470101
0.65500,-58.91106186
0.65550,-58.60586745
0.65600,-58.60586745
0.65650,-61.35261712
0.65700,-63.18378357
0.65750,-59.82664508
0.65800,-51.58639607
0.65850,-42.12536944
0.65900,-33.88512043
0.65950,-25.95006583
0.66000,-17.099428
0.66050,-7.02801255
0.66100,3.65379172
0.66150,15.55637362
0.66200,28.06934434
0.66250,39.66673183
0.66300,46.07581439
0.66350,48.51736965
0.66400,51.56931373
0.66450,55.84203544
0.66500,54.01086899
0.66550,40.88750946
0.66600,22.8810394
0.66650,14.03040158
0.66700,17.99792888
0.66750,25.93298348
0.66800,29.90051078
0.66850,28.06934434
0.66900,23.18623381
0.66950,14.9459848
0.67000,5.790152573
0.67050,-0.008541172829
0.67100,0.6018476426
0.67150,5.484958166
0.67200,10.06287428
0.67250,12.19923514
0.67300,11.28365191
0.67350,8.536902243
0.67400,5.179763758
0.67450,1.822625273
0.67500,-1.534513211
0.67550,-7.02801255
0.67600,-13.43709511
0.67650,-18.93059445
0.67700,-22.28773294
0.67750,-22.28773294
0.67800,-18.01501123
0.67850,-10.99553985
0.67900,-5.196846104
0.67950,-1.534513211
0.68000,1.212236458
0.68050,4.264180535
0.68100,5.179763758
0.68150,2.433014089
0.68200,-0.6189299882
0.68250,-1.229318804
0.68300,0.2966532349
0.68350,3.043402904
0.68400,7.010930204
0.68450,11.58884632
0.68500,12.19923514
0.68550,6.400541389
0.68600,-0.3137355805
0.68650,-0.6189299882
0.68700,5.790152573
0.68750,13.72520717
0.68800,17.38754007
0.68850,15.86156803
0.68900,10.36806869
0.68950,1.822625273
0.69000,-4.586457288
0.69050,-4.586457288
0.69100,2.433014089
0.69150,11.89404073
0.69200,18.9135121
0.69250,23.18623381
0.69300,26.8485667
0.69350,29.59531637
0.69400,30.20570519
0.69450,27.76414993
0.69500,23.79662263
0.69550,19.82909533
0.69600,16.47195684
0.69650,14.03040158
0.69700,9.757679874
0.69750,2.433014089
0.69800,-8.248790181
0.69850,-20.15137208
0.69900,-29.91759313
0.69950,-34.80070365
0.70000,-34.49550924
0.70050,-31.74875957
0.70100,-29.61239872
0.70150,-29.0020099
0.70200,-28.08642668
0.70250,-25.33967701
0.70300,-21.67734412
0.70350,-18.62540004
0.70400,-15.87865037
0.70450,-12.21631748
0.70500,-8.248790181
0.70550,-6.417623735
0.70600,-8.248790181
0.70650,-12.21631748
0.70700,-16.48903919
0.70750,-17.70981682
0.70800,-15.26826156
0.70850,-9.469567812
0.70900,-3.670874065
0.70950,-0.6189299882
0.71000,-0.3137355805
0.71050,-0.9241243959
0.71100,-2.144902027
0.71150,-5.502040511
0.71200,-9.469567812
0.71250,-11.30073426
0.71300,-8.248790181
0.71350,-3.06048525
0.71400,1.822625273
0.71450,4.87456935
0.71500,3.65379172
0.71550,-2.144902027
0.71600,-11.30073426
0.71650,-18.62540004
0.71700,-20.15137208
0.71750,-16.48903919
0.71800,-10.38515103
0.71850,-5.807234919
0.71900,-1.839707619
0.71950,5.179763758
0.72000,17.69273447
0.72050,29.59531637
0.72100,32.03687164
0.72150,23.79662263
0.72200,13.72520717
0.72250,9.757679874
0.72300,11.89404073
0.72350,16.77715125
0.72400,25.62778907
0.72450,38.14075979
0.72500,44.24464794
0.72550,34.17323249
0.72600,14.03040158
0.72650,-0.008541172829
0.72700,-1.839707619
0.72750,-2.450096434
0.72800,-9.469567812
0.72850,-15.26826156
0.72900,-11.60592867
0.72950,-3.365679658
0.73000,-2.450096434
0.73050,-9.774762219
0.73100,-15.57345597
0.73150,-13.43709511
0.73200,-7.333206958
0.73250,-4.891651696
0.73300,-7.333206958
0.73350,-11.30073426
0.73400,-12.21631748
0.73450,-6.722818142
0.73500,3.65379172
0.73550,14.6407904
0.73600,23.49142822
0.73650,31.42648282
0.73700,40.27712064
0.73750,46.07581439
0.73800,44.24464794
0.73850,34.78362131
0.73900,21.35506737
0.73950,6.400541389
0.74000,-6.722818142
0.74050,-14.65787274
0.74100,-16.48903919
0.74150,-17.099428
0.74200,-21.67734412
0.74250,-27.78123227
0.74300,-31.44356517
0.74350,-35.10589806
0.74400,-44.8721191
0.74450,-55.55392337
0.74500,-57.07989541
0.74550,-49.14484081
0.74600,-43.04095266
0.74650,-45.78770233
0.74700,-49.45003522
0.74750,-45.17731351
0.74800,-32.9695372
0.74850,-19.84617767
0.74900,-8.859178996
0.74950,0.6018476426
0.75000,7.010930204
0.75050,9.452485466
0.75100,11.89404073
0.75150,20.13428974
0.75200,36.00439894
0.75250,55.53684103
0.75300,72.01733904
0.75350,79.95239364
0.75400,76.90044957
0.75450,66.52383971
0.75500,54.92645221
0.75550,44.54984235
0.75600,33.25764927
0.75650,21.35506737
0.75700,12.50442954
0.75750,8.536902243
0.75800,5.179763758
0.75850,-0.3137355805
0.75900,-7.333206958
0.75950,-10.99553985
0.76000,-8.859178996
0.76050,-2.755290842
0.76100,5.790152573
0.76150,13.72520717
0.76200,15.55637362
0.76250,7.926513427
0.76300,-5.502040511
0.76350,-19.84617767
0.76400,-29.61239872
0.76450,-35.10589806
0.76500,-36.32667569
0.76550,-32.05395398
0.76600,-19.54098327
0.76650,2.433014089
0.76700,30.5108996
0.76750,52.17970254
0.76800,56.45242425
0.76850,43.02387031
0.76900,25.01740026
0.76950,16.77715125
0.77000,19.52390092
0.77050,23.49142822
0.77100,23.18623381
0.77150,22.575845
0.77200,27.15376111
0.77250,31.12128841
0.77300,26.23817789
0.77350,12.50442954
0.77400,-2.450096434
0.77450,-12.52151189
0.77500,-17.099428
0.77550,-15.87865037
0.77600,-8.553984588
0.77650,0.6018476426
0.77700,6.095346981
0.77750,6.400541389
0.77800,6.400541389
0.77850,8.231707835
0.77900,5.790152573
0.77950,-4.891651696
0.78000,-21.98253853
0.78050,-40.5993974
0.78100,-59.82664508
0.78150,-80.2746704
0.78200,-99.19672368
0.78250,-114.1512497
0.78300,-125.7486371
0.78350,-133.9888862
0.78400,-135.2096638
0.78450,-125.7486371
0.78500,-108.6577503
0.78550,-90.04089144
0.78600,-74.47597665
0.78650,-59.82664508
0.78700,-42.43056384
0.78750,-21.37214971
0.78800,-1.229318804
0.78850,12.50442954
0.78900,17.99792888
0.78950,18.30312329
0.79000,18.9135121
0.79050,19.52390092
0.79100,19.52390092
0.79150,20.13428974
0.79200,24.40701144
0.79250,29.29012197
0.79300,29.90051078
0.79350,25.32259467
0.79400,21.66026177
0.79450,22.27065059
0.79500,24.10181704
0.79550,22.575845
0.79600,18.30312329
0.79650,14.9459848
0.79700,13.42001277
0.79750,12.50442954
0.79800,11.89404073
0.79850,11.28365191
0.79900,10.06287428
0.79950,9.452485466
0.80000,11.58884632
0.80050,16.16676244
0.80100,20.43948414
0.80150,22.27065059
0.80200,22.575845
0.80250,21.35506737
0.80300,17.99792888
0.80350,12.80962395
0.80400,10.06287428
0.80450,10.9784575
0.80500,12.80962395
0.80550,12.80962395
0.80600,10.9784575
0.80650,7.926513427
0.80700,3.958986127
0.80750,-0.008541172829
0.80800,-3.365679658
0.80850,-7.02801255
0.80900,-9.469567812
0.80950,-7.638401365
0.81000,1.212236458
0.81050,14.03040158
0.81100,25.32259467
0.81150,33.25764927
0.81200,38.75114861
0.81250,36.30959334
0.81300,22.8810394
0.81350,9.147291058
0.81400,13.11481836
0.81450,36.30959334
0.81500,57.97839629
0.81550,62.251118
0.81600,53.40048017
0.81650,46.07581439
0.81700,42.71867591
0.81750,34.17323249
0.81800,14.03040158
0.81850,-12.52151189
0.81900,-36.32667569
0.81950,-49.75522963
0.82000,-51.89159048
0.82050,-51.28120167
0.82100,-61.04742271
0.82150,-79.66428158
0.82200,-91.87205789
0.82250,-86.37855855
0.82300,-72.03442139
0.82350,-63.79417238
0.82400,-63.18378357
0.82450,-54.63834015
0.82500,-27.17084346
0.82550,14.33559599
0.82600,59.19917392
0.82650,96.73808607
0.82700,122.3744163
0.82750,134.2769982
0.82800,132.4458318
0.82850,121.4588331
0.82900,108.0302792
0.82950,100.7056134
0.83000,101.6211966
0.83050,102.8419742
0.83100,91.54978114
0.83150,65.30306208
0.83200,35.08881571
0.83250,13.42001277
0.83300,3.348597312
0.83350,-1.229318804
0.83400,-7.02801255
0.83450,-15.57345597
0.83500,-25.0344826
0.83550,-29.30720431
0.83600,-20.7617609
0.83650,-0.6189299882
0.83700,21.35506737
0.83750,35.08881571
0.83800,39.36153742
0.83850,36.91998216
0.83900,29.59531637
0.83950,19.21870651
0.84000,13.72520717
0.84050,19.52390092
0.84100,29.29012197
0.84150,27.45895552
0.84200,10.06287428
0.84250,-7.333206958
0.84300,-8.553984588
0.84350,3.958986127
0.84400,14.33559599
0.84450,10.6732631
0.84500,-0.3137355805
0.84550,-7.333206958
0.84600,-9.774762219
0.84650,-16.48903919
0.84700,-29.30720431
0.84750,-41.20978621
0.84800,-45.78770233
0.84850,-45.48250792
0.84900,-43.65134147
0.84950,-37.54745332
0.85000,-24.42409379
0.85050,-10.99553985
0.85100,-5.807234919
0.85150,-6.722818142
0.85200,-4.586457288
0.85250,3.348597312
0.85300,10.36806869
0.85350,9.757679874
0.85400,3.348597312
0.85450,-5.196846104
0.85500,-18.01501123
0.85550,-35.41109247
0.85600,-52.5019793
0.85650,-63.79417238
0.85700,-69.28767172
0.85750,-70.50844935
0.85800,-67.76169968
0.85850,-64.4045612
0.85900,-64.09936679
0.85950,-63.18378357
0.86000,-49.45003522
0.86050,-16.18384478
0.86100,24.10181704
0.86150,55.23164662
0.86200,71.40695023
0.86250,78.73161601
0.86300,80.86797687
0.86350,78.1212272
0.86400,71.71214464
0.86450,62.55631241
0.86500,42.4134815
0.86550,4.569374943
0.86600,-43.34614707
0.86650,-85.46297533
0.86700,-114.1512497
0.86750,-135.2096638
0.86800,-151.6901618
0.86850,-159.320022
0.86900,-155.0473003
0.86950,-143.1447184
0.87000,-126.6642204
0.87050,-104.690223
0.87100,-80.2746704
0.87150,-63.18378357
0.87200,-55.55392337
0.87250,-47.61886877
0.87300,-31.13837076
0.87350,-13.1319007
0.87400,-3.670874065
0.87450,-1.839707619
0.87500,0.9070420503
0.87550,7.62131902
0.87600,13.11481836
0.87650,16.47195684
0.87700,21.04987296
0.87750,26.5433723
0.87800,27.76414993
0.87850,25.32259467
0.87900,25.01740026
0.87950,28.37453874
0.88000,30.81609401
0.88050,28.98492756
0.88100,25.62778907
0.88150,22.8810394
0.88200,19.52390092
0.88250,16.77715125
0.88300,19.52390092
0.88350,29.90051078
0.88400,40.88750946
0.88450,43.32906472
0.88500,37.83556538
0.88550,31.12128841
0.88600,27.76414993
0.88650,25.32259467
0.88700,18.9135121
0.88750,9.147291058
0.88800,1.517430866
0.88850,-0.008541172829
0.88900,3.348597312
0.88950,6.400541389
0.89000,4.264180535
0.89050,-1.534513211
0.89100,-5.502040511
0.89150,-3.976068473
0.89200,0.6018476426
0.89250,2.433014089
0.89300,-1.839707619
0.89350,-8.248790181
0.89400,-11.30073426
0.89450,-11.91112307
0.89500,-14.35267833
0.89550,-17.40462241
0.89600,-14.35267833
0.89650,-2.144902027
0.89700,12.19923514
0.89750,17.69273447
0.89800,13.42001277
0.89850,11.58884632
0.89900,24.40701144
0.89950,48.82256406
0.90000,67.74461734
0.90050,65.60825648
0.90100,45.46542557
0.90150,25.01740026
0.90200,17.08234566
0.90250,19.52390092
0.90300,23.79662263
0.90350,27.76414993
0.90400,36.61478775
0.90450,48.51736965
0.90500,53.70567458
0.90550,46.68620321
0.90600,35.08881571
0.90650,28.37453874
0.90700,25.62778907
0.90750,19.21870651
0.90800,8.536902243
0.90850,2.433014089
0.90900,5.484958166
0.90950,11.28365191
0.91000,10.9784575
0.91050,4.87456935
0.91100,-2.755290842
0.91150,-8.859178996
0.91200,-11.60592867
0.91250,-7.333206958
0.91300,6.095346981
0.91350,25.01740026
0.91400,40.27712064
0.91450,47.29659202
0.91500,48.21217524
0.91550,46.68620321
0.91600,42.71867591
0.91650,33.56284367
0.91700,18.6083177
0.91750,-1.839707619
0.91800,-26.86564905
0.91850,-47.92406318
0.91900,-54.94353456
0.91950,-46.39809114
0.92000,-32.9695372
0.92050,-23.81370497
0.92100,-17.40462241
0.92150,-5.502040511
0.92200,10.9784575
0.92250,20.74467855
0.92300,20.13428974
0.92350,21.04987296
0.92400,36.30959334
0.92450,61.64072918
0.92500,78.1212272
0.92550,75.06928312
0.92600,56.14722984
0.92650,31.12128841
0.92700,4.264180535
0.92750,-19.84617767
0.92800,-30.22278754
0.92850,-22.28773294
0.92900,-9.164373404
0.92950,-8.859178996
0.93000,-22.28773294
0.93050,-33.88512043
0.93100,-31.74875957
0.93150,-21.37214971
0.93200,-12.21631748
0.93250,-7.333206958
0.93300,-8.248790181
0.93350,-18.01501123
0.93400,-32.35914839
0.93450,-36.6318701
0.93500,-23.81370497
0.93550,-6.112429327
0.93600,-0.6189299882
0.93650,-7.638401365
0.93700,-16.18384478
0.93750,-26.56045464
0.93800,-47.00847996
0.93850,-77.52792073
0.93900,-103.4694454
0.93950,-115.6772217
0.94000,-117.8135825
0.94050,-116.2876105
0.94100,-111.0993056
0.94150,-102.8590566
0.94200,-95.53439078
0.94250,-89.43050263
0.94300,-78.13830954
0.94350,-59.21625627
0.94400,-40.29420299
0.94450,-26.86564905
0.94500,-16.7942336
0.94550,-5.502040511
0.94600,4.87456935
0.94650,10.36806869
0.94700,11.89404073
0.94750,14.03040158
0.94800,17.38754007
0.94850,19.52390092
0.94900,20.74467855
0.94950,22.8810394
0.95000,26.5433723
0.95050,28.98492756
0.95100,29.59531637
0.95150,29.29012197
0.95200,27.15376111
0.95250,23.79662263
0.95300,19.52390092
0.95350,16.77715125
0.95400,15.86156803
0.95450,16.16676244
0.95500,17.99792888
0.95550,20.13428974
0.95600,21.04987296
0.95650,19.82909533
0.95700,18.9135121
0.95750,18.6083177
0.95800,17.38754007
0.95850,15.25117921
0.95900,13.42001277
0.95950,13.11481836
0.96000,13.72520717
0.96050,14.03040158
0.96100,13.72520717
0.96150,12.80962395
0.96200,10.36806869
0.96250,6.705735797
0.96300,4.569374943
0.96350,3.65379172
0.96400,2.738208496
0.96450,0.9070420503
0.96500,1.517430866
0.96550,4.264180535
0.96600,6.095346981
0.96650,4.264180535
0.96700,-0.6189299882
0.96750,-7.638401365
0.96800,-14.65787274
0.96850,-17.40462241
0.96900,-11.30073426
0.96950,1.822625273
0.97000,13.72520717
0.97050,17.08234566
0.97100,15.86156803
0.97150,16.77715125
0.97200,20.13428974
0.97250,19.21870651
0.97300,10.9784575
0.97350,0.2966532349
0.97400,-6.417623735
0.97450,-8.553984588
0.97500,-10.69034544
0.97550,-16.48903919
0.97600,-23.81370497
0.97650,-28.39162109
0.97700,-29.0020099
0.97750,-27.17084346
0.97800,-23.20331616
0.97850,-11.60592867
0.97900,10.36806869
0.97950,33.56284367
0.98000,42.4134815
0.98050,32.64726045
0.98100,17.38754007
0.98150,9.757679874
0.98200,12.19923514
0.98250,16.16676244
0.98300,16.16676244
0.98350,13.42001277
0.98400,11.28365191
0.98450,10.6732631
0.98500,9.452485466
0.98550,5.790152573
0.98600,-1.534513211
0.98650,-10.07995663
0.98700,-13.43709511
0.98750,-6.722818142
0.98800,7.316124612
0.98850,20.74467855
0.98900,27.45895552
0.98950,25.62778907
0.99000,18.9135121
0.99050,11.28365191
0.99100,7.62131902
0.99150,10.9784575
0.99200,17.99792888
0.99250,21.96545618
0.99300,19.52390092
0.99350,14.33559599
0.99400,13.42001277
0.99450,19.21870651
0.99500,27.45895552
0.99550,33.86803808
0.99600,35.69920453
0.99650,32.95245486
0.99700,27.76414993
0.99750,24.40701144
0.99800,27.76414993
0.99850,37.83556538
0.99900,47.29659202
0.99950,48.51736965
1.00000,41.49789827
1.00050,32.03687164
1.00100,24.40701144
1.00150,18.30312329
1.00200,13.72520717
1.00250,12.19923514
1.00300,14.9459848
1.00350,20.13428974
1.00400,26.23817789
1.00450,34.17323249
1.00500,41.80309268
1.00550,43.02387031
1.00600,33.56284367
1.00650,17.08234566
1.00700,0.2966532349
1.00750,-14.35267833
1.00800,-25.64487142
1.00850,-31.13837076
1.00900,-29.91759313
1.00950,-29.91759313
1.01000,-36.32667569
1.01050,-43.95653588
1.01100,-40.9045918
1.01150,-26.56045464
1.01200,-14.96306715
1.01250,-16.7942336
1.01300,-29.61239872
1.01350,-43.65134147
1.01400,-53.41756252
1.01450,-57.99547864
1.01500,-57.99547864
1.01550,-56.16431219
1.01600,-55.85911778
1.01650,-54.94353456
1.01700,-46.39809114
1.01750,-30.52798194
1.01800,-16.48903919
1.01850,-11.30073426
1.01900,-8.553984588
1.01950,-0.008541172829
1.02000,10.36806869
1.02050,13.42001277
1.02100,6.400541389
1.02150,-2.450096434
1.02200,-8.248790181
1.02250,-12.8267063
1.02300,-20.15137208
1.02350,-27.17084346
1.02400,-29.61239872
1.02450,-29.61239872
1.02500,-32.05395398
1.02550,-36.6318701
1.02600,-39.68381417
1.02650,-39.68381417
1.02700,-39.37861977
1.02750,-41.51498062
1.02800,-43.34614707
1.02850,-42.43056384
1.02900,-38.46303654
1.02950,-35.41109247
1.03000,-33.57992602
1.03050,-31.13837076
1.03100,-25.95006583
1.03150,-18.62540004
1.03200,-11.30073426
1.03250,-6.112429327
1.03300,-3.976068473
1.03350,-3.365679658
1.03400,-0.008541172829
1.03450,7.316124612
1.03500,15.86156803
1.03550,19.21870651
1.03600,17.08234566
1.03650,14.03040158
1.03700,12.50442954
1.03750,10.06287428
1.03800,4.264180535
1.03850,-1.839707619
1.03900,-5.196846104
1.03950,-5.807234919
1.04000,-4.586457288
1.04050,-3.365679658
1.04100,-2.450096434
1.04150,-2.755290842
1.04200,-2.144902027
1.04250,1.822625273
1.04300,8.231707835
1.04350,11.58884632
1.04400,9.757679874
1.04450,5.790152573
1.04500,4.569374943
1.04550,7.316124612
1.04600,12.50442954
1.04650,16.77715125
1.04700,17.08234566
1.04750,12.80962395
1.04800,7.316124612
1.04850,4.87456935
1.04900,6.705735797
1.04950,8.842096651
1.05000,9.452485466
1.05050,8.842096651
1.05100,7.62131902
1.05150,4.87456935
1.05200,3.043402904
1.05250,4.87456935
1.05300,7.010930204
1.05350,4.87456935
1.05400,-0.008541172829
1.05450,0.9070420503
1.05500,7.926513427
1.05550,10.6732631
1.05600,4.264180535
1.05650,-4.281262881
1.05700,-6.417623735
1.05750,-3.670874065
1.05800,-0.008541172829
1.05850,6.400541389
1.05900,16.47195684
1.05950,23.18623381
1.06000,18.30312329
1.06050,4.569374943
1.06100,-7.943595773
1.06150,-16.18384478
1.06200,-21.98253853
1.06250,-23.20331616
1.06300,-12.21631748
1.06350,9.757679874
1.06400,31.12128841
1.06450,39.97192624
1.06500,35.39401012
1.06550,25.01740026
1.06600,15.55637362
1.06650,9.147291058
1.06700,6.095346981
1.06750,6.095346981
1.06800,9.147291058
1.06850,14.03040158
1.06900,16.77715125
1.06950,14.33559599
1.07000,9.452485466
1.07050,8.842096651
1.07100,15.86156803
1.07150,27.76414993
1.07200,37.83556538
1.07250,43.32906472
1.07300,44.24464794
1.07350,39.05634301
1.07400,28.37453874
1.07450,14.9459848
1.07500,1.517430866
1.07550,-10.99553985
1.07600,-21.0669553
1.07650,-23.81370497
1.07700,-19.54098327
1.07750,-14.65787274
1.07800,-14.96306715
1.07850,-17.40462241
1.07900,-15.57345597
1.07950,-11.30073426
1.08000,-11.91112307
1.08050,-18.01501123
1.08100,-21.67734412
1.08150,-18.32020563
1.08200,-12.21631748
1.08250,-8.248790181
1.08300,-5.807234919
1.08350,-3.365679658
1.08400,-1.229318804
1.08450,0.6018476426
1.08500,6.705735797
1.08550,18.9135121
1.08600,32.95245486
1.08650,43.02387031
1.08700,48.82256406
1.08750,52.79009136
1.08800,52.48489695
1.08850,43.32906472
1.08900,24.71220585
1.08950,4.264180535
1.09000,-9.469567812
1.09050,-17.099428
1.09100,-24.11889938
1.09150,-34.19031484
1.09200,-44.5669247
1.09250,-50.67081285
1.09300,-52.80717371
1.09350,-54.02795134
1.09400,-54.02795134
1.09450,-52.5019793
1.09500,-50.36561844
1.09550,-49.75522963
1.09600,-47.92406318
1.09650,-40.9045918
1.09700,-28.6968155
1.09750,-17.70981682
1.09800,-11.91112307
1.09850,-8.553984588
1.09900,-3.670874065
1.09950,2.127819681
1.10000,6.095346981
1.10050,8.536902243
1.10100,12.19923514
1.10150,15.25117921
1.10200,14.33559599
1.10250,10.6732631
1.10300,8.231707835
1.10350,8.231707835
1.10400,7.926513427
1.10450,6.095346981
1.10500,3.348597312
1.10550,0.9070420503
1.10600,-3.365679658
1.10650,-10.07995663
1.10700,-14.96306715
1.10750,-16.48903919
1.10800,-16.7942336
1.10850,-19.54098327
1.10900,-22.28773294
1.10950,-19.23578886
1.11000,-9.164373404
1.11050,2.127819681
1.11100,9.757679874
1.11150,13.72520717
1.11200,17.99792888
1.11250,21.35506737
1.11300,19.82909533
1.11350,13.11481836
1.11400,7.316124612
1.11450,8.231707835
1.11500,16.16676244
1.11550,25.32259467
1.11600,29.90051078
1.11650,27.15376111
1.11700,18.30312329
1.11750,8.231707835
1.11800,2.127819681
1.11850,1.212236458
1.11900,4.87456935
1.11950,11.28365191
1.12000,17.99792888
1.12050,21.66026177
1.12100,21.66026177
1.12150,21.96545618
1.12200,28.37453874
1.12250,38.75114861
1.12300,44.85503676
1.12350,42.4134815
1.12400,37.83556538
1.12450,37.53037097
1.12500,38.4459542
1.12550,32.64726045
1.12600,19.82909533
1.12650,7.926513427
1.12700,3.958986127
1.12750,8.842096651
1.12800,19.82909533
1.12850,31.12128841
1.12900,34.4784269
1.12950,25.01740026
1.13000,7.316124612
1.13050,-7.943595773
1.13100,-19.54098327
1.13150,-33.88512043
1.13200,-50.36561844
1.13250,-58.60586745
1.13300,-52.80717371
1.13350,-43.65134147
1.13400,-44.8721191
1.13450,-54.63834015
1.13500,-60.74222831
1.13550,-58.30067304
1.13600,-53.11236811
1.13650,-47.61886877
1.13700,-39.98900858
1.13750,-29.61239872
1.13800,-20.15137208
1.13850,-10.99553985
1.13900,1.212236458
1.13950,14.6407904
1.14000,18.9135121
1.14050,10.6732631
1.14100,-1.229318804
1.14150,-6.417623735
1.14200,-4.586457288
1.14250,-0.6189299882
1.14300,3.348597312
1.14350,8.842096651
1.14400,14.33559599
1.14450,18.6083177
1.14500,25.01740026
1.14550,34.78362131
1.14600,43.32906472
1.14650,44.24464794
1.14700,38.75114861
1.14750,35.08881571
1.14800,36.30959334
1.14850,39.97192624
1.14900,43.02387031
1.14950,45.46542557
1.15000,47.29659202
1.15050,46.68620321
1.15100,42.71867591
1.15150,35.39401012
1.15200,24.40701144
1.15250,8.842096651
1.15300,-8.553984588
1.15350,-22.59292734
1.15400,-29.30720431
1.15450,-29.0020099
1.15500,-25.64487142
1.15550,-23.81370497
1.15600,-26.56045464
1.15650,-34.49550924
1.15700,-47.31367437
1.15750,-61.96300594
1.15800,-74.17078224
1.15850,-77.83311514
1.15900,-69.89806054
1.15950,-54.94353456
1.16000,-41.20978621
1.16050,-34.19031484
1.16100,-31.44356517
1.16150,-29.91759313
1.16200,-28.08642668
1.16250,-25.64487142
1.16300,-19.84617767
1.16350,-7.943595773
1.16400,7.926513427
1.16450,24.71220585
1.16500,39.66673183
1.16550,52.48489695
1.16600,61.64072918
1.16650,67.13422852
1.16700,71.71214464
1.16750,75.98486634
1.16800,77.20564398
1.16850,72.01733904
1.16900,64.38747885
1.16950,61.64072918
1.17000,64.99786767
1.17050,67.43942293
1.17100,63.47189563
1.17150,54.3160634
1.17200,43.93945354
1.17250,33.25764927
1.17300,23.49142822
1.17350,16.77715125
1.17400,14.33559599
1.17450,11.89404073
1.17500,4.87456935
1.17550,-6.417623735
1.17600,-17.40462241
1.17650,-24.42409379
1.17700,-28.6968155
1.17750,-35.10589806
1.17800,-45.78770233
1.17850,-56.4695066
1.17900,-61.65781153
1.17950,-58.60586745
1.18000,-52.5019793
1.18050,-48.83964641
1.18100,-47.31367437
1.18150,-42.12536944
1.18200,-30.83317635
1.18250,-18.32020563
1.18300,-9.469567812
1.18350,-4.281262881
1.18400,0.9070420503
1.18450,7.926513427
1.18500,13.11481836
1.18550,15.55637362
1.18600,17.38754007
1.18650,18.30312329
1.18700,16.77715125
1.18750,12.80962395
1.18800,8.231707835
1.18850,3.348597312
1.18900,-2.144902027
1.18950,-9.469567812
1.19000,-17.70981682
1.19050,-25.64487142
1.19100,-33.57992602
1.19150,-38.76823095
1.19200,-38.46303654
1.19250,-32.05395398
1.19300,-24.7292882
1.19350,-21.37214971
1.19400,-19.54098327
1.19450,-14.96306715
1.19500,-8.859178996
1.19550,-7.02801255
1.19600,-11.30073426
1.19650,-17.099428
1.19700,-18.93059445
1.19750,-16.18384478
1.19800,-12.52151189
1.19850,-8.553984588
1.19900,-2.450096434
1.19950,5.790152573
1.20000,13.42001277
1.20050,16.47195684
1.20100,13.42001277
1.20150,8.231707835
1.20200,5.179763758
1.20250,5.484958166
1.20300,3.958986127
1.20350,-3.365679658
1.20400,-12.8267063
1.20450,-16.18384478
1.20500,-12.8267063
1.20550,-10.38515103
1.20600,-13.43709511
1.20650,-18.01501123
1.20700,-21.0669553
1.20750,-25.0344826
1.20800,-31.44356517
1.20850,-35.71628687
1.20900,-32.9695372
1.20950,-26.56045464
1.21000,-21.67734412
1.21050,-17.099428
1.21100,-7.638401365
1.21150,3.348597312
1.21200,8.231707835
1.21250,4.264180535
1.21300,-0.008541172829
1.21350,2.433014089
1.21400,10.06287428
1.21450,17.99792888
1.21500,24.10181704
1.21550,28.37453874
1.21600,28.98492756
1.21650,25.62778907
1.21700,22.8810394
1.21750,24.10181704
1.21800,26.5433723
1.21850,23.79662263
1.21900,14.9459848
1.21950,6.400541389
1.22000,3.043402904
1.22050,3.043402904
1.22100,2.433014089
1.22150,1.517430866
1.22200,3.65379172
1.22250,8.842096651
1.22300,12.19923514
1.22350,9.147291058
1.22400,1.822625273
1.22450,-3.976068473
1.22500,-5.807234919
1.22550,-7.333206958
1.22600,-12.21631748
1.22650,-21.37214971
1.22700,-30.22278754
1.22750,-34.80070365
1.22800,-33.57992602
1.22850,-28.08642668
1.22900,-21.98253853
1.22950,-15.87865037
1.23000,-8.859178996
1.23050,-1.534513211
1.23100,2.738208496
1.23150,3.65379172
1.23200,4.264180535
1.23250,9.757679874
1.23300,20.13428974
1.23350,31.12128841
1.23400,38.75114861
1.23450,45.16023117
1.23500,52.48489695
1.23550,61.03034037
1.23600,65.60825648
1.23650,62.55631241
1.23700,53.70567458
1.23750,44.85503676
1.23800,41.19270387
1.23850,40.27712064
1.23900,37.22517657
1.23950,33.86803808
1.24000,35.69920453
1.24050,43.63425913
1.24100,50.65373051
1.24150,48.21217524
1.24200,37.53037097
1.24250,23.49142822
1.24300,9.147291058
1.24350,-7.333206958
1.24400,-23.50851057
1.24450,-32.6643428
1.24500,-32.9695372
1.24550,-29.61239872
1.24600,-28.39162109
1.24650,-26.86564905
1.24700,-19.84617767
1.24750,-6.417623735
1.24800,6.705735797
1.24850,12.80962395
1.24900,9.147291058
1.24950,0.2966532349
1.25000,-7.943595773
1.25050,-13.1319007
1.25100,-16.48903919
1.25150,-17.099428
1.25200,-11.60592867
1.25250,-0.008541172829
1.25300,10.36806869
1.25350,14.6407904
1.25400,14.33559599
1.25450,13.72520717
1.25500,13.72520717
1.25550,10.9784575
1.25600,6.705735797
1.25650,6.095346981
1.25700,9.452485466
1.25750,11.89404073
1.25800,9.452485466
1.25850,3.65379172
1.25900,-2.450096434
1.25950,-8.553984588
1.26000,-13.1319007
1.26050,-14.35267833
1.26100,-15.57345597
1.26150,-21.98253853
1.26200,-32.6643428
1.26250,-39.68381417
1.26300,-39.98900858
1.26350,-39.98900858
1.26400,-45.48250792
1.26450,-50.67081285
1.26500,-48.534452
1.26550,-41.20978621
1.26600,-37.24225891
1.26650,-38.15784214
1.26700,-37.54745332
1.26750,-30.22278754
1.26800,-17.40462241
1.26850,-3.976068473
1.26900,6.705735797
1.26950,13.42001277
1.27000,15.55637362
1.27050,14.9459848
1.27100,13.11481836
1.27150,10.6732631
1.27200,7.62131902
1.27250,7.010930204
1.27300,10.6732631
1.27350,18.30312329
1.27400,27.15376111
1.27450,35.69920453
1.27500,43.63425913
1.27550,49.12775847
1.27600,50.3485361
1.27650,47.90698084
1.27700,43.02387031
1.27750,36.91998216
1.27800,31.12128841
1.27850,27.15376111
1.27900,25.01740026
1.27950,22.27065059
1.28000,15.25117921
1.28050,2.738208496
1.28100,-14.65787274
1.28150,-35.71628687
1.28200,-52.80717371
1.28250,-59.21625627
1.28300,-56.16431219
1.28350,-53.72275693
1.28400,-57.69028423
1.28450,-61.35261712
1.28500,-57.07989541
1.28550,-49.45003522
1.28600,-47.92406318
1.28650,-52.5019793
1.28700,-53.41756252
1.28750,-47.61886877
1.28800,-41.51498062
1.28850,-39.68381417
1.28900,-34.49550924
1.28950,-18.93059445
1.29000,1.822625273
1.29050,15.86156803
1.29100,16.77715125
1.29150,10.36806869
1.29200,5.484958166
1.29250,7.010930204
1.29300,11.58884632
1.29350,14.6407904
1.29400,14.9459848
1.29450,15.25117921
1.29500,18.6083177
1.29550,21.96545618
1.29600,21.04987296
1.29650,16.16676244
1.29700,13.42001277
1.29750,14.33559599
1.29800,15.25117921
1.29850,13.42001277
1.29900,12.19923514
1.29950,14.9459848
1.30000,20.43948414
1.30050,25.93298348
1.30100,30.81609401
1.30150,34.17323249
1.30200,34.4784269
1.30250,32.03687164
1.30300,29.59531637
1.30350,25.93298348
1.30400,17.99792888
1.30450,7.316124612
1.30500,0.6018476426
1.30550,-1.229318804
1.30600,-5.502040511
1.30650,-13.74228952
1.30700,-18.32020563
1.30750,-13.1319007
1.30800,-4.281262881
1.30850,-0.9241243959
1.30900,-2.450096434
1.30950,-1.839707619
1.31000,0.9070420503
1.31050,2.433014089
1.31100,0.6018476426
1.31150,-1.229318804
1.31200,-1.839707619
1.31250,-1.229318804
1.31300,-0.008541172829
1.31350,3.043402904
1.31400,5.790152573
1.31450,7.010930204
1.31500,7.316124612
1.31550,7.926513427
1.31600,7.926513427
1.31650,5.484958166
1.31700,2.433014089
1.31750,1.822625273
1.31800,3.65379172
1.31850,6.095346981
1.31900,7.62131902
1.31950,7.926513427
1.32000,6.400541389
1.32050,3.65379172
1.32100,1.212236458
1.32150,-0.3137355805
1.32200,-2.450096434
1.32250,-4.281262881
1.32300,-2.755290842
1.32350,1.822625273
1.32400,5.179763758
1.32450,3.958986127
1.32500,0.2966532349
1.32550,-1.534513211
1.32600,-1.534513211
1.32650,-1.229318804
1.32700,-0.9241243959
1.32750,-1.839707619
1.32800,-4.891651696
1.32850,-9.164373404
1.32900,-7.943595773
1.32950,0.9070420503
1.33000,11.58884632
1.33050,15.25117921
1.33100,11.28365191
1.33150,5.790152573
1.33200,3.65379172
1.33250,2.738208496
1.33300,1.517430866
1.33350,0.2966532349
1.33400,-0.008541172829
1.33450,-1.534513211
1.33500,-5.196846104
1.33550,-8.248790181
1.33600,-8.859178996
1.33650,-9.164373404
1.33700,-12.21631748
1.33750,-17.40462241
1.33800,-19.84617767
1.33850,-17.099428
1.33900,-11.60592867
1.33950,-6.722818142
1.34000,-3.670874065
1.34050,-0.9241243959
1.34100,1.822625273
1.34150,5.179763758
1.34200,6.705735797
1.34250,8.536902243
1.34300,13.42001277
1.34350,21.35506737
1.34400,27.45895552
1.34450,25.62778907
1.34500,17.69273447
1.34550,12.19923514
1.34600,14.9459848
1.34650,21.96545618
1.34700,23.18623381
1.34750,13.42001277
1.34800,-1.839707619
1.34850,-14.35267833
1.34900,-19.84617767
1.34950,-20.7617609
1.35000,-20.7617609
1.35050,-18.93059445
1.35100,-14.65787274
1.35150,-8.859178996
1.35200,-4.586457288
1.35250,-2.450096434
1.35300,-0.3137355805
1.35350,1.517430866
1.35400,2.738208496
1.35450,1.517430866
1.35500,-1.229318804
1.35550,-4.281262881
1.35600,-5.196846104
1.35650,-3.670874065
1.35700,-0.6189299882
1.35750,-0.008541172829
1.35800,-2.144902027
1.35850,-4.281262881
1.35900,-3.365679658
1.35950,-0.9241243959
1.36000,-0.008541172829
1.36050,0.6018476426
1.36100,5.484958166
1.36150,13.42001277
1.36200,18.30312329
1.36250,16.16676244
1.36300,10.6732631
1.36350,8.842096651
1.36400,14.03040158
1.36450,24.40701144
1.36500,34.4784269
1.36550,37.83556538
1.36600,32.03687164
1.36650,21.04987296
1.36700,10.36806869
1.36750,1.212236458
1.36800,-8.859178996
1.36850,-20.45656649
1.36900,-28.6968155
1.36950,-29.61239872
1.37000,-24.7292882
1.37050,-18.93059445
1.37100,-14.04748393
1.37150,-11.30073426
1.37200,-10.69034544
1.37250,-10.38515103
1.37300,-7.638401365
1.37350,-2.755290842
1.37400,-0.9241243959
1.37450,-6.112429327
1.37500,-15.87865037
1.37550,-22.28773294
1.37600,-18.93059445
1.37650,-7.638401365
1.37700,4.264180535
1.37750,10.06287428
1.37800,7.62131902
1.37850,0.2966532349
1.37900,-5.502040511
1.37950,-8.248790181
1.38000,-8.553984588
1.38050,-8.859178996
1.38100,-9.774762219
1.38150,-9.774762219
1.38200,-8.248790181
1.38250,-6.112429327
1.38300,-4.586457288
1.38350,-4.281262881
1.38400,-5.196846104
1.38450,-6.417623735
1.38500,-8.248790181
1.38550,-12.52151189
1.38600,-18.62540004
1.38650,-24.11889938
1.38700,-27.17084346
1.38750,-29.61239872
1.38800,-34.19031484
1.38850,-40.5993974
1.38900,-47.92406318
1.38950,-54.63834015
1.39000,-58.30067304
1.39050,-53.72275693
1.39100,-39.68381417
1.39150,-23.20331616
1.39200,-14.65787274
1.39250,-16.7942336
1.39300,-21.0669553
1.39350,-19.84617767
1.39400,-13.74228952
1.39450,-6.722818142
1.39500,-0.008541172829
1.39550,7.62131902
1.39600,13.11481836
1.39650,14.6407904
1.39700,15.25117921
1.39750,18.30312329
1.39800,22.27065059
1.39850,22.575845
1.39900,18.6083177
1.39950,14.33559599
1.40000,12.50442954
1.40050,9.452485466
1.40100,3.65379172
1.40150,-4.281262881
1.40200,-11.30073426
1.40250,-14.35267833
1.40300,-12.52151189
1.40350,-5.502040511
1.40400,1.822625273
1.40450,5.790152573
1.40500,5.179763758
1.40550,3.65379172
1.40600,3.043402904
1.40650,2.127819681
1.40700,0.2966532349
1.40750,0.6018476426
1.40800,3.958986127
1.40850,7.010930204
1.40900,7.010930204
1.40950,4.87456935
1.41000,4.569374943
1.41050,7.010930204
1.41100,9.757679874
1.41150,11.28365191
1.41200,11.89404073
1.41250,12.19923514
1.41300,11.28365191
1.41350,8.842096651
1.41400,6.095346981
1.41450,5.484958166
1.41500,6.095346981
1.41550,5.179763758
1.41600,1.212236458
1.41650,-3.06048525
1.41700,-4.586457288
1.41750,-3.06048525
1.41800,-1.534513211
1.41850,-1.534513211
1.41900,-2.144902027
1.41950,-2.144902027
1.42000,-0.3137355805
1.42050,2.433014089
1.42100,6.705735797
1.42150,9.147291058
1.42200,7.926513427
1.42250,3.348597312
1.42300,-0.008541172829
1.42350,0.6018476426
1.42400,2.738208496
1.42450,4.264180535
1.42500,4.569374943
1.42550,6.095346981
1.42600,9.757679874
1.42650,13.11481836
1.42700,14.9459848
1.42750,15.25117921
1.42800,14.9459848
1.42850,15.86156803
1.42900,17.38754007
1.42950,18.6083177
1.43000,17.69273447
1.43050,14.6407904
1.43100,10.9784575
1.43150,9.147291058
1.43200,10.6732631
1.43250,14.9459848
1.43300,18.30312329
1.43350,17.38754007
1.43400,12.50442954
1.43450,7.926513427
1.43500,5.790152573
1.43550,4.264180535
1.43600,-0.3137355805
1.43650,-8.248790181
1.43700,-15.26826156
1.43750,-17.099428
1.43800,-13.74228952
1.43850,-8.553984588
1.43900,-6.722818142
1.43950,-8.248790181
1.44000,-8.248790181
1.44050,-0.6189299882
1.44100,12.80962395
1.44150,24.71220585
1.44200,28.98492756
1.44250,25.62778907
1.44300,17.99792888
1.44350,7.926513427
1.44400,-2.144902027
1.44450,-7.333206958
1.44500,-3.670874065
1.44550,4.569374943
1.44600,9.757679874
1.44650,10.36806869
1.44700,10.9784575
1.44750,14.9459848
1.44800,19.21870651
1.44850,18.9135121
1.44900,14.03040158
1.44950,5.790152573
1.45000,-2.450096434
1.45050,-7.333206958
1.45100,-4.586457288
1.45150,4.264180535
1.45200,11.89404073
1.45250,13.11481836
1.45300,11.58884632
1.45350,11.58884632
1.45400,13.11481836
1.45450,11.58884632
1.45500,7.62131902
1.45550,5.790152573
1.45600,7.62131902
1.45650,9.147291058
1.45700,7.010930204
1.45750,2.127819681
1.45800,-3.670874065
1.45850,-9.469567812
1.45900,-13.74228952
1.45950,-14.65787274
1.46000,-12.21631748
1.46050,-8.248790181
1.46100,-7.02801255
1.46150,-10.38515103
1.46200,-17.40462241
1.46250,-21.98253853
1.46300,-21.0669553
1.46350,-16.18384478
1.46400,-13.74228952
1.46450,-16.48903919
1.46500,-21.0669553
1.46550,-21.98253853
1.46600,-19.54098327
1.46650,-18.62540004
1.46700,-21.0669553
1.46750,-25.95006583
1.46800,-30.22278754
1.46850,-32.6643428
1.46900,-32.9695372
1.46950,-32.6643428
1.47000,-31.74875957
1.47050,-29.0020099
1.47100,-23.50851057
1.47150,-17.099428
1.47200,-13.74228952
1.47250,-14.65787274
1.47300,-13.74228952
1.47350,-6.722818142
1.47400,2.127819681
1.47450,5.179763758
1.47500,3.043402904
1.47550,3.348597312
1.47600,10.36806869
1.47650,19.52390092
1.47700,22.8810394
1.47750,19.21870651
1.47800,12.80962395
1.47850,7.62131902
1.47900,4.264180535
1.47950,1.517430866
1.48000,-0.6189299882
1.48050,-3.06048525
1.48100,-3.976068473
1.48150,-1.839707619
1.48200,0.9070420503
1.48250,1.212236458
1.48300,-3.365679658
1.48350,-12.21631748
1.48400,-19.54098327
1.48450,-20.45656649
1.48500,-15.26826156
1.48550,-7.638401365
1.48600,-3.06048525
1.48650,-2.755290842
1.48700,-3.365679658
1.48750,-2.144902027
1.48800,-0.6189299882
1.48850,-2.450096434
1.48900,-7.02801255
1.48950,-9.774762219
1.49000,-8.553984588
1.49050,-4.891651696
1.49100,-1.534513211
1.49150,2.127819681
1.49200,7.926513427
1.49250,14.33559599
1.49300,18.9135121
1.49350,21.04987296
1.49400,21.35506737
1.49450,18.6083177
1.49500,11.89404073
1.49550,4.569374943
1.49600,3.348597312
1.49650,7.926513427
1.49700,12.50442954
1.49750,12.50442954
1.49800,10.06287428
1.49850,7.926513427
1.49900,7.010930204
1.49950,6.705735797
1.50000,9.147291058
1.50050,14.33559599
1.50100,19.52390092
1.50150,21.96545618
1.50200,21.35506737
1.50250,20.74467855
1.50300,21.96545618
1.50350,22.8810394
1.50400,21.96545618
1.50450,17.69273447
1.50500,12.80962395
1.50550,12.50442954
1.50600,18.30312329
1.50650,23.79662263
1.50700,20.43948414
1.50750,8.536902243
1.50800,-1.229318804
1.50850,-0.9241243959
1.50900,6.400541389
1.50950,12.50442954
1.51000,15.55637362
1.51050,18.30312329
1.51100,19.52390092
1.51150,15.25117921
1.51200,5.484958166
1.51250,-3.365679658
1.51300,-8.553984588
1.51350,-13.43709511
1.51400,-19.84617767
1.51450,-25.0344826
1.51500,-24.7292882
1.51550,-21.37214971
1.51600,-20.15137208
1.51650,-20.15137208
1.51700,-16.18384478
1.51750,-7.333206958
1.51800,-0.008541172829
1.51850,1.212236458
1.51900,-1.229318804
1.51950,-2.450096434
1.52000,-0.008541172829
1.52050,3.65379172
1.52100,6.400541389
1.52150,7.010930204
1.52200,6.705735797
1.52250,6.095346981
1.52300,5.790152573
1.52350,6.095346981
1.52400,7.62131902
1.52450,8.842096651
1.52500,8.536902243
1.52550,4.569374943
1.52600,-0.6189299882
1.52650,-3.670874065
1.52700,-1.229318804
1.52750,3.043402904
1.52800,4.264180535
1.52850,0.6018476426
1.52900,-3.365679658
1.52950,-5.807234919
1.53000,-6.722818142
1.53050,-7.638401365
1.53100,-8.553984588
1.53150,-8.553984588
1.53200,-8.248790181
1.53250,-9.164373404
1.53300,-11.60592867
1.53350,-14.04748393
1.53400,-13.43709511
1.53450,-9.469567812
1.53500,-4.891651696
1.53550,-3.365679658
1.53600,-4.586457288
1.53650,-3.670874065
1.53700,2.127819681
1.53750,9.757679874
1.53800,13.42001277
1.53850,13.72520717
1.53900,13.72520717
1.53950,14.6407904
1.54000,14.9459848
1.54050,14.6407904
1.54100,15.86156803
1.54150,17.69273447
1.54200,17.69273447
1.54250,15.25117921
1.54300,12.80962395
1.54350,10.36806869
1.54400,6.400541389
1.54450,-0.008541172829
1.54500,-6.112429327
1.54550,-9.164373404
1.54600,-8.859178996
1.54650,-6.722818142
1.54700,-3.976068473
1.54750,-1.229318804
1.54800,0.2966532349
1.54850,0.2966532349
1.54900,-1.534513211
1.54950,-5.196846104
1.55000,-8.248790181
1.55050,-9.164373404
1.55100,-7.638401365
1.55150,-5.807234919
1.55200,-5.807234919
1.55250,-7.333206958
1.55300,-10.38515103
1.55350,-14.96306715
1.55400,-20.45656649
1.55450,-25.0344826
1.55500,-28.08642668
1.55550,-31.44356517
1.55600,-36.9370645
1.55650,-43.34614707
1.55700,-46.39809114
1.55750,-42.73575825
1.55800,-32.9695372
1.55850,-21.67734412
1.55900,-15.26826156
1.55950,-15.87865037
1.56000,-17.099428
1.56050,-10.69034544
1.56100,0.6018476426
1.56150,8.842096651
1.56200,7.926513427
1.56250,4.264180535
1.56300,7.316124612
1.56350,18.9135121
1.56400,34.17323249
1.56450,46.99139761
1.56500,54.01086899
1.56550,53.09528577
1.56600,43.63425913
1.56650,30.5108996
1.56700,20.13428974
1.56750,15.55637362
1.56800,14.03040158
1.56850,12.80962395
1.56900,10.6732631
1.56950,7.010930204
1.57000,1.517430866
1.57050,-4.281262881
1.57100,-8.248790181
1.57150,-9.469567812
1.57200,-9.469567812
1.57250,-8.248790181
1.57300,-4.281262881
1.57350,1.822625273
1.57400,7.010930204
1.57450,8.231707835
1.57500,6.705735797
1.57550,5.790152573
1.57600,5.790152573
1.57650,5.484958166
1.57700,4.569374943
1.57750,3.958986127
1.57800,3.348597312
1.57850,1.212236458
1.57900,-2.755290842
1.57950,-6.722818142
1.58000,-8.553984588
1.58050,-9.164373404
1.58100,-9.164373404
1.58150,-9.164373404
1.58200,-9.469567812
1.58250,-11.91112307
1.58300,-15.87865037
1.58350,-16.48903919
1.58400,-10.99553985
1.58450,-1.534513211
1.58500,5.790152573
1.58550,10.06287428
1.58600,13.42001277
1.58650,17.38754007
1.58700,18.6083177
1.58750,14.6407904
1.58800,8.231707835
1.58850,5.790152573
1.58900,9.452485466
1.58950,16.77715125
1.59000,24.71220585
1.59050,31.42648282
1.59100,34.78362131
1.59150,32.64726045
1.59200,24.71220585
1.59250,16.16676244
1.59300,11.28365191
1.59350,8.842096651
1.59400,3.958986127
1.59450,-4.891651696
1.59500,-14.35267833
1.59550,-18.01501123
1.59600,-16.7942336
1.59650,-18.32020563
1.59700,-25.33967701
1.59750,-32.6643428
1.59800,-33.57992602
1.59850,-29.61239872
1.59900,-29.30720431
1.59950,-35.10589806
1.60000,-41.20978621
1.60050,-41.51498062
1.60100,-36.02148128
1.60150,-27.78123227
1.60200,-19.23578886
1.60250,-13.1319007
1.60300,-12.8267063
1.60350,-15.87865037
1.60400,-12.8267063
1.60450,-0.008541172829
1.60500,14.6407904
1.60550,20.43948414
1.60600,16.47195684
1.60650,10.9784575
1.60700,7.62131902
1.60750,4.569374943
1.60800,0.2966532349
1.60850,-3.06048525
1.60900,-5.807234919
1.60950,-10.38515103
1.61000,-17.099428
1.61050,-22.28773294
1.61100,-22.28773294
1.61150,-18.62540004
1.61200,-13.43709511
1.61250,-7.943595773
1.61300,-3.976068473
1.61350,-4.586457288
1.61400,-10.69034544
1.61450,-16.48903919
1.61500,-18.01501123
1.61550,-15.57345597
1.61600,-11.30073426
1.61650,-6.112429327
1.61700,-0.6189299882
1.61750,2.127819681
1.61800,1.822625273
1.61850,1.822625273
1.61900,5.790152573
1.61950,11.58884632
1.62000,13.72520717
1.62050,11.28365191
1.62100,7.62131902
1.62150,6.095346981
1.62200,5.179763758
1.62250,5.179763758
1.62300,9.452485466
1.62350,19.82909533
1.62400,30.81609401
1.62450,34.78362131
1.62500,32.34206604
1.62550,32.03687164
1.62600,38.4459542
1.62650,46.07581439
1.62700,46.68620321
1.62750,37.83556538
1.62800,26.23817789
1.62850,17.38754007
1.62900,11.58884632
1.62950,5.484958166
1.63000,0.2966532349
1.63050,-2.755290842
1.63100,-6.112429327
1.63150,-11.60592867
1.63200,-18.32020563
1.63250,-23.20331616
1.63300,-25.64487142
1.63350,-28.08642668
1.63400,-30.22278754
1.63450,-28.6968155
1.63500,-23.81370497
1.63550,-19.84617767
1.63600,-19.23578886
1.63650,-19.84617767
1.63700,-19.84617767
1.63750,-20.45656649
1.63800,-22.89812175
1.63850,-22.89812175
1.63900,-15.87865037
1.63950,-6.112429327
1.64000,0.2966532349
1.64050,2.433014089
1.64100,3.65379172
1.64150,4.87456935
1.64200,3.348597312
1.64250,-0.6189299882
1.64300,-2.450096434
1.64350,0.9070420503
1.64400,7.316124612
1.64450,12.80962395
1.64500,16.47195684
1.64550,17.08234566
1.64600,14.6407904
1.64650,10.9784575
1.64700,7.926513427
1.64750,3.958986127
1.64800,-3.976068473
1.64850,-15.26826156
1.64900,-22.59292734
1.64950,-20.45656649
1.65000,-11.60592867
1.65050,-2.755290842
1.65100,2.433014089
1.65150,3.958986127
1.65200,3.958986127
1.65250,5.179763758
1.65300,8.536902243
1.65350,12.19923514
1.65400,13.42001277
1.65450,12.50442954
1.65500,13.11481836
1.65550,15.25117921
1.65600,14.33559599
1.65650,8.536902243
1.65700,0.6018476426
1.65750,-4.891651696
1.65800,-7.638401365
1.65850,-8.553984588
1.65900,-7.333206958
1.65950,-4.586457288
1.66000,-2.755290842
1.66050,-2.144902027
1.66100,-0.3137355805
1.66150,4.264180535
1.66200,9.757679874
1.66250,12.80962395
1.66300,13.72520717
1.66350,14.6407904
1.66400,16.16676244
1.66450,16.16676244
1.66500,14.9459848
1.66550,14.6407904
1.66600,16.77715125
1.66650,20.43948414
1.66700,22.575845
1.66750,21.96545618
1.66800,17.99792888
1.66850,12.19923514
1.66900,6.705735797
1.66950,2.738208496
1.67000,0.6018476426
1.67050,-0.6189299882
1.67100,-2.755290842
1.67150,-6.722818142
1.67200,-12.21631748
1.67250,-17.40462241
1.67300,-18.62540004
1.67350,-15.57345597
1.67400,-10.07995663
1.67450,-6.112429327
1.67500,-4.891651696
1.67550,-4.891651696
1.67600,-4.281262881
1.67650,-3.670874065
1.67700,-3.365679658
1.67750,-3.06048525
1.67800,-2.450096434
1.67850,-0.3137355805
1.67900,2.433014089
1.67950,5.790152573
1.68000,10.6732631
1.68050,16.77715125
1.68100,21.35506737
1.68150,22.27065059
1.68200,20.43948414
1.68250,19.82909533
1.68300,21.04987296
1.68350,20.13428974
1.68400,13.72520717
1.68450,3.348597312
1.68500,-5.502040511
1.68550,-10.38515103
1.68600,-12.21631748
1.68650,-12.52151189
1.68700,-12.21631748
1.68750,-11.91112307
1.68800,-12.21631748
1.68850,-12.8267063
1.68900,-13.74228952
1.68950,-14.65787274
1.69000,-14.35267833
1.69050,-10.99553985
1.69100,-3.365679658
1.69150,4.87456935
1.69200,11.58884632
1.69250,17.08234566
1.69300,20.74467855
1.69350,20.13428974
1.69400,14.03040158
1.69450,6.095346981
1.69500,0.6018476426
1.69550,-1.839707619
1.69600,-5.196846104
1.69650,-9.469567812
1.69700,-12.21631748
1.69750,-11.60592867
1.69800,-8.553984588
1.69850,-4.891651696
1.69900,-1.534513211
1.69950,0.2966532349
1.70000,2.738208496
1.70050,7.010930204
1.70100,10.6732631
1.70150,10.06287428
1.70200,6.095346981
1.70250,5.484958166
1.70300,11.58884632
1.70350,17.38754007
1.70400,14.9459848
1.70450,6.095346981
1.70500,-1.229318804
1.70550,-3.06048525
1.70600,-2.450096434
1.70650,-1.839707619
1.70700,-3.365679658
1.70750,-7.943595773
1.70800,-14.65787274
1.70850,-18.32020563
1.70900,-14.96306715
1.70950,-9.164373404
1.71000,-8.553984588
1.71050,-12.52151189
1.71100,-14.65787274
1.71150,-12.21631748
1.71200,-10.38515103
1.71250,-11.60592867
1.71300,-11.60592867
1.71350,-9.164373404
1.71400,-8.553984588
1.71450,-13.74228952
1.71500,-19.23578886
1.71550,-17.70981682
1.71600,-11.30073426
1.71650,-7.943595773
1.71700,-10.99553985
1.71750,-14.65787274
1.71800,-13.74228952
1.71850,-10.69034544
1.71900,-11.91112307
1.71950,-17.099428
1.72000,-21.37214971
1.72050,-20.45656649
1.72100,-14.35267833
1.72150,-3.976068473
1.72200,8.536902243
1.72250,21.04987296
1.72300,28.06934434
1.72350,29.59531637
1.72400,28.98492756
1.72450,30.5108996
1.72500,33.56284367
1.72550,36.00439894
1.72600,38.14075979
1.72650,40.58231505
1.72700,40.58231505
1.72750,35.69920453
1.72800,28.06934434
1.72850,22.575845
1.72900,19.82909533
1.72950,17.69273447
1.73000,15.86156803
1.73050,15.86156803
1.73100,16.77715125
1.73150,14.6407904
1.73200,7.926513427
1.73250,0.6018476426
1.73300,-3.976068473
1.73350,-9.469567812
1.73400,-18.01501123
1.73450,-26.25526024
1.73500,-29.30720431
1.73550,-30.22278754
1.73600,-36.9370645
1.73650,-51.28120167
1.73700,-63.79417238
1.73750,-64.70975561
1.73800,-53.72275693
1.73850,-39.07342536
1.73900,-26.56045464
1.73950,-17.099428
1.74000,-8.859178996
1.74050,-2.144902027
1.74100,0.9070420503
1.74150,0.2966532349
1.74200,-3.365679658
1.74250,-7.333206958
1.74300,-8.248790181
1.74350,-5.196846104
1.74400,-2.144902027
1.74450,-2.755290842
1.74500,-5.807234919
1.74550,-6.417623735
1.74600,-3.670874065
1.74650,-1.839707619
1.74700,-3.365679658
1.74750,-4.281262881
1.74800,-0.9241243959
1.74850,4.569374943
1.74900,9.147291058
1.74950,10.6732631
1.75000,10.9784575
1.75050,11.89404073
1.75100,12.50442954
1.75150,13.11481836
1.75200,14.03040158
1.75250,14.6407904
1.75300,14.9459848
1.75350,15.25117921
1.75400,15.86156803
1.75450,15.55637362
1.75500,12.50442954
1.75550,9.147291058
1.75600,9.757679874
1.75650,14.03040158
1.75700,17.08234566
1.75750,14.9459848
1.75800,10.36806869
1.75850,8.536902243
1.75900,10.36806869
1.75950,12.19923514
1.76000,11.58884632
1.76050,10.36806869
1.76100,9.757679874
1.76150,8.231707835
1.76200,1.822625273
1.76250,-8.248790181
1.76300,-16.7942336
1.76350,-19.23578886
1.76400,-15.87865037
1.76450,-11.91112307
1.76500,-10.69034544
1.76550,-10.99553985
1.76600,-8.248790181
1.76650,-0.6189299882
1.76700,7.62131902
1.76750,11.89404073
1.76800,9.452485466
1.76850,3.65379172
1.76900,-1.229318804
1.76950,-5.807234919
1.77000,-10.38515103
1.77050,-14.35267833
1.77100,-15.57345597
1.77150,-13.74228952
1.77200,-11.60592867
1.77250,-9.774762219
1.77300,-7.333206958
1.77350,-2.450096434
1.77400,3.958986127
1.77450,10.06287428
1.77500,12.50442954
1.77550,10.36806869
1.77600,6.095346981
1.77650,3.348597312
1.77700,3.043402904
1.77750,4.87456935
1.77800,9.147291058
1.77850,16.77715125
1.77900,23.79662263
1.77950,22.575845
1.78000,12.50442954
1.78050,0.2966532349
1.78100,-7.638401365
1.78150,-13.1319007
1.78200,-18.62540004
1.78250,-20.7617609
1.78300,-16.7942336
1.78350,-10.69034544
1.78400,-8.553984588
1.78450,-10.38515103
1.78500,-11.60592867
1.78550,-10.07995663
1.78600,-7.333206958
1.78650,-2.450096434
1.78700,5.179763758
1.78750,11.89404073
1.78800,13.11481836
1.78850,9.757679874
1.78900,5.179763758
1.78950,-0.9241243959
1.79000,-10.99553985
1.79050,-19.54098327
1.79100,-19.84617767
1.79150,-14.04748393
1.79200,-9.469567812
1.79250,-8.553984588
1.79300,-6.722818142
1.79350,-1.534513211
1.79400,4.264180535
1.79450,10.6732631
1.79500,19.21870651
1.79550,28.98492756
1.79600,32.95245486
1.79650,28.67973315
1.79700,21.66026177
1.79750,17.69273447
1.79800,17.38754007
1.79850,17.08234566
1.79900,14.9459848
1.79950,11.28365191
1.80000,4.569374943
1.80050,-3.670874065
1.80100,-10.99553985
1.80150,-15.26826156
1.80200,-17.70981682
1.80250,-19.23578886
1.80300,-18.62540004
1.80350,-14.35267833
1.80400,-8.248790181
1.80450,-1.839707619
1.80500,3.958986127
1.80550,10.06287428
1.80600,14.33559599
1.80650,15.55637362
1.80700,16.16676244
1.80750,18.30312329
1.80800,20.43948414
1.80850,18.9135121
1.80900,14.03040158
1.80950,10.06287428
1.81000,9.757679874
1.81050,11.89404073
1.81100,12.50442954
1.81150,10.6732631
1.81200,10.6732631
1.81250,14.6407904
1.81300,20.74467855
1.81350,21.35506737
1.81400,13.42001277
1.81450,2.127819681
1.81500,-5.196846104
1.81550,-7.638401365
1.81600,-9.774762219
1.81650,-12.8267063
1.81700,-10.99553985
1.81750,-1.534513211
1.81800,8.842096651
1.81850,10.9784575
1.81900,5.484958166
1.81950,-0.008541172829
1.82000,-1.839707619
1.82050,-4.891651696
1.82100,-10.07995663
1.82150,-11.30073426
1.82200,-5.807234919
1.82250,1.517430866
1.82300,4.264180535
1.82350,1.212236458
1.82400,-4.281262881
1.82450,-13.1319007
1.82500,-25.33967701
1.82550,-35.10589806
1.82600,-36.02148128
1.82650,-29.30720431
1.82700,-22.89812175
1.82750,-21.98253853
1.82800,-23.50851057
1.82850,-22.89812175
1.82900,-18.93059445
1.82950,-13.43709511
1.83000,-7.943595773
1.83050,-4.281262881
1.83100,-3.365679658
1.83150,-3.976068473
1.83200,-3.06048525
1.83250,-0.008541172829
1.83300,3.958986127
1.83350,7.62131902
1.83400,10.06287428
1.83450,8.536902243
1.83500,0.9070420503
1.83550,-10.69034544
1.83600,-19.54098327
1.83650,-19.23578886
1.83700,-11.30073426
1.83750,-3.976068473
1.83800,-2.450096434
1.83850,-5.196846104
1.83900,-9.469567812
1.83950,-13.43709511
1.84000,-17.70981682
1.84050,-22.28773294
1.84100,-25.33967701
1.84150,-26.56045464
1.84200,-25.64487142
1.84250,-22.89812175
1.84300,-17.099428
1.84350,-8.553984588
1.84400,0.6018476426
1.84450,8.231707835
1.84500,14.6407904
1.84550,21.04987296
1.84600,28.06934434
1.84650,32.34206604
1.84700,32.03687164
1.84750,28.98492756
1.84800,27.76414993
1.84850,30.20570519
1.84900,34.4784269
1.84950,35.39401012
1.85000,30.20570519
1.85050,19.21870651
1.85100,5.484958166
1.85150,-6.722818142
1.85200,-16.48903919
1.85250,-24.42409379
1.85300,-31.44356517
1.85350,-37.24225891
1.85400,-40.29420299
1.85450,-41.20978621
1.85500,-41.20978621
1.85550,-40.5993974
1.85600,-38.76823095
1.85650,-35.41109247
1.85700,-31.44356517
1.85750,-25.95006583
1.85800,-18.93059445
1.85850,-10.99553985
1.85900,-7.333206958
1.85950,-11.60592867
1.86000,-20.45656649
1.86050,-25.33967701
1.86100,-20.45656649
1.86150,-10.07995663
1.86200,-2.755290842
1.86250,-2.755290842
1.86300,-5.807234919
1.86350,-8.248790181
1.86400,-10.07995663
1.86450,-10.99553985
1.86500,-7.333206958
1.86550,1.822625273
1.86600,12.80962395
1.86650,19.82909533
1.86700,22.575845
1.86750,25.01740026
1.86800,27.76414993
1.86850,29.29012197
1.86900,29.90051078
1.86950,30.20570519
1.87000,26.8485667
1.87050,18.6083177
1.87100,10.9784575
1.87150,11.89404073
1.87200,19.82909533
1.87250,26.5433723
1.87300,26.23817789
1.87350,21.96545618
1.87400,19.21870651
1.87450,19.52390092
1.87500,21.96545618
1.87550,24.10181704
1.87600,23.79662263
1.87650,19.52390092
1.87700,12.50442954
1.87750,7.010930204
1.87800,4.569374943
1.87850,4.569374943
1.87900,4.87456935
1.87950,3.65379172
1.88000,-0.008541172829
1.88050,-6.417623735
1.88100,-11.30073426
1.88150,-9.164373404
1.88200,-1.229318804
1.88250,5.179763758
1.88300,7.316124612
1.88350,6.705735797
1.88400,7.010930204
1.88450,7.316124612
1.88500,6.095346981
1.88550,5.484958166
1.88600,9.757679874
1.88650,18.6083177
1.88700,26.5433723
1.88750,31.12128841
1.88800,33.56284367
1.88850,35.39401012
1.88900,35.08881571
1.88950,31.42648282
1.89000,26.5433723
1.89050,23.79662263
1.89100,24.40701144
1.89150,25.32259467
1.89200,24.71220585
1.89250,23.18623381
1.89300,23.18623381
1.89350,23.49142822
1.89400,22.27065059
1.89450,19.21870651
1.89500,16.16676244
1.89550,14.9459848
1.89600,13.42001277
1.89650,7.62131902
1.89700,-3.06048525
1.89750,-15.57345597
1.89800,-25.95006583
1.89850,-35.71628687
1.89900,-47.31367437
1.89950,-59.52145067
1.90000,-67.15131087
1.90050,-65.93053324
1.90100,-56.4695066
1.90150,-44.5669247
1.90200,-36.6318701
1.90250,-35.10589806
1.90300,-36.32667569
1.90350,-33.27473161
1.90400,-23.81370497
1.90450,-12.21631748
1.90500,-4.586457288
1.90550,-1.534513211
1.90600,-0.3137355805
1.90650,0.6018476426
1.90700,0.2966532349
1.90750,-0.6189299882
1.90800,-2.144902027
1.90850,-5.807234919
1.90900,-14.96306715
1.90950,-26.86564905
1.91000,-34.80070365
1.91050,-33.88512043
1.91100,-25.64487142
1.91150,-15.26826156
1.91200,-7.333206958
1.91250,-3.365679658
1.91300,-2.144902027
1.91350,-1.534513211
1.91400,0.2966532349
1.91450,4.569374943
1.91500,10.36806869
1.91550,16.47195684
1.91600,21.35506737
1.91650,24.40701144
1.91700,26.8485667
1.91750,28.37453874
1.91800,27.15376111
1.91850,21.04987296
1.91900,11.89404073
1.91950,5.179763758
1.92000,3.958986127
1.92050,4.569374943
1.92100,2.433014089
1.92150,-3.976068473
1.92200,-10.99553985
1.92250,-15.26826156
1.92300,-16.7942336
1.92350,-16.7942336
1.92400,-15.26826156
1.92450,-10.07995663
1.92500,-2.144902027
1.92550,4.569374943
1.92600,5.484958166
1.92650,1.212236458
1.92700,-2.144902027
1.92750,-0.9241243959
1.92800,2.127819681
1.92850,3.043402904
1.92900,0.6018476426
1.92950,-3.365679658
1.93000,-6.417623735
1.93050,-6.722818142
1.93100,-2.450096434
1.93150,4.569374943
1.93200,10.06287428
1.93250,9.757679874
1.93300,4.264180535
1.93350,-0.3137355805
1.93400,-0.008541172829
1.93450,4.264180535
1.93500,8.842096651
1.93550,8.842096651
1.93600,3.958986127
1.93650,-1.534513211
1.93700,-6.112429327
1.93750,-10.07995663
1.93800,-15.26826156
1.93850,-19.84617767
1.93900,-19.54098327
1.93950,-14.65787274
1.94000,-9.774762219
1.94050,-7.02801255
1.94100,-4.891651696
1.94150,-3.365679658
1.94200,-2.450096434
1.94250,-1.229318804
1.94300,3.65379172
1.94350,13.42001277
1.94400,22.8810394
1.94450,27.76414993
1.94500,27.15376111
1.94550,23.18623381
1.94600,19.21870651
1.94650,17.69273447
1.94700,18.9135121
1.94750,20.74467855
1.94800,20.43948414
1.94850,17.38754007
1.94900,13.72520717
1.94950,10.6732631
1.95000,9.147291058
1.95050,9.452485466
1.95100,9.452485466
1.95150,6.400541389
1.95200,-1.229318804
1.95250,-9.469567812
1.95300,-13.43709511
1.95350,-14.35267833
1.95400,-16.48903919
1.95450,-20.15137208
1.95500,-21.67734412
1.95550,-19.23578886
1.95600,-14.65787274
1.95650,-12.52151189
1.95700,-13.1319007
1.95750,-14.35267833
1.95800,-13.1319007
1.95850,-8.553984588
1.95900,-3.670874065
1.95950,-0.6189299882
1.96000,-0.008541172829
1.96050,-0.3137355805
1.96100,-0.3137355805
1.96150,-1.839707619
1.96200,-5.196846104
1.96250,-8.553984588
1.96300,-11.30073426
1.96350,-13.43709511
1.96400,-14.35267833
1.96450,-13.43709511
1.96500,-10.38515103
1.96550,-7.638401365
1.96600,-4.586457288
1.96650,-0.008541172829
1.96700,6.400541389
1.96750,12.80962395
1.96800,17.08234566
1.96850,20.43948414
1.96900,24.40701144
1.96950,28.98492756
1.97000,34.17323249
1.97050,39.05634301
1.97100,41.49789827
1.97150,37.22517657
1.97200,28.37453874
1.97250,21.35506737
1.97300,21.35506737
1.97350,25.93298348
1.97400,31.12128841
1.97450,35.69920453
1.97500,38.4459542
1.97550,36.61478775
1.97600,29.29012197
1.97650,21.66026177
1.97700,18.6083177
1.97750,18.6083177
1.97800,16.77715125
1.97850,10.36806869
1.97900,1.212236458
1.97950,-11.30073426
1.98000,-28.08642668
1.98050,-42.12536944
1.98100,-44.8721191
1.98150,-38.46303654
1.98200,-32.05395398
1.98250,-30.52798194
1.98300,-27.47603787
1.98350,-19.54098327
1.98400,-13.1319007
1.98450,-14.35267833
1.98500,-19.54098327
1.98550,-19.23578886
1.98600,-14.04748393
1.98650,-9.164373404
1.98700,-5.502040511
1.98750,1.517430866
1.98800,10.9784575
1.98850,15.25117921
1.98900,11.28365191
1.98950,4.87456935
1.99000,1.212236458
1.99050,0.6018476426
1.99100,0.6018476426
1.99150,1.212236458
1.99200,2.127819681
1.99250,1.517430866
1.99300,-0.008541172829
1.99350,2.433014089
1.99400,8.536902243
1.99450,11.28365191
1.99500,6.400541389
1.99550,-0.9241243959
1.99600,-4.586457288
1.99650,-5.502040511
1.99700,-8.859178996
1.99750,-15.26826156
1.99800,-19.84617767
1.99850,-17.40462241
1.99900,-10.07995663
1.99950,-3.670874065
2.00000,-1.534513211
2.00050,-4.281262881
2.00100,-8.859178996
2.00150,-11.30073426
2.00200,-10.99553985
2.00250,-8.553984588
2.00300,-5.196846104
2.00350,-1.534513211
2.00400,-0.008541172829
2.00450,0.6018476426
2.00500,3.958986127
2.00550,11.28365191
2.00600,17.99792888
2.00650,18.6083177
2.00700,15.55637362
2.00750,15.86156803
2.00800,18.6083177
2.00850,17.38754007
2.00900,10.9784575
2.00950,7.62131902
2.01000,10.06287428
2.01050,11.89404073
2.01100,5.790152573
2.01150,-3.670874065
2.01200,-8.553984588
2.01250,-9.469567812
2.01300,-11.60592867
2.01350,-16.7942336
2.01400,-21.98253853
2.01450,-25.33967701
2.01500,-27.78123227
2.01550,-28.39162109
2.01600,-26.86564905
2.01650,-23.20331616
2.01700,-19.23578886
2.01750,-14.35267833
2.01800,-9.164373404
2.01850,-6.417623735
2.01900,-6.417623735
2.01950,-5.807234919
2.02000,-0.6189299882
2.02050,7.010930204
2.02100,13.42001277
2.02150,16.77715125
2.02200,17.99792888
2.02250,17.99792888
2.02300,16.47195684
2.02350,13.11481836
2.02400,7.926513427
2.02450,0.6018476426
2.02500,-5.807234919
2.02550,-8.553984588
2.02600,-7.943595773
2.02650,-8.248790181
2.02700,-11.91112307
2.02750,-15.57345597
2.02800,-15.87865037
2.02850,-12.8267063
2.02900,-8.553984588
2.02950,-2.755290842
2.03000,3.65379172
2.03050,7.62131902
2.03100,7.010930204
2.03150,3.043402904
2.03200,-0.9241243959
2.03250,-5.502040511
2.03300,-10.38515103
2.03350,-13.43709511
2.03400,-14.35267833
2.03450,-16.18384478
2.03500,-18.62540004
2.03550,-18.62540004
2.03600,-14.65787274
2.03650,-8.859178996
2.03700,-3.976068473
2.03750,1.212236458
2.03800,8.842096651
2.03850,15.55637362
2.03900,18.6083177
2.03950,20.74467855
2.04000,26.23817789
2.04050,34.17323249
2.04100,38.75114861
2.04150,36.00439894
2.04200,30.20570519
2.04250,27.45895552
2.04300,29.29012197
2.04350,32.64726045
2.04400,32.64726045
2.04450,27.45895552
2.04500,18.9135121
2.04550,10.6732631
2.04600,4.264180535
2.04650,-0.9241243959
2.04700,-6.112429327
2.04750,-11.60592867
2.04800,-18.01501123
2.04850,-24.42409379
2.04900,-28.08642668
2.04950,-27.47603787
2.05000,-23.50851057
2.05050,-19.54098327
2.05100,-18.01501123
2.05150,-18.32020563
2.05200,-18.01501123
2.05250,-16.48903919
2.05300,-15.57345597
2.05350,-17.40462241
2.05400,-21.37214971
2.05450,-24.7292882
2.05500,-24.42409379
2.05550,-18.93059445
2.05600,-9.774762219
2.05650,-0.008541172829
2.05700,5.790152573
2.05750,7.62131902
2.05800,7.62131902
2.05850,9.147291058
2.05900,10.6732631
2.05950,9.757679874
2.06000,6.095346981
2.06050,3.348597312
2.06100,3.65379172
2.06150,6.095346981
2.06200,9.147291058
2.06250,13.42001277
2.06300,19.52390092
2.06350,23.49142822
2.06400,20.74467855
2.06450,12.19923514
2.06500,3.958986127
2.06550,1.517430866
2.06600,3.043402904
2.06650,4.87456935
2.06700,4.87456935
2.06750,3.348597312
2.06800,1.517430866
2.06850,-0.6189299882
2.06900,-3.976068473
2.06950,-7.02801255
2.07000,-9.469567812
2.07050,-10.69034544
2.07100,-10.99553985
2.07150,-10.38515103
2.07200,-8.859178996
2.07250,-6.722818142
2.07300,-6.112429327
2.07350,-7.02801255
2.07400,-6.722818142
2.07450,-3.365679658
2.07500,-0.3137355805
2.07550,-3.976068473
2.07600,-11.60592867
2.07650,-14.35267833
2.07700,-8.248790181
2.07750,-0.008541172829
2.07800,1.822625273
2.07850,-0.3137355805
2.07900,-0.008541172829
2.07950,3.958986127
2.08000,7.926513427
2.08050,8.842096651
2.08100,9.452485466
2.08150,11.58884632
2.08200,12.19923514
2.08250,7.926513427
2.08300,0.9070420503
2.08350,-4.891651696
2.08400,-8.553984588
2.08450,-11.91112307
2.08500,-14.65787274
2.08550,-15.87865037
2.08600,-15.26826156
2.08650,-12.52151189
2.08700,-9.164373404
2.08750,-7.333206958
2.08800,-8.248790181
2.08850,-8.859178996
2.08900,-3.670874065
2.08950,6.400541389
2.09000,14.6407904
2.09050,13.72520717
2.09100,6.095346981
2.09150,1.517430866
2.09200,5.484958166
2.09250,14.33559599
2.09300,20.74467855
2.09350,21.66026177
2.09400,18.30312329
2.09450,14.33559599
2.09500,12.19923514
2.09550,11.28365191
2.09600,9.452485466
2.09650,6.095346981
2.09700,1.517430866
2.09750,-1.839707619
2.09800,-3.976068473
2.09850,-5.502040511
2.09900,-7.333206958
2.09950,-9.469567812
2.10000,-12.52151189
2.10050,-17.70981682
2.10100,-24.42409379
2.10150,-30.22278754
2.10200,-32.05395398
2.10250,-29.30720431
2.10300,-25.64487142
2.10350,-23.81370497
2.10400,-24.42409379
2.10450,-25.0344826
2.10500,-22.89812175
2.10550,-19.23578886
2.10600,-15.87865037
2.10650,-13.74228952
2.10700,-11.30073426
2.10750,-7.638401365
2.10800,-2.144902027
2.10850,5.790152573
2.10900,15.25117921
2.10950,23.18623381
2.11000,27.45895552
2.11050,28.06934434
2.11100,27.15376111
2.11150,25.32259467
2.11200,22.27065059
2.11250,17.99792888
2.11300,13.42001277
2.11350,8.842096651
2.11400,3.958986127
2.11450,-0.008541172829
2.11500,-1.839707619
2.11550,-2.144902027
2.11600,-0.9241243959
2.11650,1.822625273
2.11700,7.316124612
2.11750,10.9784575
2.11800,7.316124612
2.11850,-1.534513211
2.11900,-8.859178996
2.11950,-9.774762219
2.12000,-7.02801255
2.12050,-4.891651696
2.12100,-2.144902027
2.12150,4.569374943
2.12200,11.89404073
2.12250,13.42001277
2.12300,8.231707835
2.12350,2.127819681
2.12400,0.6018476426
2.12450,3.65379172
2.12500,8.842096651
2.12550,14.03040158
2.12600,19.21870651
2.12650,22.27065059
2.12700,22.27065059
2.12750,19.82909533
2.12800,15.55637362
2.12850,10.36806869
2.12900,6.095346981
2.12950,3.65379172
2.13000,3.043402904
2.13050,1.212236458
2.13100,-3.06048525
2.13150,-9.774762219
2.13200,-16.7942336
2.13250,-23.81370497
2.13300,-29.91759313
2.13350,-31.13837076
2.13400,-25.95006583
2.13450,-16.7942336
2.13500,-10.99553985
2.13550,-9.774762219
2.13600,-7.638401365
2.13650,0.9070420503
2.13700,13.42001277
2.13750,23.18623381
2.13800,27.45895552
2.13850,31.12128841
2.13900,36.61478775
2.13950,41.80309268
2.14000,45.16023117
2.14050,48.82256406
2.14100,54.62125781
2.14150,58.89397951
2.14200,56.14722984
2.14250,47.60178643
2.14300,39.97192624
2.14350,38.4459542
2.14400,41.19270387
2.14450,42.71867591
2.14500,40.58231505
2.14550,36.61478775
2.14600,32.03687164
2.14650,22.575845
2.14700,4.87456935
2.14750,-19.23578886
2.14800,-42.12536944
2.14850,-57.07989541
2.14900,-63.18378357
2.14950,-65.93053324
2.15000,-69.59286613
2.15050,-74.17078224
2.15100,-79.05389277
2.15150,-83.32661448
2.15200,-85.15778092
2.15250,-81.80064244
2.15300,-71.42403257
2.15350,-57.99547864
2.15400,-46.70328555
2.15450,-39.37861977
2.15500,-35.10589806
2.15550,-31.44356517
2.15600,-26.56045464
2.15650,-19.23578886
2.15700,-10.38515103
2.15750,-0.3137355805
2.15800,8.842096651
2.15850,16.47195684
2.15900,23.18623381
2.15950,28.37453874
2.16000,30.81609401
2.16050,29.90051078
2.16100,25.93298348
2.16150,20.43948414
2.16200,16.47195684
2.16250,15.25117921
2.16300,15.25117921
2.16350,15.55637362
2.16400,15.55637362
2.16450,14.6407904
2.16500,12.19923514
2.16550,7.926513427
2.16600,3.348597312
2.16650,1.517430866
2.16700,2.738208496
2.16750,6.400541389
2.16800,10.36806869
2.16850,13.42001277
2.16900,13.72520717
2.16950,9.147291058
2.17000,1.822625273
2.17050,-3.365679658
2.17100,-6.417623735
2.17150,-10.69034544
2.17200,-18.01501123
2.17250,-24.7292882
2.17300,-27.47603787
2.17350,-27.78123227
2.17400,-28.6968155
2.17450,-29.61239872
2.17500,-29.0020099
2.17550,-25.0344826
2.17600,-18.62540004
2.17650,-9.164373404
2.17700,4.264180535
2.17750,17.69273447
2.17800,25.01740026
2.17850,22.8810394
2.17900,13.42001277
2.17950,1.822625273
2.18000,-8.859178996
2.18050,-17.40462241
2.18100,-21.37214971
2.18150,-20.45656649
2.18200,-16.48903919
2.18250,-13.43709511
2.18300,-14.04748393
2.18350,-15.57345597
2.18400,-14.35267833
2.18450,-8.859178996
2.18500,-3.06048525
2.18550,-0.008541172829
2.18600,0.2966532349
2.18650,1.822625273
2.18700,3.65379172
2.18750,3.65379172
2.18800,1.212236458
2.18850,-1.229318804
2.18900,-1.229318804
2.18950,2.127819681
2.19000,8.842096651
2.19050,18.30312329
2.19100,28.06934434
2.19150,35.39401012
2.19200,39.05634301
2.19250,39.97192624
2.19300,37.83556538
2.19350,33.25764927
2.19400,26.23817789
2.19450,19.52390092
2.19500,14.9459848
2.19550,13.11481836
2.19600,12.80962395
2.19650,10.9784575
2.19700,3.958986127
2.19750,-7.02801255
2.19800,-17.40462241
2.19850,-21.37214971
2.19900,-18.32020563
2.19950,-11.91112307
2.20000,-4.586457288
2.20050,3.043402904
2.20100,8.842096651
2.20150,9.757679874
2.20200,7.62131902
2.20250,7.316124612
2.20300,10.06287428
2.20350,10.9784575
2.20400,7.010930204
2.20450,1.822625273
2.20500,0.9070420503
2.20550,3.65379172
2.20600,5.179763758
2.20650,4.569374943
2.20700,4.264180535
2.20750,4.569374943
2.20800,3.348597312
2.20850,2.433014089
2.20900,4.569374943
2.20950,9.452485466
2.21000,11.89404073
2.21050,10.06287428
2.21100,8.842096651
2.21150,12.19923514
2.21200,15.55637362
2.21250,13.11481836
2.21300,7.926513427
2.21350,7.316124612
2.21400,10.06287428
2.21450,8.536902243
2.21500,0.9070420503
2.21550,-5.196846104
2.21600,-3.976068473
2.21650,0.9070420503
2.21700,2.433014089
2.21750,-0.008541172829
2.21800,-1.839707619
2.21850,-1.534513211
2.21900,-0.3137355805
2.21950,-0.008541172829
2.22000,0.6018476426
2.22050,1.822625273
2.22100,3.348597312
2.22150,5.484958166
2.22200,8.231707835
2.22250,8.842096651
2.22300,4.87456935
2.22350,-0.6189299882
2.22400,-4.891651696
2.22450,-7.943595773
2.22500,-14.04748393
2.22550,-22.28773294
2.22600,-27.17084346
2.22650,-25.64487142
2.22700,-21.0669553
2.22750,-15.87865037
2.22800,-10.99553985
2.22850,-5.807234919
2.22900,-2.450096434
2.22950,-1.839707619
2.23000,-2.450096434
2.23050,-1.839707619
2.23100,-0.3137355805
2.23150,0.2966532349
2.23200,0.9070420503
2.23250,2.738208496
2.23300,5.484958166
2.23350,7.62131902
2.23400,10.06287428
2.23450,13.11481836
2.23500,16.16676244
2.23550,18.30312329
2.23600,19.82909533
2.23650,22.27065059
2.23700,27.15376111
2.23750,32.34206604
2.23800,35.69920453
2.23850,37.22517657
2.23900,37.83556538
2.23950,37.22517657
2.24000,33.86803808
2.24050,26.5433723
2.24100,16.77715125
2.24150,6.095346981
2.24200,-3.976068473
2.24250,-14.65787274
2.24300,-25.64487142
2.24350,-34.80070365
2.24400,-41.20978621
2.24450,-46.09289674
2.24500,-51.28120167
2.24550,-55.55392337
2.24600,-54.33314574
2.24650,-47.61886877
2.24700,-39.98900858
2.24750,-36.32667569
2.24800,-33.88512043
2.24850,-27.17084346
2.24900,-15.87865037
2.24950,-5.196846104
2.25000,0.2966532349
2.25050,4.87456935
2.25100,13.11481836
2.25150,23.79662263
2.25200,31.42648282
2.25250,32.34206604
2.25300,28.98492756
2.25350,25.62778907
2.25400,25.01740026
2.25450,26.8485667
2.25500,31.42648282
2.25550,38.14075979
2.25600,44.54984235
2.25650,45.77061998
2.25700,40.88750946
2.25750,33.25764927
2.25800,27.45895552
2.25850,22.8810394
2.25900,16.16676244
2.25950,6.095346981
2.26000,-3.06048525
2.26050,-9.469567812
2.26100,-14.04748393
2.26150,-19.23578886
2.26200,-25.0344826
2.26250,-31.44356517
2.26300,-37.85264773
2.26350,-43.65134147
2.26400,-45.48250792
2.26450,-42.12536944
2.26500,-35.71628687
2.26550,-28.6968155
2.26600,-21.37214971
2.26650,-12.8267063
2.26700,-3.670874065
2.26750,3.958986127
2.26800,11.58884632
2.26850,19.52390092
2.26900,27.45895552
2.26950,34.78362131
2.27000,39.97192624
2.27050,41.49789827
2.27100,37.53037097
2.27150,30.20570519
2.27200,23.18623381
2.27250,19.21870651
2.27300,15.86156803
2.27350,9.757679874
2.27400,1.517430866
2.27450,-7.333206958
2.27500,-17.70981682
2.27550,-29.30720431
2.27600,-39.37861977
2.27650,-44.8721191
2.27700,-46.09289674
2.27750,-44.5669247
2.27800,-40.5993974
2.27850,-34.80070365
2.27900,-28.39162109
2.27950,-22.28773294
2.28000,-15.87865037
2.28050,-9.469567812
2.28100,-4.891651696
2.28150,-2.144902027
2.28200,4.264180535
2.28250,14.9459848
2.28300,19.82909533
2.28350,9.757679874
2.28400,-9.774762219
2.28450,-22.28773294
2.28500,-21.37214971
2.28550,-17.099428
2.28600,-19.84617767
2.28650,-27.47603787
2.28700,-33.88512043
2.28750,-37.24225891
2.28800,-40.29420299
2.28850,-40.9045918
2.28900,-36.32667569
2.28950,-28.08642668
2.29000,-22.89812175
2.29050,-22.89812175
2.29100,-23.50851057
2.29150,-21.0669553
2.29200,-16.7942336
2.29250,-13.1319007
2.29300,-9.164373404
2.29350,-2.450096434
2.29400,5.484958166
2.29450,9.147291058
2.29500,5.790152573
2.29550,-0.008541172829
2.29600,-0.9241243959
2.29650,4.264180535
2.29700,10.9784575
2.29750,13.42001277
2.29800,11.89404073
2.29850,10.9784575
2.29900,10.36806869
2.29950,7.62131902
2.30000,4.264180535
2.30050,4.87456935
2.30100,10.06287428
2.30150,14.33559599
2.30200,14.6407904
2.30250,13.42001277
2.30300,14.9459848
2.30350,18.30312329
2.30400,20.13428974
2.30450,18.6083177
2.30500,17.08234566
2.30550,19.82909533
2.30600,26.8485667
2.30650,35.39401012
2.30700,40.88750946
2.30750,40.88750946
2.30800,36.91998216
2.30850,32.34206604
2.30900,28.37453874
2.30950,22.27065059
2.31000,14.33559599
2.31050,7.316124612
2.31100,4.569374943
2.31150,5.484958166
2.31200,7.010930204
2.31250,8.536902243
2.31300,10.06287428
2.31350,11.58884632
2.31400,12.19923514
2.31450,11.28365191
2.31500,7.926513427
2.31550,2.127819681
2.31600,-5.502040511
2.31650,-13.43709511
2.31700,-19.23578886
2.31750,-23.50851057
2.31800,-27.47603787
2.31850,-30.22278754
2.31900,-30.22278754
2.31950,-27.47603787
2.32000,-23.20331616
2.32050,-19.54098327
2.32100,-15.57345597
2.32150,-10.99553985
2.32200,-5.807234919
2.32250,-0.3137355805
2.32300,5.790152573
2.32350,12.19923514
2.32400,17.08234566
2.32450,20.13428974
2.32500,21.96545618
2.32550,23.79662263
2.32600,24.40701144
2.32650,24.71220585
2.32700,26.23817789
2.32750,28.37453874
2.32800,27.15376111
2.32850,21.04987296
2.32900,14.03040158
2.32950,10.9784575
2.33000,10.36806869
2.33050,8.842096651
2.33100,7.010930204
2.33150,6.095346981
2.33200,3.348597312
2.33250,-3.06048525
2.33300,-9.774762219
2.33350,-10.07995663
2.33400,-5.196846104
2.33450,-2.450096434
2.33500,-3.365679658
2.33550,-2.450096434
2.33600,0.9070420503
2.33650,2.738208496
2.33700,0.6018476426
2.33750,-0.9241243959
2.33800,-0.008541172829
2.33850,-0.008541172829
2.33900,-2.450096434
2.33950,-4.586457288
2.34000,-3.670874065
2.34050,-3.06048525
2.34100,-5.196846104
2.34150,-7.638401365
2.34200,-8.248790181
2.34250,-11.30073426
2.34300,-18.32020563
2.34350,-22.59292734
2.34400,-17.40462241
2.34450,-7.02801255
2.34500,-0.3137355805
2.34550,0.9070420503
2.34600,1.822625273
2.34650,2.127819681
2.34700,-0.6189299882
2.34750,-4.281262881
2.34800,-4.891651696
2.34850,-3.976068473
2.34900,-8.859178996
2.34950,-18.62540004
2.35000,-24.42409379
2.35050,-20.45656649
2.35100,-12.8267063
2.35150,-10.07995663
2.35200,-12.52151189
2.35250,-13.74228952
2.35300,-11.30073426
2.35350,-9.164373404
2.35400,-10.38515103
2.35450,-13.74228952
2.35500,-15.57345597
2.35550,-13.74228952
2.35600,-6.112429327
2.35650,4.87456935
2.35700,15.25117921
2.35750,18.6083177
2.35800,15.25117921
2.35850,9.147291058
2.35900,5.484958166
2.35950,5.179763758
2.36000,6.705735797
2.36050,6.705735797
2.36100,1.822625273
2.36150,-8.248790181
2.36200,-20.7617609
2.36250,-29.0020099
2.36300,-30.83317635
2.36350,-29.61239872
2.36400,-29.30720431
2.36450,-28.6968155
2.36500,-26.86564905
2.36550,-23.81370497
2.36600,-20.7617609
2.36650,-16.48903919
2.36700,-10.38515103
2.36750,-3.976068473
2.36800,-0.6189299882
2.36850,-0.008541172829
2.36900,-0.008541172829
2.36950,-0.3137355805
2.37000,-0.3137355805
2.37050,-0.008541172829
2.37100,1.517430866
2.37150,3.348597312
2.37200,3.958986127
2.37250,5.790152573
2.37300,11.28365191
2.37350,18.9135121
2.37400,25.01740026
2.37450,28.06934434
2.37500,28.98492756
2.37550,31.42648282
2.37600,37.22517657
2.37650,44.85503676
2.37700,51.26411932
2.37750,53.09528577
2.37800,50.04334169
2.37850,44.54984235
2.37900,38.14075979
2.37950,32.03687164
2.38000,27.15376111
2.38050,25.01740026
2.38100,26.23817789
2.38150,28.06934434
2.38200,28.37453874
2.38250,25.62778907
2.38300,20.43948414
2.38350,13.11481836
2.38400,4.87456935
2.38450,-1.839707619
2.38500,-4.891651696
2.38550,-4.281262881
2.38600,-2.144902027
2.38650,-0.3137355805
2.38700,-0.9241243959
2.38750,-4.586457288
2.38800,-10.07995663
2.38850,-14.65787274
2.38900,-16.7942336
2.38950,-16.18384478
2.39000,-14.04748393
2.39050,-12.21631748
2.39100,-12.52151189
2.39150,-15.26826156
2.39200,-17.099428
2.39250,-16.48903919
2.39300,-17.099428
2.39350,-23.20331616
2.39400,-31.74875957
2.39450,-35.10589806
2.39500,-31.44356517
2.39550,-26.56045464
2.39600,-24.42409379
2.39650,-22.59292734
2.39700,-17.40462241
2.39750,-10.38515103
2.39800,-5.196846104
2.39850,-3.976068473
2.39900,-5.807234919
2.39950,-10.07995663
2.40000,-14.04748393
2.40050,-12.21631748
2.40100,-2.755290842
2.40150,10.36806869
2.40200,20.43948414
2.40250,25.01740026
2.40300,24.71220585
2.40350,21.35506737
2.40400,17.08234566
2.40450,15.25117921
2.40500,16.47195684
2.40550,16.77715125
2.40600,13.11481836
2.40650,6.705735797
2.40700,0.9070420503
2.40750,-2.755290842
2.40800,-6.417623735
2.40850,-11.60592867
2.40900,-17.70981682
2.40950,-23.20331616
2.41000,-26.86564905
2.41050,-28.6968155
2.41100,-30.22278754
2.41150,-32.35914839
2.41200,-34.19031484
2.41250,-34.19031484
2.41300,-34.49550924
2.41350,-36.9370645
2.41400,-38.46303654
2.41450,-33.57992602
2.41500,-21.98253853
2.41550,-10.99553985
2.41600,-4.281262881
2.41650,2.433014089
2.41700,13.11481836
2.41750,22.27065059
2.41800,23.79662263
2.41850,22.27065059
2.41900,24.10181704
2.41950,28.06934434
2.42000,28.67973315
2.42050,26.8485667
2.42100,27.45895552
2.42150,28.37453874
2.42200,22.575845
2.42250,10.6732631
2.42300,0.9070420503
2.42350,-3.06048525
2.42400,-8.553984588
2.42450,-18.01501123
2.42500,-24.42409379
2.42550,-22.28773294
2.42600,-18.32020563
2.42650,-20.45656649
2.42700,-25.95006583
2.42750,-25.0344826
2.42800,-17.099428
2.42850,-8.553984588
2.42900,-2.755290842
2.42950,3.348597312
2.43000,12.50442954
2.43050,20.13428974
2.43100,24.71220585
2.43150,29.90051078
2.43200,40.27712064
2.43250,53.40048017
2.43300,64.38747885
2.43350,70.49136701
2.43400,72.32253345
2.43450,71.40695023
2.43500,67.43942293
2.43550,60.72514596
2.43600,52.17970254
2.43650,43.63425913
2.43700,35.08881571
2.43750,26.5433723
2.43800,16.77715125
2.43850,4.87456935
2.43900,-7.943595773
2.43950,-21.0669553
2.44000,-32.35914839
2.44050,-40.29420299
2.44100,-44.5669247
2.44150,-47.00847996
2.44200,-49.14484081
2.44250,-50.97600726
2.44300,-50.36561844
2.44350,-47.61886877
2.44400,-45.78770233
2.44450,-47.31367437
2.44500,-49.45003522
2.44550,-47.31367437
2.44600,-39.07342536
2.44650,-30.52798194
2.44700,-25.95006583
2.44750,-24.7292882
2.44800,-21.98253853
2.44850,-17.099428
2.44900,-12.52151189
2.44950,-10.07995663
2.45000,-9.469567812
2.45050,-9.164373404
2.45100,-10.38515103
2.45150,-12.52151189
2.45200,-14.35267833
2.45250,-14.04748393
2.45300,-10.99553985
2.45350,-3.670874065
2.45400,7.010930204
2.45450,17.99792888
2.45500,22.575845
2.45550,20.13428974
2.45600,16.16676244
2.45650,17.99792888
2.45700,24.40701144
2.45750,29.59531637
2.45800,30.20570519
2.45850,25.62778907
2.45900,17.38754007
2.45950,6.095346981
2.46000,-3.976068473
2.46050,-8.553984588
2.46100,-5.807234919
2.46150,0.6018476426
2.46200,4.87456935
2.46250,5.179763758
2.46300,3.348597312
2.46350,3.65379172
2.46400,7.926513427
2.46450,12.19923514
2.46500,13.11481836
2.46550,10.6732631
2.46600,7.926513427
2.46650,6.095346981
2.46700,4.569374943
2.46750,3.043402904
2.46800,1.822625273
2.46850,-0.008541172829
2.46900,-6.722818142
2.46950,-16.48903919
2.47000,-23.50851057
2.47050,-25.0344826
2.47100,-25.64487142
2.47150,-30.22278754
2.47200,-36.32667569
2.47250,-37.24225891
2.47300,-30.83317635
2.47350,-19.54098327
2.47400,-8.859178996
2.47450,-0.008541172829
2.47500,6.705735797
2.47550,13.72520717
2.47600,20.13428974
2.47650,22.575845
2.47700,21.04987296
2.47750,20.13428974
2.47800,23.49142822
2.47850,23.79662263
2.47900,10.6732631
2.47950,-13.74228952
2.48000,-33.57992602
2.48050,-35.10589806
2.48100,-23.20331616
2.48150,-12.52151189
2.48200,-9.164373404
2.48250,-7.333206958
2.48300,-3.06048525
2.48350,1.822625273
2.48400,5.179763758
2.48450,7.62131902
2.48500,8.231707835
2.48550,3.043402904
2.48600,-7.943595773
2.48650,-18.62540004
2.48700,-21.37214971
2.48750,-17.099428
2.48800,-11.91112307
2.48850,-8.553984588
2.48900,-4.586457288
2.48950,0.6018476426
2.49000,4.264180535
2.49050,3.65379172
2.49100,1.212236458
2.49150,2.433014089
2.49200,7.316124612
2.49250,13.42001277
2.49300,18.6083177
2.49350,22.575845
2.49400,26.5433723
2.49450,29.29012197
2.49500,30.20570519
2.49550,29.29012197
2.49600,28.37453874
2.49650,28.06934434
2.49700,28.37453874
2.49750,29.29012197
2.49800,29.59531637
2.49850,26.5433723
2.49900,20.74467855
2.49950,14.03040158
2.50000,8.536902243
2.50050,4.87456935
2.50100,3.348597312
2.50150,3.958986127
2.50200,6.400541389
2.50250,8.536902243
2.50300,7.316124612
2.50350,0.2966532349
2.50400,-9.774762219
2.50450,-17.70981682
2.50500,-18.62540004
2.50550,-12.8267063
2.50600,-4.586457288
2.50650,2.127819681
2.50700,6.095346981
2.50750,6.095346981
2.50800,1.822625273
2.50850,-2.144902027
2.50900,-1.229318804
2.50950,4.264180535
2.51000,8.536902243
2.51050,7.010930204
2.51100,2.127819681
2.51150,-1.229318804
2.51200,-2.755290842
2.51250,-3.365679658
2.51300,-0.9241243959
2.51350,7.010930204
2.51400,17.38754007
2.51450,21.04987296
2.51500,14.03040158
2.51550,1.517430866
2.51600,-6.112429327
2.51650,-6.417623735
2.51700,-2.144902027
2.51750,2.433014089
2.51800,6.400541389
2.51850,9.452485466
2.51900,11.28365191
2.51950,10.06287428
2.52000,7.316124612
2.52050,4.264180535
2.52100,0.6018476426
2.52150,-3.976068473
2.52200,-10.38515103
2.52250,-16.18384478
2.52300,-19.23578886
2.52350,-19.84617767
2.52400,-19.23578886
2.52450,-20.45656649
2.52500,-24.7292882
2.52550,-29.30720431
2.52600,-27.47603787
2.52650,-17.40462241
2.52700,-5.196846104
2.52750,0.6018476426
2.52800,0.9070420503
2.52850,1.517430866
2.52900,6.400541389
2.52950,9.757679874
2.53000,8.231707835
2.53050,3.958986127
2.53100,0.6018476426
2.53150,-3.670874065
2.53200,-11.91112307
2.53250,-21.67734412
2.53300,-27.47603787
2.53350,-29.30720431
2.53400,-30.22278754
2.53450,-30.52798194
2.53500,-28.39162109
2.53550,-23.20331616
2.53600,-17.40462241
2.53650,-14.04748393
2.53700,-11.91112307
2.53750,-9.164373404
2.53800,-4.891651696
2.53850,-0.9241243959
2.53900,1.212236458
2.53950,1.822625273
2.54000,-0.008541172829
2.54050,-3.365679658
2.54100,-7.333206958
2.54150,-10.38515103
2.54200,-11.60592867
2.54250,-11.60592867
2.54300,-10.99553985
2.54350,-9.164373404
2.54400,-3.976068473
2.54450,3.348597312
2.54500,8.536902243
2.54550,5.790152573
2.54600,-1.839707619
2.54650,-6.722818142
2.54700,-4.281262881
2.54750,1.822625273
2.54800,8.231707835
2.54850,15.25117921
2.54900,22.8810394
2.54950,27.76414993
2.55000,25.93298348
2.55050,21.35506737
2.55100,19.21870651
2.55150,18.9135121
2.55200,16.77715125
2.55250,14.33559599
2.55300,15.25117921
2.55350,18.6083177
2.55400,18.30312329
2.55450,13.72520717
2.55500,10.6732631
2.55550,12.19923514
2.55600,14.6407904
2.55650,12.50442954
2.55700,7.316124612
2.55750,5.179763758
2.55800,7.316124612
2.55850,10.6732631
2.55900,11.89404073
2.55950,10.06287428
2.56000,5.790152573
2.56050,2.738208496
2.56100,3.348597312
2.56150,6.705735797
2.56200,8.536902243
2.56250,6.400541389
2.56300,3.65379172
2.56350,3.348597312
2.56400,5.179763758
2.56450,5.790152573
2.56500,4.264180535
2.56550,1.822625273
2.56600,-0.008541172829
2.56650,-0.008541172829
2.56700,3.043402904
2.56750,7.926513427
2.56800,9.452485466
2.56850,3.958986127
2.56900,-4.586457288
2.56950,-10.99553985
2.57000,-12.52151189
2.57050,-10.99553985
2.57100,-8.553984588
2.57150,-5.807234919
2.57200,-3.06048525
2.57250,-0.9241243959
2.57300,0.2966532349
2.57350,1.822625273
2.57400,4.569374943
2.57450,9.452485466
2.57500,15.86156803
2.57550,21.04987296
2.57600,21.04987296
2.57650,16.77715125
2.57700,11.58884632
2.57750,7.62131902
2.57800,3.348597312
2.57850,-3.06048525
2.57900,-10.07995663
2.57950,-13.1319007
2.58000,-12.8267063
2.58050,-12.8267063
2.58100,-14.65787274
2.58150,-17.70981682
2.58200,-21.37214971
2.58250,-24.7292882
2.58300,-26.56045464
2.58350,-24.42409379
2.58400,-18.32020563
2.58450,-11.30073426
2.58500,-5.807234919
2.58550,-2.144902027
2.58600,0.2966532349
2.58650,3.043402904
2.58700,7.010930204
2.58750,14.9459848
2.58800,26.5433723
2.58850,36.00439894
2.58900,38.4459542
2.58950,34.4784269
2.59000,28.98492756
2.59050,26.23817789
2.59100,25.93298348
2.59150,25.62778907
2.59200,23.49142822
2.59250,17.38754007
2.59300,8.536902243
2.59350,-0.008541172829
2.59400,-6.417623735
2.59450,-12.52151189
2.59500,-20.7617609
2.59550,-30.52798194
2.59600,-38.15784214
2.59650,-42.12536944
2.59700,-43.95653588
2.59750,-44.5669247
2.59800,-43.04095266
2.59850,-36.9370645
2.59900,-27.17084346
2.59950,-16.7942336
2.60000,-9.164373404
2.60050,-5.196846104
2.60100,-3.670874065
2.60150,-2.450096434
2.60200,-1.839707619
2.60250,-3.06048525
2.60300,-5.196846104
2.60350,-5.196846104
2.60400,-2.450096434
2.60450,0.9070420503
2.60500,5.790152573
2.60550,13.11481836
2.60600,21.66026177
2.60650,26.5433723
2.60700,27.76414993
2.60750,28.98492756
2.60800,30.81609401
2.60850,29.59531637
2.60900,24.40701144
2.60950,22.8810394
2.61000,31.42648282
2.61050,43.93945354
2.61100,47.90698084
2.61150,38.4459542
2.61200,22.575845
2.61250,8.842096651
2.61300,-0.008541172829
2.61350,-5.807234919
2.61400,-9.469567812
2.61450,-10.38515103
2.61500,-8.553984588
2.61550,-7.02801255
2.61600,-8.859178996
2.61650,-14.65787274
2.61700,-20.45656649
2.61750,-20.7617609
2.61800,-14.96306715
2.61850,-8.553984588
2.61900,-5.196846104
2.61950,-4.586457288
2.62000,-5.502040511
2.62050,-6.722818142
2.62100,-6.417623735
2.62150,-2.755290842
2.62200,2.127819681
2.62250,2.738208496
2.62300,-4.891651696
2.62350,-16.7942336
2.62400,-23.50851057
2.62450,-21.67734412
2.62500,-15.26826156
2.62550,-9.774762219
2.62600,-4.891651696
2.62650,2.738208496
2.62700,13.42001277
2.62750,21.04987296
2.62800,21.04987296
2.62850,14.9459848
2.62900,7.62131902
2.62950,2.433014089
2.63000,-3.06048525
2.63050,-12.21631748
2.63100,-25.0344826
2.63150,-36.6318701
2.63200,-44.26173029
2.63250,-47.92406318
2.63300,-49.75522963
2.63350,-50.67081285
2.63400,-49.75522963
2.63450,-46.70328555
2.63500,-42.43056384
2.63550,-38.46303654
2.63600,-33.88512043
2.63650,-27.17084346
2.63700,-20.45656649
2.63750,-16.48903919
2.63800,-14.96306715
2.63850,-10.07995663
2.63900,-0.6189299882
2.63950,7.010930204
2.64000,8.231707835
2.64050,7.316124612
2.64100,10.36806869
2.64150,15.86156803
2.64200,17.99792888
2.64250,16.47195684
2.64300,17.38754007
2.64350,22.8810394
2.64400,27.15376111
2.64450,26.8485667
2.64500,25.01740026
2.64550,24.71220585
2.64600,23.79662263
2.64650,18.9135121
2.64700,11.89404073
2.64750,6.095346981
2.64800,2.433014089
2.64850,0.2966532349
2.64900,-0.3137355805
2.64950,0.6018476426
2.65000,2.433014089
2.65050,3.958986127
2.65100,5.484958166
2.65150,6.400541389
2.65200,4.87456935
2.65250,3.043402904
2.65300,5.484958166
2.65350,13.42001277
2.65400,18.9135121
2.65450,15.25117921
2.65500,5.790152573
2.65550,-1.534513211
2.65600,-5.807234919
2.65650,-11.60592867
2.65700,-19.54098327
2.65750,-22.89812175
2.65800,-19.23578886
2.65850,-14.04748393
2.65900,-11.91112307
2.65950,-10.38515103
2.66000,-4.586457288
2.66050,3.043402904
2.66100,7.62131902
2.66150,7.316124612
2.66200,6.705735797
2.66250,9.452485466
2.66300,16.77715125
2.66350,29.29012197
2.66400,46.3810088
2.66450,64.08228444
2.66500,74.45889431
2.66550,73.23811668
2.66600,64.99786767
2.66650,58.58878511
2.66700,58.58878511
2.66750,62.86150681
2.66800,66.2186453
2.66850,67.13422852
2.66900,66.2186453
2.66950,62.86150681
2.67000,54.92645221
2.67050,40.88750946
2.67100,21.96545618
2.67150,2.738208496
2.67200,-12.8267063
2.67250,-25.0344826
2.67300,-37.85264773
2.67350,-53.41756252
2.67400,-67.15131087
2.67450,-71.42403257
2.67500,-65.62533883
2.67550,-58.91106186
2.67600,-58.91106186
2.67650,-64.09936679
2.67700,-67.15131087
2.67750,-65.32014442
2.67800,-60.4370339
2.67850,-54.02795134
2.67900,-48.534452
2.67950,-45.78770233
2.68000,-46.09289674
2.68050,-43.95653588
2.68100,-34.19031484
2.68150,-20.15137208
2.68200,-10.07995663
2.68250,-9.164373404
2.68300,-15.57345597
2.68350,-22.28773294
2.68400,-25.33967701
2.68450,-21.98253853
2.68500,-12.8267063
2.68550,-2.144902027
2.68600,3.958986127
2.68650,4.87456935
2.68700,3.043402904
2.68750,0.6018476426
2.68800,-3.365679658
2.68850,-9.774762219
2.68900,-14.35267833
2.68950,-14.04748393
2.69000,-8.248790181
2.69050,0.9070420503
2.69100,11.28365191
2.69150,19.82909533
2.69200,22.575845
2.69250,19.52390092
2.69300,14.03040158
2.69350,10.36806869
2.69400,10.06287428
2.69450,11.89404073
2.69500,14.03040158
2.69550,14.6407904
2.69600,13.42001277
2.69650,10.36806869
2.69700,6.400541389
2.69750,2.127819681
2.69800,-1.534513211
2.69850,-6.417623735
2.69900,-12.8267063
2.69950,-18.93059445
2.70000,-22.59292734
2.70050,-23.20331616
2.70100,-21.67734412
2.70150,-20.15137208
2.70200,-19.84617767
2.70250,-20.15137208
2.70300,-21.0669553
2.70350,-22.28773294
2.70400,-22.89812175
2.70450,-20.45656649
2.70500,-13.43709511
2.70550,-2.450096434
2.70600,7.316124612
2.70650,11.28365191
2.70700,9.147291058
2.70750,5.790152573
2.70800,5.179763758
2.70850,7.316124612
2.70900,8.842096651
2.70950,11.28365191
2.71000,17.38754007
2.71050,27.15376111
2.71100,34.78362131
2.71150,36.00439894
2.71200,31.73167723
2.71250,25.62778907
2.71300,19.82909533
2.71350,13.72520717
2.71400,4.87456935
2.71450,-3.670874065
2.71500,-8.248790181
2.71550,-3.976068473
2.71600,6.705735797
2.71650,16.47195684
2.71700,19.52390092
2.71750,19.21870651
2.71800,20.74467855
2.71850,25.62778907
2.71900,29.90051078
2.71950,31.73167723
2.72000,32.64726045
2.72050,33.25764927
2.72100,33.56284367
2.72150,32.95245486
2.72200,32.03687164
2.72250,28.37453874
2.72300,19.52390092
2.72350,7.62131902
2.72400,-1.839707619
2.72450,-8.248790181
2.72500,-13.74228952
2.72550,-18.32020563
2.72600,-18.32020563
2.72650,-13.1319007
2.72700,-9.164373404
2.72750,-11.91112307
2.72800,-18.93059445
2.72850,-22.28773294
2.72900,-18.32020563
2.72950,-9.469567812
2.73000,-0.008541172829
2.73050,5.790152573
2.73100,9.452485466
2.73150,13.11481836
2.73200,19.21870651
2.73250,26.5433723
2.73300,32.03687164
2.73350,32.95245486
2.73400,28.98492756
2.73450,21.96545618
2.73500,13.72520717
2.73550,6.095346981
2.73600,-0.3137355805
2.73650,-7.943595773
2.73700,-16.18384478
2.73750,-23.81370497
2.73800,-32.05395398
2.73850,-42.43056384
2.73900,-52.80717371
2.73950,-56.4695066
2.74000,-50.06042404
2.74050,-39.68381417
2.74100,-30.22278754
2.74150,-19.54098327
2.74200,-4.586457288
2.74250,10.36806869
2.74300,19.52390092
2.74350,24.71220585
2.74400,30.5108996
2.74450,32.95245486
2.74500,25.62778907
2.74550,11.28365191
2.74600,2.433014089
2.74650,3.348597312
2.74700,8.231707835
2.74750,12.50442954
2.74800,17.99792888
2.74850,23.79662263
2.74900,23.79662263
2.74950,16.16676244
2.75000,9.757679874
2.75050,10.6732631
2.75100,11.89404073
2.75150,6.095346981
2.75200,-3.06048525
2.75250,-8.248790181
2.75300,-8.553984588
2.75350,-11.60592867
2.75400,-18.93059445
2.75450,-24.42409379
2.75500,-24.11889938
2.75550,-21.67734412
2.75600,-24.11889938
2.75650,-33.27473161
2.75700,-41.82017503
2.75750,-42.43056384
2.75800,-33.57992602
2.75850,-22.59292734
2.75900,-16.48903919
2.75950,-15.57345597
2.76000,-14.96306715
2.76050,-13.43709511
2.76100,-12.8267063
2.76150,-12.8267063
2.76200,-9.164373404
2.76250,-1.839707619
2.76300,3.348597312
2.76350,3.958986127
2.76400,3.65379172
2.76450,5.179763758
2.76500,8.842096651
2.76550,13.42001277
2.76600,19.21870651
2.76650,26.23817789
2.76700,28.37453874
2.76750,21.66026177
2.76800,8.231707835
2.76850,-3.670874065
2.76900,-10.07995663
2.76950,-11.91112307
2.77000,-11.60592867
2.77050,-10.38515103
2.77100,-8.553984588
2.77150,-7.638401365
2.77200,-8.859178996
2.77250,-12.8267063
2.77300,-16.7942336
2.77350,-17.70981682
2.77400,-14.65787274
2.77450,-9.774762219
2.77500,-5.196846104
2.77550,-1.534513211
2.77600,2.738208496
2.77650,8.231707835
2.77700,13.42001277
2.77750,16.16676244
2.77800,16.47195684
2.77850,15.86156803
2.77900,17.99792888
2.77950,23.79662263
2.78000,29.29012197
2.78050,28.98492756
2.78100,22.575845
2.78150,15.86156803
2.78200,14.6407904
2.78250,16.16676244
2.78300,15.86156803
2.78350,12.80962395
2.78400,12.50442954
2.78450,16.77715125
2.78500,21.66026177
2.78550,21.96545618
2.78600,17.69273447
2.78650,14.9459848
2.78700,16.16676244
2.78750,18.6083177
2.78800,17.69273447
2.78850,12.50442954
2.78900,6.095346981
2.78950,-0.008541172829
2.79000,-7.02801255
2.79050,-14.04748393
2.79100,-19.23578886
2.79150,-21.98253853
2.79200,-22.28773294
2.79250,-15.57345597
2.79300,2.738208496
2.79350,27.15376111
2.79400,41.49789827
2.79450,37.22517657
2.79500,25.93298348
2.79550,22.575845
2.79600,28.37453874
2.79650,32.95245486
2.79700,33.25764927
2.79750,33.25764927
2.79800,32.03687164
2.79850,21.66026177
2.79900,2.738208496
2.79950,-14.96306715
2.80000,-27.17084346
2.80050,-38.46303654
2.80100,-50.97600726
2.80150,-55.55392337
2.80200,-47.92406318
2.80250,-38.15784214
2.80300,-37.85264773
2.80350,-44.5669247
2.80400,-48.534452
2.80450,-46.39809114
2.80500,-42.73575825
2.80550,-39.68381417
2.80600,-35.71628687
2.80650,-29.0020099
2.80700,-21.67734412
2.80750,-13.74228952
2.80800,-4.586457288
2.80850,3.348597312
2.80900,8.231707835
2.80950,10.36806869
2.81000,12.19923514
2.81050,12.80962395
2.81100,9.452485466
2.81150,3.043402904
2.81200,-2.450096434
2.81250,-3.06048525
2.81300,1.822625273
2.81350,10.6732631
2.81400,20.43948414
2.81450,29.29012197
2.81500,38.75114861
2.81550,50.04334169
2.81600,59.50436833
2.81650,61.64072918
2.81700,56.45242425
2.81750,52.17970254
2.81800,52.48489695
2.81850,53.40048017
2.81900,47.29659202
2.81950,36.00439894
2.82000,26.8485667
2.82050,23.18623381
2.82100,19.82909533
2.82150,12.80962395
2.82200,1.822625273
2.82250,-9.164373404
2.82300,-18.62540004
2.82350,-25.95006583
2.82400,-33.27473161
2.82450,-41.51498062
2.82500,-49.45003522
2.82550,-55.85911778
2.82600,-60.74222831
2.82650,-66.23572764
2.82700,-72.3396158
2.82750,-73.56039343
2.82800,-66.54092205
2.82850,-55.24872897
2.82900,-45.78770233
2.82950,-38.46303654
2.83000,-26.56045464
2.83050,-7.638401365
2.83100,11.28365191
2.83150,21.04987296
2.83200,20.74467855
2.83250,18.30312329
2.83300,18.6083177
2.83350,20.13428974
2.83400,22.27065059
2.83450,25.32259467
2.83500,27.45895552
2.83550,23.49142822
2.83600,10.9784575
2.83650,-4.891651696
2.83700,-17.40462241
2.83750,-22.59292734
2.83800,-21.0669553
2.83850,-14.65787274
2.83900,-6.112429327
2.83950,1.517430866
2.84000,7.62131902
2.84050,14.03040158
2.84100,20.43948414
2.84150,21.96545618
2.84200,15.55637362
2.84250,5.484958166
2.84300,1.517430866
2.84350,7.010930204
2.84400,16.47195684
2.84450,22.27065059
2.84500,22.27065059
2.84550,20.13428974
2.84600,17.08234566
2.84650,10.6732631
2.84700,-0.3137355805
2.84750,-11.60592867
2.84800,-16.48903919
2.84850,-14.04748393
2.84900,-8.248790181
2.84950,-1.534513211
2.85000,6.400541389
2.85050,14.6407904
2.85100,17.99792888
2.85150,15.55637362
2.85200,10.6732631
2.85250,6.400541389
2.85300,1.822625273
2.85350,-3.976068473
2.85400,-8.553984588
2.85450,-9.469567812
2.85500,-8.553984588
2.85550,-7.638401365
2.85600,-5.807234919
2.85650,-3.365679658
2.85700,-3.670874065
2.85750,-10.69034544
2.85800,-20.15137208
2.85850,-26.56045464
2.85900,-27.78123227
2.85950,-25.95006583
2.86000,-23.81370497
2.86050,-22.89812175
2.86100,-23.20331616
2.86150,-22.59292734
2.86200,-17.099428
2.86250,-8.859178996
2.86300,-2.755290842
2.86350,2.433014089
2.86400,14.6407904
2.86450,33.56284367
2.86500,47.60178643
2.86550,47.29659202
2.86600,36.30959334
2.86650,24.10181704
2.86700,14.03040158
2.86750,5.484958166
2.86800,1.517430866
2.86850,3.65379172
2.86900,7.316124612
2.86950,6.400541389
2.87000,3.348597312
2.87050,3.958986127
2.87100,5.790152573
2.87150,3.348597312
2.87200,-1.839707619
2.87250,-6.112429327
2.87300,-10.69034544
2.87350,-19.54098327
2.87400,-29.61239872
2.87450,-33.57992602
2.87500,-32.9695372
2.87550,-34.19031484
2.87600,-39.68381417
2.87650,-43.95653588
2.87700,-45.48250792
2.87750,-44.8721191
2.87800,-39.98900858
2.87850,-26.56045464
2.87900,-7.638401365
2.87950,7.316124612
2.88000,16.16676244
2.88050,22.575845
2.88100,30.20570519
2.88150,36.61478775
2.88200,39.36153742
2.88250,40.88750946
2.88300,41.80309268
2.88350,40.27712064
2.88400,36.30959334
2.88450,34.78362131
2.88500,36.91998216
2.88550,38.75114861
2.88600,35.69920453
2.88650,30.20570519
2.88700,25.32259467
2.88750,20.43948414
2.88800,12.50442954
2.88850,5.484958166
2.88900,6.705735797
2.88950,18.30312329
2.89000,32.34206604
2.89050,39.66673183
2.89100,36.91998216
2.89150,28.67973315
2.89200,21.35506737
2.89250,18.9135121
2.89300,20.43948414
2.89350,20.74467855
2.89400,16.16676244
2.89450,9.147291058
2.89500,5.179763758
2.89550,7.010930204
2.89600,8.231707835
2.89650,2.433014089
2.89700,-8.859178996
2.89750,-16.48903919
2.89800,-14.65787274
2.89850,-7.333206958
2.89900,-3.06048525
2.89950,-4.281262881
2.90000,-7.943595773
2.90050,-12.21631748
2.90100,-19.84617767
2.90150,-33.57992602
2.90200,-53.11236811
2.90250,-72.64481021
2.90300,-85.15778092
2.90350,-86.98894737
2.90400,-79.05389277
2.90450,-67.45650527
2.90500,-57.38508982
2.90550,-50.06042404
2.90600,-43.95653588
2.90650,-37.85264773
2.90700,-31.74875957
2.90750,-25.33967701
2.90800,-16.18384478
2.90850,-2.755290842
2.90900,12.80962395
2.90950,25.62778907
2.91000,32.34206604
2.91050,33.86803808
2.91100,32.03687164
2.91150,25.62778907
2.91200,13.72520717
2.91250,-0.008541172829
2.91300,-9.469567812
2.91350,-13.74228952
2.91400,-17.70981682
2.91450,-22.59292734
2.91500,-25.64487142
2.91550,-23.50851057
2.91600,-18.93059445
2.91650,-16.48903919
2.91700,-15.26826156
2.91750,-11.91112307
2.91800,-4.891651696
2.91850,4.264180535
2.91900,14.03040158
2.91950,20.74467855
2.92000,21.96545618
2.92050,17.69273447
2.92100,10.6732631
2.92150,5.484958166
2.92200,4.87456935
2.92250,7.62131902
2.92300,9.147291058
2.92350,6.705735797
2.92400,0.9070420503
2.92450,-4.281262881
2.92500,-7.943595773
2.92550,-10.69034544
2.92600,-14.65787274
2.92650,-18.32020563
2.92700,-19.84617767
2.92750,-18.93059445
2.92800,-17.40462241
2.92850,-17.099428
2.92900,-17.40462241
2.92950,-17.40462241
2.93000,-15.57345597
2.93050,-11.30073426
2.93100,-7.02801255
2.93150,-4.586457288
2.93200,-2.755290842
2.93250,0.2966532349
2.93300,4.264180535
