type,name,time_units,begin_time,frequency,count,units
signal,"Noraxon Ultium-RT LAT. TRICEPS","s",0.00000,2000,50920,"uV"

time,value
0.00000,1.508127088
0.00050,0.2873494573
0.00100,-0.01784495038
0.00150,0.592543865
0.00200,1.508127088
0.00250,1.813321496
0.00300,1.813321496
0.00350,1.508127088
0.00400,1.508127088
0.00450,1.508127088
0.00500,1.20293268
0.00550,1.20293268
0.00600,0.8977382727
0.00650,0.8977382727
0.00700,0.8977382727
0.00750,1.20293268
0.00800,1.20293268
0.00850,1.508127088
0.00900,1.508127088
0.00950,1.813321496
0.01000,1.813321496
0.01050,2.118515904
0.01100,2.118515904
0.01150,1.813321496
0.01200,0.592543865
0.01250,-0.9334281735
0.01300,-1.543816989
0.01350,-1.543816989
0.01400,-0.9334281735
0.01450,-0.6282337658
0.01500,-0.01784495038
0.01550,0.592543865
0.01600,0.592543865
0.01650,-0.6282337658
0.01700,-1.543816989
0.01750,-0.6282337658
0.01800,0.8977382727
0.01850,0.8977382727
0.01900,-0.01784495038
0.01950,-0.01784495038
0.02000,1.508127088
0.02050,2.423710311
0.02100,0.8977382727
0.02150,-0.3230393581
0.02200,-0.3230393581
0.02250,0.592543865
0.02300,0.592543865
0.02350,-0.01784495038
0.02400,-0.01784495038
0.02450,1.508127088
0.02500,2.118515904
0.02550,0.8977382727
0.02600,-0.01784495038
0.02650,0.2873494573
0.02700,0.8977382727
0.02750,0.592543865
0.02800,-0.01784495038
0.02850,-0.01784495038
0.02900,0.2873494573
0.02950,1.20293268
0.03000,1.508127088
0.03050,1.508127088
0.03100,1.508127088
0.03150,1.813321496
0.03200,1.813321496
0.03250,2.423710311
0.03300,2.423710311
0.03350,1.813321496
0.03400,0.592543865
0.03450,-0.01784495038
0.03500,-0.01784495038
0.03550,0.592543865
0.03600,-0.01784495038
0.03650,-0.6282337658
0.03700,-0.3230393581
0.03750,1.20293268
0.03800,3.644487942
0.03850,4.865265573
0.03900,4.560071165
0.03950,4.560071165
0.04000,5.475654388
0.04050,6.391237611
0.04100,7.306820834
0.04150,7.91720965
0.04200,8.222404058
0.04250,8.832792873
0.04300,9.748376096
0.04350,10.96915373
0.04400,11.57954254
0.04450,11.88473695
0.04500,11.57954254
0.04550,11.88473695
0.04600,12.18993136
0.04650,12.49512577
0.04700,12.80032017
0.04750,12.80032017
0.04800,12.18993136
0.04850,10.96915373
0.04900,10.35876491
0.04950,10.35876491
0.05000,10.35876491
0.05050,9.748376096
0.05100,8.832792873
0.05150,7.612015242
0.05200,6.391237611
0.05250,3.94968235
0.05300,1.813321496
0.05350,0.8977382727
0.05400,1.20293268
0.05450,0.2873494573
0.05500,-1.238622581
0.05550,-3.680177843
0.05600,-5.511344289
0.05650,-8.563288366
0.05700,-12.53081567
0.05750,-15.27756534
0.05800,-15.27756534
0.05850,-13.7515933
0.05900,-13.44639889
0.05950,-14.66717652
0.06000,-16.19314856
0.06050,-17.41392619
0.06100,-19.24509264
0.06150,-21.38145349
0.06200,-22.60223112
0.06250,-21.9918423
0.06300,-21.38145349
0.06350,-21.07625908
0.06400,-20.16067586
0.06450,-18.32950941
0.06500,-16.80353737
0.06550,-15.88795415
0.06600,-14.97237093
0.06650,-13.7515933
0.06700,-12.22562126
0.06750,-11.31003804
0.06800,-10.0892604
0.06850,-8.563288366
0.06900,-7.647705143
0.06950,-7.952899551
0.07000,-9.478871589
0.07050,-9.784065997
0.07100,-8.563288366
0.07150,-6.426927512
0.07200,-5.206149881
0.07250,-4.595761066
0.07300,-4.290566658
0.07350,-3.680177843
0.07400,-3.374983435
0.07450,-2.76459462
0.07500,-2.154205804
0.07550,-1.543816989
0.07600,-1.849011397
0.07650,-2.459400212
0.07700,-3.374983435
0.07750,-3.374983435
0.07800,-2.76459462
0.07850,-1.849011397
0.07900,-0.01784495038
0.07950,1.813321496
0.08000,1.813321496
0.08050,0.2873494573
0.08100,-1.238622581
0.08150,-1.238622581
0.08200,-0.3230393581
0.08250,-0.01784495038
0.08300,-0.01784495038
0.08350,0.592543865
0.08400,1.508127088
0.08450,1.508127088
0.08500,0.8977382727
0.08550,0.8977382727
0.08600,2.118515904
0.08650,3.034099127
0.08700,3.339293534
0.08750,2.728904719
0.08800,2.118515904
0.08850,1.813321496
0.08900,1.813321496
0.08950,2.423710311
0.09000,3.339293534
0.09050,3.644487942
0.09100,3.644487942
0.09150,3.94968235
0.09200,4.560071165
0.09250,4.560071165
0.09300,4.254876757
0.09350,3.644487942
0.09400,3.644487942
0.09450,3.339293534
0.09500,2.728904719
0.09550,2.728904719
0.09600,3.644487942
0.09650,3.94968235
0.09700,3.644487942
0.09750,3.339293534
0.09800,3.644487942
0.09850,4.560071165
0.09900,5.170459981
0.09950,5.170459981
0.10000,4.560071165
0.10050,3.94968235
0.10100,3.94968235
0.10150,4.865265573
0.10200,6.086043204
0.10250,6.696432019
0.10300,7.001626427
0.10350,6.391237611
0.10400,4.865265573
0.10450,3.034099127
0.10500,2.728904719
0.10550,4.254876757
0.10600,5.475654388
0.10650,5.170459981
0.10700,3.339293534
0.10750,2.118515904
0.10800,2.423710311
0.10850,3.339293534
0.10900,3.644487942
0.10950,3.644487942
0.11000,3.339293534
0.11050,2.423710311
0.11100,2.118515904
0.11150,3.034099127
0.11200,4.254876757
0.11250,4.865265573
0.11300,4.560071165
0.11350,3.644487942
0.11400,3.339293534
0.11450,3.034099127
0.11500,2.728904719
0.11550,2.423710311
0.11600,2.423710311
0.11650,1.813321496
0.11700,1.20293268
0.11750,1.20293268
0.11800,2.423710311
0.11850,3.339293534
0.11900,2.728904719
0.11950,1.20293268
0.12000,0.8977382727
0.12050,1.813321496
0.12100,2.423710311
0.12150,1.508127088
0.12200,-0.01784495038
0.12250,-0.01784495038
0.12300,1.508127088
0.12350,2.423710311
0.12400,2.118515904
0.12450,1.508127088
0.12500,2.118515904
0.12550,3.644487942
0.12600,3.644487942
0.12650,2.423710311
0.12700,1.20293268
0.12750,1.508127088
0.12800,2.423710311
0.12850,2.118515904
0.12900,1.508127088
0.12950,1.813321496
0.13000,2.118515904
0.13050,1.813321496
0.13100,0.592543865
0.13150,-0.6282337658
0.13200,-1.238622581
0.13250,-1.238622581
0.13300,-0.9334281735
0.13350,-0.3230393581
0.13400,-0.01784495038
0.13450,-0.01784495038
0.13500,-0.01784495038
0.13550,-0.01784495038
0.13600,0.2873494573
0.13650,0.8977382727
0.13700,1.20293268
0.13750,0.592543865
0.13800,-0.01784495038
0.13850,0.2873494573
0.13900,0.592543865
0.13950,0.2873494573
0.14000,-0.6282337658
0.14050,-1.238622581
0.14100,-0.3230393581
0.14150,0.8977382727
0.14200,0.592543865
0.14250,-0.6282337658
0.14300,-1.849011397
0.14350,-1.543816989
0.14400,-0.3230393581
0.14450,-0.01784495038
0.14500,-0.9334281735
0.14550,-1.543816989
0.14600,-0.6282337658
0.14650,-0.01784495038
0.14700,0.2873494573
0.14750,-0.01784495038
0.14800,-0.01784495038
0.14850,-0.01784495038
0.14900,0.592543865
0.14950,0.8977382727
0.15000,0.8977382727
0.15050,0.8977382727
0.15100,-0.01784495038
0.15150,-0.9334281735
0.15200,-1.849011397
0.15250,-1.543816989
0.15300,-0.9334281735
0.15350,-0.9334281735
0.15400,-0.9334281735
0.15450,-0.3230393581
0.15500,0.592543865
0.15550,1.508127088
0.15600,1.20293268
0.15650,1.20293268
0.15700,1.508127088
0.15750,2.728904719
0.15800,2.728904719
0.15850,2.423710311
0.15900,2.423710311
0.15950,2.728904719
0.16000,3.339293534
0.16050,3.034099127
0.16100,3.339293534
0.16150,4.254876757
0.16200,5.475654388
0.16250,5.780848796
0.16300,4.560071165
0.16350,3.644487942
0.16400,3.94968235
0.16450,4.865265573
0.16500,4.865265573
0.16550,4.254876757
0.16600,4.254876757
0.16650,4.254876757
0.16700,3.339293534
0.16750,1.508127088
0.16800,0.592543865
0.16850,0.592543865
0.16900,-0.01784495038
0.16950,-2.154205804
0.17000,-3.374983435
0.17050,-3.069789027
0.17100,-1.849011397
0.17150,-1.849011397
0.17200,-2.459400212
0.17250,-2.154205804
0.17300,-1.849011397
0.17350,-3.069789027
0.17400,-4.900955474
0.17450,-6.73212192
0.17500,-7.647705143
0.17550,-7.647705143
0.17600,-7.647705143
0.17650,-7.037316328
0.17700,-6.73212192
0.17750,-7.037316328
0.17800,-7.647705143
0.17850,-7.342510735
0.17900,-6.426927512
0.17950,-5.816538697
0.18000,-6.121733104
0.18050,-6.426927512
0.18100,-7.037316328
0.18150,-7.342510735
0.18200,-7.342510735
0.18250,-7.037316328
0.18300,-6.121733104
0.18350,-5.511344289
0.18400,-5.206149881
0.18450,-4.595761066
0.18500,-4.290566658
0.18550,-4.290566658
0.18600,-4.595761066
0.18650,-4.900955474
0.18700,-4.900955474
0.18750,-4.595761066
0.18800,-3.98537225
0.18850,-3.069789027
0.18900,-2.459400212
0.18950,-2.459400212
0.19000,-3.069789027
0.19050,-3.374983435
0.19100,-2.76459462
0.19150,-1.849011397
0.19200,-1.543816989
0.19250,-1.849011397
0.19300,-1.849011397
0.19350,-1.849011397
0.19400,-2.154205804
0.19450,-2.459400212
0.19500,-2.459400212
0.19550,-1.238622581
0.19600,-0.3230393581
0.19650,-0.3230393581
0.19700,-0.9334281735
0.19750,-1.238622581
0.19800,-1.238622581
0.19850,-0.9334281735
0.19900,-1.238622581
0.19950,-1.543816989
0.20000,-1.543816989
0.20050,-0.9334281735
0.20100,-0.01784495038
0.20150,0.2873494573
0.20200,0.592543865
0.20250,0.2873494573
0.20300,0.2873494573
0.20350,0.8977382727
0.20400,0.8977382727
0.20450,-0.01784495038
0.20500,-0.9334281735
0.20550,-0.3230393581
0.20600,1.20293268
0.20650,1.813321496
0.20700,0.8977382727
0.20750,-0.01784495038
0.20800,-0.01784495038
0.20850,1.508127088
0.20900,2.423710311
0.20950,1.813321496
0.21000,1.20293268
0.21050,0.592543865
0.21100,0.592543865
0.21150,0.592543865
0.21200,0.592543865
0.21250,0.8977382727
0.21300,1.508127088
0.21350,1.813321496
0.21400,1.813321496
0.21450,1.20293268
0.21500,0.592543865
0.21550,0.2873494573
0.21600,-0.01784495038
0.21650,-0.01784495038
0.21700,0.592543865
0.21750,1.508127088
0.21800,2.423710311
0.21850,2.423710311
0.21900,1.20293268
0.21950,0.2873494573
0.22000,-0.01784495038
0.22050,0.2873494573
0.22100,1.20293268
0.22150,2.118515904
0.22200,2.118515904
0.22250,1.20293268
0.22300,-0.01784495038
0.22350,-0.6282337658
0.22400,-0.01784495038
0.22450,0.592543865
0.22500,0.592543865
0.22550,-0.01784495038
0.22600,-0.6282337658
0.22650,-0.9334281735
0.22700,-0.9334281735
0.22750,-1.543816989
0.22800,-2.154205804
0.22850,-2.154205804
0.22900,-1.238622581
0.22950,-0.01784495038
0.23000,0.2873494573
0.23050,-0.01784495038
0.23100,-0.01784495038
0.23150,-0.01784495038
0.23200,-0.01784495038
0.23250,-0.9334281735
0.23300,-1.543816989
0.23350,-1.238622581
0.23400,-0.6282337658
0.23450,-0.01784495038
0.23500,-0.01784495038
0.23550,-0.01784495038
0.23600,0.2873494573
0.23650,0.2873494573
0.23700,0.2873494573
0.23750,0.2873494573
0.23800,0.2873494573
0.23850,0.592543865
0.23900,0.592543865
0.23950,0.592543865
0.24000,0.592543865
0.24050,0.592543865
0.24100,-0.01784495038
0.24150,-0.9334281735
0.24200,-1.238622581
0.24250,-0.9334281735
0.24300,-0.3230393581
0.24350,-0.3230393581
0.24400,-0.01784495038
0.24450,0.2873494573
0.24500,0.2873494573
0.24550,-0.3230393581
0.24600,-0.9334281735
0.24650,-0.6282337658
0.24700,-0.01784495038
0.24750,0.2873494573
0.24800,0.592543865
0.24850,0.8977382727
0.24900,1.813321496
0.24950,2.423710311
0.25000,2.118515904
0.25050,0.8977382727
0.25100,-0.01784495038
0.25150,-0.01784495038
0.25200,1.20293268
0.25250,2.118515904
0.25300,2.423710311
0.25350,1.508127088
0.25400,0.8977382727
0.25450,1.20293268
0.25500,2.118515904
0.25550,2.118515904
0.25600,2.118515904
0.25650,2.423710311
0.25700,2.423710311
0.25750,1.508127088
0.25800,0.592543865
0.25850,1.508127088
0.25900,3.034099127
0.25950,3.94968235
0.26000,4.254876757
0.26050,4.865265573
0.26100,5.170459981
0.26150,4.560071165
0.26200,3.339293534
0.26250,3.034099127
0.26300,3.94968235
0.26350,4.865265573
0.26400,4.560071165
0.26450,4.254876757
0.26500,4.865265573
0.26550,6.086043204
0.26600,6.391237611
0.26650,6.086043204
0.26700,6.086043204
0.26750,6.086043204
0.26800,6.391237611
0.26850,6.086043204
0.26900,5.475654388
0.26950,4.865265573
0.27000,4.865265573
0.27050,6.086043204
0.27100,8.527598465
0.27150,10.35876491
0.27200,11.88473695
0.27250,13.41070899
0.27300,14.93668103
0.27350,15.24187543
0.27400,14.63148662
0.27450,13.7159034
0.27500,12.80032017
0.27550,11.57954254
0.27600,9.443181688
0.27650,7.306820834
0.27700,6.086043204
0.27750,5.475654388
0.27800,4.865265573
0.27850,3.644487942
0.27900,2.118515904
0.27950,0.592543865
0.28000,-0.3230393581
0.28050,-0.9334281735
0.28100,-1.238622581
0.28150,-1.849011397
0.28200,-2.76459462
0.28250,-3.680177843
0.28300,-4.290566658
0.28350,-4.900955474
0.28400,-5.511344289
0.28450,-6.121733104
0.28500,-6.426927512
0.28550,-7.952899551
0.28600,-11.00484363
0.28650,-15.27756534
0.28700,-18.32950941
0.28750,-20.16067586
0.28800,-21.6866479
0.28850,-23.21261994
0.28900,-24.73859197
0.28950,-25.95936961
0.29000,-26.26456401
0.29050,-25.6541752
0.29100,-24.12820316
0.29150,-22.29703671
0.29200,-20.77106467
0.29250,-19.24509264
0.29300,-17.10873178
0.29350,-14.36198211
0.29400,-11.92042685
0.29450,-11.00484363
0.29500,-11.00484363
0.29550,-10.39445481
0.29600,-8.563288366
0.29650,-6.121733104
0.29700,-4.900955474
0.29750,-4.595761066
0.29800,-4.900955474
0.29850,-5.511344289
0.29900,-7.037316328
0.29950,-9.173677181
0.30000,-10.39445481
0.30050,-10.0892604
0.30100,-8.868482774
0.30150,-7.952899551
0.30200,-7.952899551
0.30250,-8.868482774
0.30300,-9.173677181
0.30350,-8.258093958
0.30400,-7.037316328
0.30450,-6.121733104
0.30500,-6.121733104
0.30550,-6.121733104
0.30600,-4.595761066
0.30650,-1.238622581
0.30700,1.508127088
0.30750,2.423710311
0.30800,2.423710311
0.30850,3.034099127
0.30900,3.644487942
0.30950,3.034099127
0.31000,2.118515904
0.31050,2.423710311
0.31100,3.644487942
0.31150,4.254876757
0.31200,3.339293534
0.31250,1.508127088
0.31300,0.592543865
0.31350,0.8977382727
0.31400,1.20293268
0.31450,0.592543865
0.31500,-0.01784495038
0.31550,-0.6282337658
0.31600,-0.9334281735
0.31650,-0.6282337658
0.31700,-0.6282337658
0.31750,-0.3230393581
0.31800,-0.01784495038
0.31850,0.592543865
0.31900,1.813321496
0.31950,2.728904719
0.32000,3.034099127
0.32050,3.644487942
0.32100,5.170459981
0.32150,6.696432019
0.32200,8.222404058
0.32250,8.832792873
0.32300,9.137987281
0.32350,9.137987281
0.32400,8.527598465
0.32450,7.91720965
0.32500,7.612015242
0.32550,7.91720965
0.32600,8.222404058
0.32650,9.443181688
0.32700,10.66395932
0.32750,11.57954254
0.32800,10.96915373
0.32850,10.0535705
0.32900,10.0535705
0.32950,10.35876491
0.33000,9.748376096
0.33050,8.832792873
0.33100,8.832792873
0.33150,9.748376096
0.33200,9.443181688
0.33250,7.91720965
0.33300,6.696432019
0.33350,7.306820834
0.33400,7.001626427
0.33450,4.560071165
0.33500,0.8977382727
0.33550,-0.9334281735
0.33600,-1.543816989
0.33650,-2.154205804
0.33700,-2.76459462
0.33750,-2.459400212
0.33800,-0.9334281735
0.33850,-0.01784495038
0.33900,0.8977382727
0.33950,1.813321496
0.34000,2.728904719
0.34050,2.728904719
0.34100,1.813321496
0.34150,1.20293268
0.34200,1.813321496
0.34250,2.728904719
0.34300,3.034099127
0.34350,3.644487942
0.34400,4.560071165
0.34450,5.780848796
0.34500,6.086043204
0.34550,6.696432019
0.34600,8.527598465
0.34650,11.88473695
0.34700,14.63148662
0.34750,16.46265307
0.34800,17.37823629
0.34850,17.9886251
0.34900,17.9886251
0.34950,17.37823629
0.35000,17.07304188
0.35050,16.76784747
0.35100,16.15745866
0.35150,15.24187543
0.35200,14.0210978
0.35250,13.41070899
0.35300,12.49512577
0.35350,11.27434813
0.35400,9.748376096
0.35450,8.832792873
0.35500,7.91720965
0.35550,6.696432019
0.35600,5.170459981
0.35650,4.254876757
0.35700,3.339293534
0.35750,1.813321496
0.35800,-0.01784495038
0.35850,-2.154205804
0.35900,-3.98537225
0.35950,-5.206149881
0.36000,-5.816538697
0.36050,-6.121733104
0.36100,-7.342510735
0.36150,-11.31003804
0.36200,-17.10873178
0.36250,-21.9918423
0.36300,-23.82300875
0.36350,-22.29703671
0.36400,-19.24509264
0.36450,-15.27756534
0.36500,-10.69964922
0.36550,-7.342510735
0.36600,-5.206149881
0.36650,-3.680177843
0.36700,-2.459400212
0.36750,-1.543816989
0.36800,-1.543816989
0.36850,-2.154205804
0.36900,-1.543816989
0.36950,-0.3230393581
0.37000,-0.3230393581
0.37050,-1.849011397
0.37100,-2.459400212
0.37150,-2.154205804
0.37200,-3.374983435
0.37250,-7.952899551
0.37300,-13.7515933
0.37350,-17.41392619
0.37400,-17.7191206
0.37450,-16.49834297
0.37500,-15.88795415
0.37550,-14.66717652
0.37600,-13.14120448
0.37650,-11.61523244
0.37700,-10.69964922
0.37750,-11.00484363
0.37800,-11.61523244
0.37850,-11.31003804
0.37900,-10.0892604
0.37950,-8.563288366
0.38000,-8.563288366
0.38050,-9.784065997
0.38100,-10.39445481
0.38150,-9.173677181
0.38200,-6.73212192
0.38250,-4.900955474
0.38300,-3.680177843
0.38350,-2.154205804
0.38400,-1.238622581
0.38450,-0.6282337658
0.38500,0.2873494573
0.38550,1.813321496
0.38600,2.423710311
0.38650,1.508127088
0.38700,0.8977382727
0.38750,1.813321496
0.38800,3.339293534
0.38850,3.034099127
0.38900,1.813321496
0.38950,1.20293268
0.39000,2.728904719
0.39050,4.254876757
0.39100,4.865265573
0.39150,6.086043204
0.39200,8.222404058
0.39250,10.0535705
0.39300,10.35876491
0.39350,8.527598465
0.39400,6.086043204
0.39450,4.254876757
0.39500,3.339293534
0.39550,3.94968235
0.39600,4.560071165
0.39650,4.865265573
0.39700,5.170459981
0.39750,6.086043204
0.39800,7.306820834
0.39850,7.612015242
0.39900,6.696432019
0.39950,5.170459981
0.40000,4.254876757
0.40050,4.254876757
0.40100,3.644487942
0.40150,1.508127088
0.40200,-0.9334281735
0.40250,-2.459400212
0.40300,-1.849011397
0.40350,-0.01784495038
0.40400,1.508127088
0.40450,2.423710311
0.40500,2.423710311
0.40550,2.118515904
0.40600,2.423710311
0.40650,2.728904719
0.40700,3.339293534
0.40750,2.728904719
0.40800,1.508127088
0.40850,-0.3230393581
0.40900,-1.238622581
0.40950,-0.6282337658
0.41000,0.592543865
0.41050,2.423710311
0.41100,3.644487942
0.41150,4.865265573
0.41200,5.780848796
0.41250,7.612015242
0.41300,10.66395932
0.41350,14.0210978
0.41400,15.85226425
0.41450,15.54706984
0.41500,14.0210978
0.41550,13.10551458
0.41600,11.88473695
0.41650,10.0535705
0.41700,7.306820834
0.41750,5.170459981
0.41800,5.170459981
0.41850,5.780848796
0.41900,6.696432019
0.41950,7.306820834
0.42000,8.222404058
0.42050,9.443181688
0.42100,10.66395932
0.42150,11.27434813
0.42200,10.96915373
0.42250,10.0535705
0.42300,7.91720965
0.42350,4.560071165
0.42400,0.8977382727
0.42450,-1.543816989
0.42500,-3.680177843
0.42550,-6.121733104
0.42600,-9.173677181
0.42650,-11.92042685
0.42700,-13.14120448
0.42750,-13.14120448
0.42800,-13.44639889
0.42850,-14.36198211
0.42900,-14.97237093
0.42950,-15.58275974
0.43000,-16.49834297
0.43050,-17.7191206
0.43100,-18.32950941
0.43150,-17.41392619
0.43200,-15.27756534
0.43250,-12.83601007
0.43300,-10.69964922
0.43350,-8.868482774
0.43400,-8.563288366
0.43450,-9.478871589
0.43500,-9.478871589
0.43550,-8.258093958
0.43600,-6.73212192
0.43650,-7.037316328
0.43700,-8.258093958
0.43750,-8.868482774
0.43800,-8.258093958
0.43850,-8.258093958
0.43900,-8.868482774
0.43950,-9.478871589
0.44000,-9.784065997
0.44050,-9.173677181
0.44100,-7.647705143
0.44150,-5.206149881
0.44200,-2.76459462
0.44250,-1.238622581
0.44300,-0.9334281735
0.44350,-1.238622581
0.44400,-0.9334281735
0.44450,-0.01784495038
0.44500,0.2873494573
0.44550,0.2873494573
0.44600,-0.01784495038
0.44650,0.2873494573
0.44700,1.508127088
0.44750,2.423710311
0.44800,3.034099127
0.44850,3.339293534
0.44900,3.644487942
0.44950,3.94968235
0.45000,3.644487942
0.45050,3.339293534
0.45100,3.94968235
0.45150,5.170459981
0.45200,6.391237611
0.45250,6.696432019
0.45300,7.306820834
0.45350,8.527598465
0.45400,9.748376096
0.45450,10.0535705
0.45500,9.443181688
0.45550,8.832792873
0.45600,8.832792873
0.45650,8.527598465
0.45700,7.91720965
0.45750,7.91720965
0.45800,8.222404058
0.45850,8.222404058
0.45900,7.612015242
0.45950,6.391237611
0.46000,5.780848796
0.46050,6.696432019
0.46100,8.222404058
0.46150,8.832792873
0.46200,8.832792873
0.46250,8.832792873
0.46300,8.832792873
0.46350,8.222404058
0.46400,7.612015242
0.46450,7.612015242
0.46500,7.91720965
0.46550,7.306820834
0.46600,5.780848796
0.46650,4.254876757
0.46700,3.644487942
0.46750,3.94968235
0.46800,3.644487942
0.46850,1.508127088
0.46900,-0.9334281735
0.46950,-3.069789027
0.47000,-4.290566658
0.47050,-5.206149881
0.47100,-5.511344289
0.47150,-4.595761066
0.47200,-2.76459462
0.47250,-0.01784495038
0.47300,1.813321496
0.47350,3.94968235
0.47400,6.086043204
0.47450,7.612015242
0.47500,7.612015242
0.47550,7.612015242
0.47600,8.222404058
0.47650,9.443181688
0.47700,9.137987281
0.47750,6.696432019
0.47800,4.254876757
0.47850,3.644487942
0.47900,4.254876757
0.47950,3.644487942
0.48000,2.118515904
0.48050,0.8977382727
0.48100,1.20293268
0.48150,2.118515904
0.48200,3.034099127
0.48250,3.339293534
0.48300,3.94968235
0.48350,4.560071165
0.48400,5.170459981
0.48450,5.475654388
0.48500,5.475654388
0.48550,4.865265573
0.48600,4.254876757
0.48650,3.644487942
0.48700,3.034099127
0.48750,1.813321496
0.48800,1.508127088
0.48850,1.813321496
0.48900,3.034099127
0.48950,3.339293534
0.49000,2.118515904
0.49050,0.592543865
0.49100,-1.238622581
0.49150,-3.98537225
0.49200,-7.037316328
0.49250,-8.868482774
0.49300,-8.868482774
0.49350,-8.563288366
0.49400,-9.173677181
0.49450,-11.61523244
0.49500,-14.36198211
0.49550,-16.19314856
0.49600,-16.49834297
0.49650,-15.58275974
0.49700,-14.0567877
0.49750,-13.14120448
0.49800,-13.14120448
0.49850,-13.14120448
0.49900,-12.53081567
0.49950,-11.92042685
0.50000,-12.53081567
0.50050,-13.7515933
0.50100,-13.14120448
0.50150,-9.478871589
0.50200,-5.816538697
0.50250,-4.900955474
0.50300,-5.511344289
0.50350,-4.900955474
0.50400,-3.374983435
0.50450,-2.459400212
0.50500,-2.459400212
0.50550,-2.76459462
0.50600,-3.069789027
0.50650,-3.069789027
0.50700,-2.459400212
0.50750,-0.3230393581
0.50800,2.423710311
0.50850,4.254876757
0.50900,3.94968235
0.50950,3.034099127
0.51000,1.813321496
0.51050,-0.01784495038
0.51100,-1.238622581
0.51150,-1.238622581
0.51200,-0.01784495038
0.51250,0.2873494573
0.51300,-0.9334281735
0.51350,-2.76459462
0.51400,-3.069789027
0.51450,-3.680177843
0.51500,-6.121733104
0.51550,-9.478871589
0.51600,-11.00484363
0.51650,-10.0892604
0.51700,-7.952899551
0.51750,-6.73212192
0.51800,-6.426927512
0.51850,-6.426927512
0.51900,-5.511344289
0.51950,-4.595761066
0.52000,-4.900955474
0.52050,-7.952899551
0.52100,-11.92042685
0.52150,-14.0567877
0.52200,-12.83601007
0.52250,-10.39445481
0.52300,-9.478871589
0.52350,-10.0892604
0.52400,-10.39445481
0.52450,-9.478871589
0.52500,-7.952899551
0.52550,-7.037316328
0.52600,-6.426927512
0.52650,-5.206149881
0.52700,-3.98537225
0.52750,-3.374983435
0.52800,-3.374983435
0.52850,-2.76459462
0.52900,-2.459400212
0.52950,-2.154205804
0.53000,-2.154205804
0.53050,-2.459400212
0.53100,-3.069789027
0.53150,-3.98537225
0.53200,-4.290566658
0.53250,-4.290566658
0.53300,-3.98537225
0.53350,-4.900955474
0.53400,-5.816538697
0.53450,-6.426927512
0.53500,-6.121733104
0.53550,-6.121733104
0.53600,-5.816538697
0.53650,-4.900955474
0.53700,-3.680177843
0.53750,-3.069789027
0.53800,-3.680177843
0.53850,-3.374983435
0.53900,-2.154205804
0.53950,-1.849011397
0.54000,-3.374983435
0.54050,-4.900955474
0.54100,-3.98537225
0.54150,-1.543816989
0.54200,-0.3230393581
0.54250,-0.6282337658
0.54300,-0.6282337658
0.54350,-0.01784495038
0.54400,0.592543865
0.54450,-0.01784495038
0.54500,-0.9334281735
0.54550,-0.9334281735
0.54600,-0.01784495038
0.54650,0.592543865
0.54700,1.20293268
0.54750,1.508127088
0.54800,1.508127088
0.54850,0.8977382727
0.54900,0.2873494573
0.54950,0.8977382727
0.55000,1.813321496
0.55050,1.508127088
0.55100,-0.01784495038
0.55150,-0.9334281735
0.55200,-0.6282337658
0.55250,-0.6282337658
0.55300,-0.9334281735
0.55350,-1.849011397
0.55400,-1.543816989
0.55450,-1.238622581
0.55500,-1.238622581
0.55550,-1.849011397
0.55600,-2.154205804
0.55650,-1.543816989
0.55700,-1.238622581
0.55750,-2.459400212
0.55800,-3.680177843
0.55850,-3.680177843
0.55900,-2.459400212
0.55950,-1.543816989
0.56000,-1.849011397
0.56050,-2.459400212
0.56100,-2.459400212
0.56150,-2.154205804
0.56200,-2.459400212
0.56250,-2.76459462
0.56300,-1.849011397
0.56350,-0.3230393581
0.56400,-0.01784495038
0.56450,-0.01784495038
0.56500,-0.01784495038
0.56550,-0.01784495038
0.56600,0.2873494573
0.56650,0.2873494573
0.56700,0.592543865
0.56750,0.592543865
0.56800,-0.01784495038
0.56850,-1.849011397
0.56900,-2.459400212
0.56950,-1.849011397
0.57000,-0.9334281735
0.57050,-0.9334281735
0.57100,-0.9334281735
0.57150,-0.01784495038
0.57200,1.20293268
0.57250,1.508127088
0.57300,0.8977382727
0.57350,0.592543865
0.57400,1.20293268
0.57450,2.423710311
0.57500,2.728904719
0.57550,2.118515904
0.57600,0.8977382727
0.57650,0.2873494573
0.57700,1.20293268
0.57750,2.118515904
0.57800,2.118515904
0.57850,1.20293268
0.57900,1.20293268
0.57950,2.118515904
0.58000,3.034099127
0.58050,2.423710311
0.58100,1.813321496
0.58150,1.813321496
0.58200,2.118515904
0.58250,1.20293268
0.58300,-0.3230393581
0.58350,-0.9334281735
0.58400,-0.3230393581
0.58450,-0.01784495038
0.58500,-0.6282337658
0.58550,-2.154205804
0.58600,-2.459400212
0.58650,-0.9334281735
0.58700,0.2873494573
0.58750,1.20293268
0.58800,0.8977382727
0.58850,0.2873494573
0.58900,-0.01784495038
0.58950,-0.3230393581
0.59000,0.2873494573
0.59050,1.508127088
0.59100,1.813321496
0.59150,0.8977382727
0.59200,-0.01784495038
0.59250,-0.01784495038
0.59300,1.508127088
0.59350,2.423710311
0.59400,1.813321496
0.59450,0.592543865
0.59500,0.2873494573
0.59550,1.508127088
0.59600,2.423710311
0.59650,1.813321496
0.59700,1.813321496
0.59750,3.034099127
0.59800,3.94968235
0.59850,3.034099127
0.59900,1.813321496
0.59950,2.118515904
0.60000,3.339293534
0.60050,3.644487942
0.60100,2.423710311
0.60150,2.118515904
0.60200,3.339293534
0.60250,3.94968235
0.60300,3.644487942
0.60350,3.034099127
0.60400,2.728904719
0.60450,2.118515904
0.60500,0.8977382727
0.60550,0.2873494573
0.60600,1.508127088
0.60650,3.034099127
0.60700,4.254876757
0.60750,4.560071165
0.60800,4.560071165
0.60850,4.254876757
0.60900,4.560071165
0.60950,5.475654388
0.61000,7.001626427
0.61050,7.306820834
0.61100,7.306820834
0.61150,7.612015242
0.61200,8.527598465
0.61250,8.527598465
0.61300,7.001626427
0.61350,5.780848796
0.61400,5.780848796
0.61450,6.086043204
0.61500,6.086043204
0.61550,6.086043204
0.61600,6.696432019
0.61650,8.222404058
0.61700,10.0535705
0.61750,12.80032017
0.61800,16.46265307
0.61850,19.51459714
0.61900,19.81979155
0.61950,18.59901392
0.62000,17.9886251
0.62050,17.37823629
0.62100,15.85226425
0.62150,13.10551458
0.62200,11.27434813
0.62250,10.96915373
0.62300,11.57954254
0.62350,11.27434813
0.62400,10.35876491
0.62450,9.443181688
0.62500,8.527598465
0.62550,7.612015242
0.62600,7.306820834
0.62650,7.306820834
0.62700,6.391237611
0.62750,4.865265573
0.62800,3.339293534
0.62850,3.339293534
0.62900,3.644487942
0.62950,2.728904719
0.63000,-0.6282337658
0.63050,-5.511344289
0.63100,-9.478871589
0.63150,-11.00484363
0.63200,-11.00484363
0.63250,-10.0892604
0.63300,-9.478871589
0.63350,-8.868482774
0.63400,-8.563288366
0.63450,-8.868482774
0.63500,-8.563288366
0.63550,-7.952899551
0.63600,-7.037316328
0.63650,-6.121733104
0.63700,-5.206149881
0.63750,-4.900955474
0.63800,-4.900955474
0.63850,-5.206149881
0.63900,-4.595761066
0.63950,-3.069789027
0.64000,-0.9334281735
0.64050,-0.01784495038
0.64100,0.592543865
0.64150,0.8977382727
0.64200,1.813321496
0.64250,3.339293534
0.64300,4.560071165
0.64350,5.780848796
0.64400,6.391237611
0.64450,6.391237611
0.64500,6.086043204
0.64550,5.170459981
0.64600,4.254876757
0.64650,3.339293534
0.64700,3.034099127
0.64750,3.034099127
0.64800,2.728904719
0.64850,2.118515904
0.64900,2.423710311
0.64950,2.728904719
0.65000,2.118515904
0.65050,0.592543865
0.65100,-0.01784495038
0.65150,0.2873494573
0.65200,0.592543865
0.65250,-0.01784495038
0.65300,-0.9334281735
0.65350,-0.9334281735
0.65400,-0.3230393581
0.65450,-0.3230393581
0.65500,-0.6282337658
0.65550,-0.01784495038
0.65600,1.20293268
0.65650,2.118515904
0.65700,0.8977382727
0.65750,-0.01784495038
0.65800,0.2873494573
0.65850,1.813321496
0.65900,2.728904719
0.65950,2.423710311
0.66000,1.508127088
0.66050,1.20293268
0.66100,2.118515904
0.66150,3.339293534
0.66200,4.254876757
0.66250,4.254876757
0.66300,3.644487942
0.66350,3.339293534
0.66400,3.644487942
0.66450,3.94968235
0.66500,3.644487942
0.66550,3.034099127
0.66600,3.034099127
0.66650,3.94968235
0.66700,4.560071165
0.66750,4.254876757
0.66800,3.339293534
0.66850,2.728904719
0.66900,2.728904719
0.66950,2.728904719
0.67000,1.813321496
0.67050,0.8977382727
0.67100,1.20293268
0.67150,1.20293268
0.67200,0.8977382727
0.67250,0.592543865
0.67300,0.592543865
0.67350,0.592543865
0.67400,-0.01784495038
0.67450,-0.01784495038
0.67500,0.8977382727
0.67550,3.034099127
0.67600,3.339293534
0.67650,2.118515904
0.67700,2.118515904
0.67750,3.644487942
0.67800,5.170459981
0.67850,6.086043204
0.67900,7.612015242
0.67950,10.0535705
0.68000,11.57954254
0.68050,10.35876491
0.68100,8.222404058
0.68150,7.612015242
0.68200,8.222404058
0.68250,8.527598465
0.68300,7.612015242
0.68350,6.696432019
0.68400,7.001626427
0.68450,7.306820834
0.68500,7.612015242
0.68550,7.612015242
0.68600,7.306820834
0.68650,6.086043204
0.68700,5.170459981
0.68750,4.254876757
0.68800,4.254876757
0.68850,4.254876757
0.68900,4.254876757
0.68950,3.644487942
0.69000,1.813321496
0.69050,-0.3230393581
0.69100,-1.238622581
0.69150,-0.6282337658
0.69200,-0.6282337658
0.69250,-1.849011397
0.69300,-2.154205804
0.69350,0.592543865
0.69400,4.560071165
0.69450,5.170459981
0.69500,2.728904719
0.69550,0.8977382727
0.69600,2.118515904
0.69650,4.254876757
0.69700,4.560071165
0.69750,3.339293534
0.69800,2.728904719
0.69850,3.339293534
0.69900,3.94968235
0.69950,4.254876757
0.70000,4.865265573
0.70050,5.780848796
0.70100,5.780848796
0.70150,5.170459981
0.70200,5.170459981
0.70250,7.306820834
0.70300,10.35876491
0.70350,12.49512577
0.70400,13.7159034
0.70450,13.41070899
0.70500,13.41070899
0.70550,13.7159034
0.70600,14.0210978
0.70650,13.7159034
0.70700,12.80032017
0.70750,13.41070899
0.70800,16.15745866
0.70850,17.9886251
0.70900,16.76784747
0.70950,13.7159034
0.71000,12.80032017
0.71050,14.0210978
0.71100,14.32629221
0.71150,10.35876491
0.71200,4.254876757
0.71250,-0.3230393581
0.71300,-3.680177843
0.71350,-7.952899551
0.71400,-14.36198211
0.71450,-19.85548145
0.71500,-21.6866479
0.71550,-19.85548145
0.71600,-16.80353737
0.71650,-13.7515933
0.71700,-11.00484363
0.71750,-9.478871589
0.71800,-9.173677181
0.71850,-10.39445481
0.71900,-12.83601007
0.71950,-15.58275974
0.72000,-17.7191206
0.72050,-18.024315
0.72100,-17.41392619
0.72150,-16.49834297
0.72200,-15.27756534
0.72250,-14.0567877
0.72300,-12.53081567
0.72350,-11.61523244
0.72400,-10.69964922
0.72450,-10.0892604
0.72500,-9.478871589
0.72550,-8.868482774
0.72600,-8.258093958
0.72650,-7.037316328
0.72700,-6.121733104
0.72750,-6.426927512
0.72800,-7.647705143
0.72850,-7.647705143
0.72900,-6.426927512
0.72950,-5.511344289
0.73000,-5.816538697
0.73050,-6.426927512
0.73100,-6.121733104
0.73150,-5.206149881
0.73200,-4.595761066
0.73250,-4.595761066
0.73300,-5.206149881
0.73350,-6.121733104
0.73400,-7.342510735
0.73450,-8.258093958
0.73500,-8.563288366
0.73550,-7.647705143
0.73600,-6.73212192
0.73650,-6.121733104
0.73700,-6.426927512
0.73750,-6.73212192
0.73800,-6.73212192
0.73850,-6.73212192
0.73900,-6.121733104
0.73950,-5.816538697
0.74000,-5.816538697
0.74050,-6.426927512
0.74100,-6.121733104
0.74150,-5.206149881
0.74200,-4.290566658
0.74250,-4.595761066
0.74300,-5.206149881
0.74350,-5.206149881
0.74400,-5.206149881
0.74450,-5.511344289
0.74500,-5.511344289
0.74550,-4.900955474
0.74600,-4.900955474
0.74650,-5.511344289
0.74700,-6.73212192
0.74750,-6.73212192
0.74800,-6.121733104
0.74850,-5.206149881
0.74900,-4.290566658
0.74950,-3.680177843
0.75000,-3.680177843
0.75050,-3.680177843
0.75100,-3.680177843
0.75150,-3.374983435
0.75200,-3.069789027
0.75250,-3.680177843
0.75300,-3.680177843
0.75350,-2.459400212
0.75400,-1.238622581
0.75450,-0.9334281735
0.75500,-1.543816989
0.75550,-1.543816989
0.75600,-0.9334281735
0.75650,-0.6282337658
0.75700,-0.9334281735
0.75750,-1.238622581
0.75800,-1.238622581
0.75850,-1.543816989
0.75900,-1.849011397
0.75950,-2.76459462
0.76000,-4.290566658
0.76050,-6.121733104
0.76100,-7.952899551
0.76150,-8.258093958
0.76200,-7.952899551
0.76250,-7.037316328
0.76300,-5.511344289
0.76350,-3.680177843
0.76400,-2.76459462
0.76450,-3.069789027
0.76500,-3.374983435
0.76550,-2.154205804
0.76600,-0.6282337658
0.76650,-0.01784495038
0.76700,-0.01784495038
0.76750,-0.3230393581
0.76800,-0.01784495038
0.76850,0.8977382727
0.76900,1.508127088
0.76950,1.20293268
0.77000,-0.01784495038
0.77050,-2.154205804
0.77100,-3.374983435
0.77150,-2.76459462
0.77200,-1.543816989
0.77250,-1.238622581
0.77300,-1.849011397
0.77350,-1.849011397
0.77400,-0.3230393581
0.77450,1.813321496
0.77500,4.560071165
0.77550,6.391237611
0.77600,6.086043204
0.77650,5.475654388
0.77700,5.170459981
0.77750,6.086043204
0.77800,6.391237611
0.77850,5.780848796
0.77900,4.560071165
0.77950,3.94968235
0.78000,3.034099127
0.78050,1.508127088
0.78100,-1.543816989
0.78150,-5.511344289
0.78200,-8.868482774
0.78250,-10.39445481
0.78300,-10.0892604
0.78350,-8.563288366
0.78400,-7.342510735
0.78450,-7.037316328
0.78500,-7.037316328
0.78550,-6.73212192
0.78600,-6.121733104
0.78650,-5.511344289
0.78700,-6.426927512
0.78750,-10.39445481
0.78800,-16.19314856
0.78850,-19.55028704
0.78900,-18.32950941
0.78950,-15.88795415
0.79000,-15.88795415
0.79050,-18.63470382
0.79100,-19.55028704
0.79150,-16.49834297
0.79200,-13.14120448
0.79250,-12.22562126
0.79300,-12.53081567
0.79350,-10.69964922
0.79400,-7.037316328
0.79450,-4.900955474
0.79500,-4.595761066
0.79550,-4.900955474
0.79600,-2.76459462
0.79650,-0.01784495038
0.79700,1.20293268
0.79750,1.813321496
0.79800,3.339293534
0.79850,6.086043204
0.79900,8.222404058
0.79950,8.222404058
0.80000,6.696432019
0.80050,5.475654388
0.80100,4.560071165
0.80150,4.254876757
0.80200,4.560071165
0.80250,5.475654388
0.80300,4.865265573
0.80350,1.508127088
0.80400,-1.849011397
0.80450,-4.290566658
0.80500,-5.511344289
0.80550,-7.037316328
0.80600,-9.173677181
0.80650,-10.0892604
0.80700,-9.784065997
0.80750,-9.478871589
0.80800,-8.868482774
0.80850,-7.037316328
0.80900,-4.290566658
0.80950,-2.154205804
0.81000,-2.154205804
0.81050,-2.76459462
0.81100,-2.76459462
0.81150,-2.459400212
0.81200,-2.459400212
0.81250,-2.76459462
0.81300,-3.069789027
0.81350,-2.76459462
0.81400,-2.154205804
0.81450,-1.543816989
0.81500,-2.154205804
0.81550,-2.76459462
0.81600,-3.374983435
0.81650,-2.76459462
0.81700,-2.459400212
0.81750,-3.069789027
0.81800,-4.290566658
0.81850,-4.595761066
0.81900,-4.595761066
0.81950,-5.206149881
0.82000,-6.426927512
0.82050,-7.037316328
0.82100,-5.816538697
0.82150,-4.290566658
0.82200,-3.98537225
0.82250,-4.290566658
0.82300,-3.98537225
0.82350,-2.76459462
0.82400,-1.849011397
0.82450,-0.9334281735
0.82500,-0.01784495038
0.82550,0.8977382727
0.82600,0.2873494573
0.82650,-0.3230393581
0.82700,-0.3230393581
0.82750,1.20293268
0.82800,3.034099127
0.82850,3.339293534
0.82900,2.118515904
0.82950,0.592543865
0.83000,0.2873494573
0.83050,1.20293268
0.83100,3.034099127
0.83150,4.560071165
0.83200,4.560071165
0.83250,3.339293534
0.83300,2.118515904
0.83350,1.508127088
0.83400,1.508127088
0.83450,2.423710311
0.83500,4.254876757
0.83550,6.391237611
0.83600,7.001626427
0.83650,6.391237611
0.83700,7.306820834
0.83750,10.0535705
0.83800,11.57954254
0.83850,11.27434813
0.83900,10.96915373
0.83950,12.18993136
0.84000,14.32629221
0.84050,15.24187543
0.84100,15.85226425
0.84150,17.9886251
0.84200,20.12498596
0.84250,20.43018037
0.84300,19.51459714
0.84350,20.12498596
0.84400,21.34576359
0.84450,20.73537477
0.84500,17.9886251
0.84550,14.93668103
0.84600,13.10551458
0.84650,11.27434813
0.84700,10.0535705
0.84750,10.66395932
0.84800,11.27434813
0.84850,10.0535705
0.84900,6.391237611
0.84950,3.339293534
0.85000,2.728904719
0.85050,2.728904719
0.85100,1.813321496
0.85150,0.8977382727
0.85200,0.8977382727
0.85250,-0.01784495038
0.85300,-3.98537225
0.85350,-9.478871589
0.85400,-12.83601007
0.85450,-12.83601007
0.85500,-11.92042685
0.85550,-12.22562126
0.85600,-15.58275974
0.85650,-20.16067586
0.85700,-23.82300875
0.85750,-24.12820316
0.85800,-22.29703671
0.85850,-20.46587027
0.85900,-20.16067586
0.85950,-19.55028704
0.86000,-17.7191206
0.86050,-15.27756534
0.86100,-13.7515933
0.86150,-12.83601007
0.86200,-11.00484363
0.86250,-9.173677181
0.86300,-7.647705143
0.86350,-5.511344289
0.86400,-1.849011397
0.86450,1.508127088
0.86500,2.728904719
0.86550,3.034099127
0.86600,5.475654388
0.86650,9.137987281
0.86700,10.66395932
0.86750,8.527598465
0.86800,5.780848796
0.86850,4.560071165
0.86900,3.339293534
0.86950,2.118515904
0.87000,2.423710311
0.87050,5.780848796
0.87100,9.137987281
0.87150,10.35876491
0.87200,11.88473695
0.87250,16.15745866
0.87300,21.04056918
0.87350,23.17693003
0.87400,23.48212444
0.87450,24.70290207
0.87500,26.22887411
0.87550,25.00809648
0.87600,21.34576359
0.87650,17.9886251
0.87700,15.85226425
0.87750,13.41070899
0.87800,10.0535705
0.87850,7.612015242
0.87900,4.560071165
0.87950,-0.3230393581
0.88000,-6.426927512
0.88050,-8.868482774
0.88100,-7.342510735
0.88150,-5.206149881
0.88200,-4.900955474
0.88250,-4.595761066
0.88300,-2.76459462
0.88350,-0.01784495038
0.88400,0.8977382727
0.88450,0.8977382727
0.88500,0.2873494573
0.88550,-0.01784495038
0.88600,-0.9334281735
0.88650,-1.849011397
0.88700,-2.154205804
0.88750,-2.459400212
0.88800,-2.76459462
0.88850,-2.154205804
0.88900,-0.9334281735
0.88950,-0.01784495038
0.89000,0.8977382727
0.89050,1.813321496
0.89100,4.560071165
0.89150,8.527598465
0.89200,11.57954254
0.89250,13.10551458
0.89300,13.10551458
0.89350,13.10551458
0.89400,13.7159034
0.89450,14.63148662
0.89500,15.54706984
0.89550,16.46265307
0.89600,17.07304188
0.89650,17.37823629
0.89700,17.07304188
0.89750,16.15745866
0.89800,15.54706984
0.89850,15.85226425
0.89900,16.46265307
0.89950,17.9886251
0.90000,20.12498596
0.90050,21.9561524
0.90100,23.17693003
0.90150,24.70290207
0.90200,27.14445734
0.90250,28.97562378
0.90300,29.28081819
0.90350,27.75484615
0.90400,25.9236797
0.90450,24.39770767
0.90500,22.56654122
0.90550,21.34576359
0.90600,19.81979155
0.90650,17.37823629
0.90700,12.80032017
0.90750,8.222404058
0.90800,5.475654388
0.90850,3.339293534
0.90900,0.8977382727
0.90950,-1.238622581
0.91000,-1.238622581
0.91050,-0.01784495038
0.91100,-0.3230393581
0.91150,-2.459400212
0.91200,-3.374983435
0.91250,-3.069789027
0.91300,-3.374983435
0.91350,-4.290566658
0.91400,-3.680177843
0.91450,-1.849011397
0.91500,-2.459400212
0.91550,-6.73212192
0.91600,-11.31003804
0.91650,-13.44639889
0.91700,-14.0567877
0.91750,-15.88795415
0.91800,-19.24509264
0.91850,-21.6866479
0.91900,-21.6866479
0.91950,-19.85548145
0.92000,-17.10873178
0.92050,-14.0567877
0.92100,-12.22562126
0.92150,-11.61523244
0.92200,-11.61523244
0.92250,-10.39445481
0.92300,-8.563288366
0.92350,-6.73212192
0.92400,-4.595761066
0.92450,-1.849011397
0.92500,0.2873494573
0.92550,2.118515904
0.92600,3.034099127
0.92650,1.813321496
0.92700,-0.9334281735
0.92750,-3.374983435
0.92800,-3.374983435
0.92850,-0.3230393581
0.92900,1.508127088
0.92950,1.508127088
0.93000,0.2873494573
0.93050,-0.01784495038
0.93100,-0.3230393581
0.93150,-1.849011397
0.93200,-3.374983435
0.93250,-3.374983435
0.93300,-1.238622581
0.93350,0.8977382727
0.93400,2.728904719
0.93450,4.865265573
0.93500,6.086043204
0.93550,6.391237611
0.93600,5.780848796
0.93650,5.170459981
0.93700,5.170459981
0.93750,4.560071165
0.93800,3.034099127
0.93850,1.20293268
0.93900,0.2873494573
0.93950,-0.01784495038
0.94000,-0.01784495038
0.94050,-1.849011397
0.94100,-4.595761066
0.94150,-7.037316328
0.94200,-7.952899551
0.94250,-7.342510735
0.94300,-6.426927512
0.94350,-6.121733104
0.94400,-6.426927512
0.94450,-6.121733104
0.94500,-5.206149881
0.94550,-4.900955474
0.94600,-6.121733104
0.94650,-7.952899551
0.94700,-8.868482774
0.94750,-9.173677181
0.94800,-10.39445481
0.94850,-12.22562126
0.94900,-11.92042685
0.94950,-8.868482774
0.95000,-6.121733104
0.95050,-5.511344289
0.95100,-7.037316328
0.95150,-8.563288366
0.95200,-8.563288366
0.95250,-7.342510735
0.95300,-6.426927512
0.95350,-6.73212192
0.95400,-9.173677181
0.95450,-12.22562126
0.95500,-14.36198211
0.95550,-15.27756534
0.95600,-16.19314856
0.95650,-18.024315
0.95700,-19.24509264
0.95750,-18.93989823
0.95800,-16.80353737
0.95850,-14.36198211
0.95900,-12.83601007
0.95950,-12.83601007
0.96000,-13.7515933
0.96050,-14.36198211
0.96100,-13.7515933
0.96150,-13.14120448
0.96200,-12.83601007
0.96250,-13.44639889
0.96300,-13.7515933
0.96350,-13.7515933
0.96400,-13.44639889
0.96450,-12.83601007
0.96500,-11.61523244
0.96550,-10.39445481
0.96600,-10.69964922
0.96650,-11.00484363
0.96700,-9.784065997
0.96750,-7.342510735
0.96800,-5.206149881
0.96850,-4.290566658
0.96900,-3.374983435
0.96950,-1.849011397
0.97000,-0.3230393581
0.97050,-0.01784495038
0.97100,-0.01784495038
0.97150,-0.01784495038
0.97200,-0.3230393581
0.97250,-0.9334281735
0.97300,-0.3230393581
0.97350,1.508127088
0.97400,4.254876757
0.97450,5.475654388
0.97500,5.170459981
0.97550,4.560071165
0.97600,3.94968235
0.97650,3.339293534
0.97700,2.728904719
0.97750,2.423710311
0.97800,1.813321496
0.97850,1.508127088
0.97900,1.813321496
0.97950,2.118515904
0.98000,0.592543865
0.98050,-2.76459462
0.98100,-6.73212192
0.98150,-9.478871589
0.98200,-10.69964922
0.98250,-12.83601007
0.98300,-16.19314856
0.98350,-19.55028704
0.98400,-21.9918423
0.98450,-22.60223112
0.98500,-21.6866479
0.98550,-19.85548145
0.98600,-17.7191206
0.98650,-15.58275974
0.98700,-14.36198211
0.98750,-14.36198211
0.98800,-14.36198211
0.98850,-13.44639889
0.98900,-11.31003804
0.98950,-9.173677181
0.99000,-8.868482774
0.99050,-9.784065997
0.99100,-9.784065997
0.99150,-8.563288366
0.99200,-7.037316328
0.99250,-6.426927512
0.99300,-4.900955474
0.99350,-3.374983435
0.99400,-3.069789027
0.99450,-4.290566658
0.99500,-5.206149881
0.99550,-3.680177843
0.99600,-1.238622581
0.99650,-0.3230393581
0.99700,-0.6282337658
0.99750,-0.01784495038
0.99800,1.20293268
0.99850,2.423710311
0.99900,3.339293534
0.99950,4.254876757
1.00000,4.560071165
1.00050,4.560071165
1.00100,6.086043204
1.00150,8.832792873
1.00200,11.57954254
1.00250,11.57954254
1.00300,9.748376096
1.00350,7.91720965
1.00400,7.612015242
1.00450,7.91720965
1.00500,7.91720965
1.00550,7.91720965
1.00600,8.527598465
1.00650,9.137987281
1.00700,9.443181688
1.00750,9.748376096
1.00800,10.0535705
1.00850,10.96915373
1.00900,11.57954254
1.00950,11.57954254
1.01000,11.27434813
1.01050,11.27434813
1.01100,12.18993136
1.01150,13.10551458
1.01200,13.10551458
1.01250,13.10551458
1.01300,12.80032017
1.01350,12.18993136
1.01400,11.57954254
1.01450,11.88473695
1.01500,13.10551458
1.01550,13.41070899
1.01600,12.49512577
1.01650,11.27434813
1.01700,11.57954254
1.01750,12.80032017
1.01800,12.80032017
1.01850,10.96915373
1.01900,8.832792873
1.01950,8.222404058
1.02000,8.832792873
1.02050,8.832792873
1.02100,8.222404058
1.02150,7.001626427
1.02200,7.001626427
1.02250,8.222404058
1.02300,9.443181688
1.02350,9.137987281
1.02400,7.612015242
1.02450,5.780848796
1.02500,4.560071165
1.02550,3.94968235
1.02600,3.644487942
1.02650,3.644487942
1.02700,4.865265573
1.02750,5.780848796
1.02800,6.086043204
1.02850,6.391237611
1.02900,6.696432019
1.02950,6.086043204
1.03000,4.254876757
1.03050,3.339293534
1.03100,4.560071165
1.03150,5.780848796
1.03200,5.475654388
1.03250,3.644487942
1.03300,2.118515904
1.03350,1.20293268
1.03400,0.592543865
1.03450,1.20293268
1.03500,3.034099127
1.03550,5.780848796
1.03600,7.001626427
1.03650,7.001626427
1.03700,7.612015242
1.03750,8.222404058
1.03800,7.612015242
1.03850,6.391237611
1.03900,6.696432019
1.03950,7.91720965
1.04000,7.306820834
1.04050,5.475654388
1.04100,4.865265573
1.04150,7.001626427
1.04200,8.832792873
1.04250,9.137987281
1.04300,7.91720965
1.04350,7.001626427
1.04400,5.475654388
1.04450,3.644487942
1.04500,2.423710311
1.04550,2.728904719
1.04600,3.339293534
1.04650,3.339293534
1.04700,3.034099127
1.04750,3.339293534
1.04800,4.865265573
1.04850,6.086043204
1.04900,6.086043204
1.04950,4.560071165
1.05000,1.508127088
1.05050,-1.543816989
1.05100,-3.680177843
1.05150,-4.900955474
1.05200,-5.511344289
1.05250,-6.73212192
1.05300,-7.952899551
1.05350,-8.868482774
1.05400,-8.258093958
1.05450,-7.037316328
1.05500,-6.426927512
1.05550,-6.73212192
1.05600,-7.647705143
1.05650,-7.647705143
1.05700,-6.73212192
1.05750,-6.73212192
1.05800,-7.647705143
1.05850,-7.342510735
1.05900,-4.900955474
1.05950,-1.238622581
1.06000,0.2873494573
1.06050,1.20293268
1.06100,2.728904719
1.06150,4.560071165
1.06200,5.170459981
1.06250,4.254876757
1.06300,2.423710311
1.06350,0.8977382727
1.06400,-0.6282337658
1.06450,-2.459400212
1.06500,-2.154205804
1.06550,0.592543865
1.06600,4.560071165
1.06650,7.612015242
1.06700,9.748376096
1.06750,11.27434813
1.06800,12.49512577
1.06850,12.80032017
1.06900,13.41070899
1.06950,14.63148662
1.07000,15.24187543
1.07050,14.0210978
1.07100,10.66395932
1.07150,6.696432019
1.07200,3.034099127
1.07250,0.2873494573
1.07300,-1.543816989
1.07350,-3.374983435
1.07400,-5.511344289
1.07450,-8.868482774
1.07500,-12.53081567
1.07550,-15.58275974
1.07600,-16.49834297
1.07650,-16.49834297
1.07700,-17.7191206
1.07750,-20.16067586
1.07800,-21.38145349
1.07850,-19.85548145
1.07900,-16.80353737
1.07950,-14.36198211
1.08000,-12.53081567
1.08050,-10.39445481
1.08100,-8.868482774
1.08150,-10.0892604
1.08200,-13.7515933
1.08250,-17.41392619
1.08300,-19.85548145
1.08350,-23.51781434
1.08400,-28.70611927
1.08450,-32.06325776
1.08500,-32.06325776
1.08550,-30.53728572
1.08600,-28.70611927
1.08650,-25.6541752
1.08700,-21.6866479
1.08750,-19.24509264
1.08800,-19.24509264
1.08850,-20.16067586
1.08900,-18.63470382
1.08950,-15.27756534
1.09000,-12.83601007
1.09050,-12.22562126
1.09100,-11.31003804
1.09150,-10.0892604
1.09200,-8.563288366
1.09250,-7.647705143
1.09300,-6.73212192
1.09350,-5.511344289
1.09400,-4.290566658
1.09450,-3.069789027
1.09500,-1.543816989
1.09550,-0.3230393581
1.09600,-0.01784495038
1.09650,-0.3230393581
1.09700,-0.01784495038
1.09750,1.20293268
1.09800,2.728904719
1.09850,3.034099127
1.09900,2.118515904
1.09950,1.813321496
1.10000,1.813321496
1.10050,2.118515904
1.10100,2.118515904
1.10150,2.423710311
1.10200,3.034099127
1.10250,3.339293534
1.10300,4.254876757
1.10350,5.475654388
1.10400,6.696432019
1.10450,6.391237611
1.10500,4.865265573
1.10550,4.254876757
1.10600,6.086043204
1.10650,7.91720965
1.10700,7.91720965
1.10750,7.612015242
1.10800,7.91720965
1.10850,8.832792873
1.10900,8.222404058
1.10950,6.696432019
1.11000,6.086043204
1.11050,6.086043204
1.11100,5.780848796
1.11150,4.865265573
1.11200,5.780848796
1.11250,7.612015242
1.11300,8.527598465
1.11350,8.832792873
1.11400,9.137987281
1.11450,10.0535705
1.11500,9.443181688
1.11550,7.91720965
1.11600,6.696432019
1.11650,7.306820834
1.11700,7.91720965
1.11750,7.612015242
1.11800,7.306820834
1.11850,8.527598465
1.11900,10.66395932
1.11950,11.88473695
1.12000,12.49512577
1.12050,13.10551458
1.12100,13.7159034
1.12150,14.32629221
1.12200,15.54706984
1.12250,17.07304188
1.12300,17.37823629
1.12350,16.76784747
1.12400,16.46265307
1.12450,17.37823629
1.12500,17.9886251
1.12550,15.85226425
1.12600,13.41070899
1.12650,11.88473695
1.12700,11.57954254
1.12750,10.35876491
1.12800,8.527598465
1.12850,8.222404058
1.12900,9.443181688
1.12950,11.57954254
1.13000,13.7159034
1.13050,15.24187543
1.13100,16.15745866
1.13150,16.46265307
1.13200,17.07304188
1.13250,18.59901392
1.13300,19.51459714
1.13350,18.59901392
1.13400,16.15745866
1.13450,13.7159034
1.13500,10.96915373
1.13550,8.832792873
1.13600,7.91720965
1.13650,8.527598465
1.13700,9.443181688
1.13750,8.527598465
1.13800,5.475654388
1.13850,2.728904719
1.13900,-0.01784495038
1.13950,-2.459400212
1.14000,-4.290566658
1.14050,-5.816538697
1.14100,-8.868482774
1.14150,-14.0567877
1.14200,-18.32950941
1.14250,-19.24509264
1.14300,-17.41392619
1.14350,-16.19314856
1.14400,-16.49834297
1.14450,-16.19314856
1.14500,-13.44639889
1.14550,-10.0892604
1.14600,-8.868482774
1.14650,-11.00484363
1.14700,-14.97237093
1.14750,-20.16067586
1.14800,-24.43339757
1.14850,-26.56975842
1.14900,-25.95936961
1.14950,-24.12820316
1.15000,-21.9918423
1.15050,-20.16067586
1.15100,-17.7191206
1.15150,-14.66717652
1.15200,-12.53081567
1.15250,-12.22562126
1.15300,-12.83601007
1.15350,-11.92042685
1.15400,-9.478871589
1.15450,-6.73212192
1.15500,-5.206149881
1.15550,-4.290566658
1.15600,-2.76459462
1.15650,-0.3230393581
1.15700,1.20293268
1.15750,2.423710311
1.15800,3.339293534
1.15850,4.560071165
1.15900,7.001626427
1.15950,10.0535705
1.16000,11.88473695
1.16050,10.96915373
1.16100,8.832792873
1.16150,7.91720965
1.16200,9.137987281
1.16250,9.443181688
1.16300,7.306820834
1.16350,5.170459981
1.16400,4.865265573
1.16450,6.086043204
1.16500,6.086043204
1.16550,4.865265573
1.16600,4.560071165
1.16650,5.475654388
1.16700,6.391237611
1.16750,6.086043204
1.16800,5.475654388
1.16850,5.475654388
1.16900,5.475654388
1.16950,5.170459981
1.17000,5.170459981
1.17050,6.086043204
1.17100,6.391237611
1.17150,6.391237611
1.17200,6.391237611
1.17250,7.91720965
1.17300,9.443181688
1.17350,10.0535705
1.17400,9.748376096
1.17450,9.443181688
1.17500,8.832792873
1.17550,7.612015242
1.17600,6.086043204
1.17650,6.391237611
1.17700,8.222404058
1.17750,9.748376096
1.17800,9.137987281
1.17850,7.306820834
1.17900,6.391237611
1.17950,7.001626427
1.18000,7.001626427
1.18050,5.170459981
1.18100,3.339293534
1.18150,3.644487942
1.18200,6.086043204
1.18250,7.612015242
1.18300,7.612015242
1.18350,7.91720965
1.18400,9.748376096
1.18450,10.96915373
1.18500,10.0535705
1.18550,7.91720965
1.18600,7.001626427
1.18650,8.527598465
1.18700,10.96915373
1.18750,12.80032017
1.18800,13.10551458
1.18850,11.88473695
1.18900,10.35876491
1.18950,8.222404058
1.19000,6.696432019
1.19050,5.475654388
1.19100,4.560071165
1.19150,3.339293534
1.19200,1.813321496
1.19250,0.2873494573
1.19300,-0.3230393581
1.19350,-0.01784495038
1.19400,0.8977382727
1.19450,1.813321496
1.19500,2.423710311
1.19550,3.339293534
1.19600,5.780848796
1.19650,8.527598465
1.19700,9.748376096
1.19750,8.222404058
1.19800,4.560071165
1.19850,-0.01784495038
1.19900,-3.374983435
1.19950,-4.900955474
1.20000,-5.206149881
1.20050,-5.816538697
1.20100,-7.342510735
1.20150,-8.563288366
1.20200,-7.952899551
1.20250,-7.037316328
1.20300,-6.426927512
1.20350,-5.206149881
1.20400,-2.76459462
1.20450,-0.01784495038
1.20500,1.20293268
1.20550,0.8977382727
1.20600,0.2873494573
1.20650,-0.01784495038
1.20700,-1.238622581
1.20750,-3.98537225
1.20800,-7.037316328
1.20850,-9.173677181
1.20900,-9.478871589
1.20950,-9.478871589
1.21000,-9.478871589
1.21050,-8.868482774
1.21100,-8.258093958
1.21150,-7.037316328
1.21200,-6.121733104
1.21250,-5.511344289
1.21300,-6.121733104
1.21350,-7.342510735
1.21400,-8.258093958
1.21450,-8.868482774
1.21500,-8.868482774
1.21550,-8.258093958
1.21600,-6.73212192
1.21650,-5.511344289
1.21700,-4.900955474
1.21750,-3.98537225
1.21800,-3.069789027
1.21850,-2.76459462
1.21900,-4.595761066
1.21950,-8.868482774
1.22000,-12.53081567
1.22050,-13.7515933
1.22100,-12.22562126
1.22150,-9.478871589
1.22200,-7.647705143
1.22250,-7.342510735
1.22300,-8.868482774
1.22350,-9.784065997
1.22400,-10.0892604
1.22450,-10.0892604
1.22500,-10.69964922
1.22550,-11.92042685
1.22600,-11.31003804
1.22650,-8.563288366
1.22700,-6.121733104
1.22750,-5.511344289
1.22800,-6.121733104
1.22850,-6.73212192
1.22900,-6.426927512
1.22950,-5.511344289
1.23000,-5.511344289
1.23050,-7.647705143
1.23100,-10.69964922
1.23150,-12.83601007
1.23200,-12.53081567
1.23250,-10.69964922
1.23300,-9.173677181
1.23350,-7.647705143
1.23400,-5.511344289
1.23450,-2.459400212
1.23500,-0.01784495038
1.23550,2.728904719
1.23600,5.170459981
1.23650,6.696432019
1.23700,6.391237611
1.23750,5.170459981
1.23800,3.644487942
1.23850,3.034099127
1.23900,2.423710311
1.23950,1.508127088
1.24000,-0.01784495038
1.24050,-1.238622581
1.24100,-1.849011397
1.24150,-0.3230393581
1.24200,1.508127088
1.24250,2.423710311
1.24300,0.8977382727
1.24350,-1.238622581
1.24400,-3.680177843
1.24450,-6.426927512
1.24500,-9.478871589
1.24550,-11.92042685
1.24600,-12.53081567
1.24650,-12.83601007
1.24700,-13.44639889
1.24750,-14.0567877
1.24800,-13.14120448
1.24850,-11.31003804
1.24900,-9.784065997
1.24950,-9.784065997
1.25000,-9.478871589
1.25050,-7.647705143
1.25100,-4.290566658
1.25150,-1.543816989
1.25200,-0.3230393581
1.25250,-1.238622581
1.25300,-1.543816989
1.25350,-0.3230393581
1.25400,1.813321496
1.25450,3.94968235
1.25500,5.475654388
1.25550,7.001626427
1.25600,8.222404058
1.25650,8.222404058
1.25700,7.306820834
1.25750,5.780848796
1.25800,4.560071165
1.25850,3.94968235
1.25900,3.339293534
1.25950,3.034099127
1.26000,2.423710311
1.26050,2.423710311
1.26100,3.034099127
1.26150,3.94968235
1.26200,3.034099127
1.26250,-0.01784495038
1.26300,-3.98537225
1.26350,-6.121733104
1.26400,-5.511344289
1.26450,-3.680177843
1.26500,-2.154205804
1.26550,-1.543816989
1.26600,-1.543816989
1.26650,-0.3230393581
1.26700,0.8977382727
1.26750,-0.01784495038
1.26800,-2.76459462
1.26850,-6.121733104
1.26900,-6.426927512
1.26950,-3.98537225
1.27000,-0.9334281735
1.27050,0.592543865
1.27100,2.423710311
1.27150,4.560071165
1.27200,6.086043204
1.27250,6.086043204
1.27300,4.865265573
1.27350,3.644487942
1.27400,3.034099127
1.27450,4.560071165
1.27500,8.527598465
1.27550,12.80032017
1.27600,15.24187543
1.27650,16.15745866
1.27700,17.07304188
1.27750,18.29381951
1.27800,17.37823629
1.27850,13.7159034
1.27900,7.612015242
1.27950,1.20293268
1.28000,-4.290566658
1.28050,-6.73212192
1.28100,-4.900955474
1.28150,-1.238622581
1.28200,0.2873494573
1.28250,0.592543865
1.28300,1.813321496
1.28350,5.475654388
1.28400,9.137987281
1.28450,11.27434813
1.28500,11.27434813
1.28550,9.748376096
1.28600,6.696432019
1.28650,3.644487942
1.28700,2.423710311
1.28750,3.644487942
1.28800,4.560071165
1.28850,3.94968235
1.28900,3.339293534
1.28950,3.034099127
1.29000,2.118515904
1.29050,-0.01784495038
1.29100,-2.459400212
1.29150,-3.98537225
1.29200,-3.98537225
1.29250,-3.98537225
1.29300,-5.206149881
1.29350,-7.952899551
1.29400,-11.00484363
1.29450,-13.44639889
1.29500,-14.66717652
1.29550,-13.7515933
1.29600,-11.92042685
1.29650,-9.478871589
1.29700,-8.258093958
1.29750,-7.952899551
1.29800,-8.563288366
1.29850,-8.563288366
1.29900,-7.952899551
1.29950,-7.037316328
1.30000,-5.206149881
1.30050,-2.154205804
1.30100,-0.01784495038
1.30150,-0.01784495038
1.30200,-1.238622581
1.30250,-1.238622581
1.30300,0.8977382727
1.30350,3.94968235
1.30400,5.475654388
1.30450,4.560071165
1.30500,2.423710311
1.30550,0.2873494573
1.30600,-0.01784495038
1.30650,0.592543865
1.30700,0.2873494573
1.30750,-2.154205804
1.30800,-5.206149881
1.30850,-5.206149881
1.30900,-3.069789027
1.30950,-1.543816989
1.31000,-2.154205804
1.31050,-1.849011397
1.31100,-0.3230393581
1.31150,-0.01784495038
1.31200,-1.543816989
1.31250,-4.290566658
1.31300,-5.511344289
1.31350,-6.121733104
1.31400,-6.426927512
1.31450,-5.511344289
1.31500,-3.374983435
1.31550,-0.9334281735
1.31600,-0.01784495038
1.31650,1.20293268
1.31700,2.423710311
1.31750,2.728904719
1.31800,1.813321496
1.31850,0.592543865
1.31900,0.592543865
1.31950,-0.01784495038
1.32000,-2.154205804
1.32050,-4.900955474
1.32100,-6.426927512
1.32150,-6.121733104
1.32200,-4.900955474
1.32250,-3.680177843
1.32300,-3.069789027
1.32350,-3.374983435
1.32400,-3.98537225
1.32450,-3.680177843
1.32500,-2.154205804
1.32550,-0.3230393581
1.32600,0.8977382727
1.32650,2.728904719
1.32700,5.475654388
1.32750,8.222404058
1.32800,9.443181688
1.32850,8.832792873
1.32900,7.91720965
1.32950,8.832792873
1.33000,11.57954254
1.33050,14.0210978
1.33100,14.63148662
1.33150,13.41070899
1.33200,12.49512577
1.33250,13.10551458
1.33300,14.0210978
1.33350,14.63148662
1.33400,15.54706984
1.33450,16.76784747
1.33500,18.29381951
1.33550,19.81979155
1.33600,20.73537477
1.33650,20.43018037
1.33700,18.59901392
1.33750,16.46265307
1.33800,15.24187543
1.33850,14.93668103
1.33900,12.80032017
1.33950,7.612015242
1.34000,1.813321496
1.34050,-2.154205804
1.34100,-5.511344289
1.34150,-8.258093958
1.34200,-8.258093958
1.34250,-5.511344289
1.34300,-3.680177843
1.34350,-5.816538697
1.34400,-8.868482774
1.34450,-9.173677181
1.34500,-7.037316328
1.34550,-7.037316328
1.34600,-9.478871589
1.34650,-9.784065997
1.34700,-7.647705143
1.34750,-7.647705143
1.34800,-12.53081567
1.34850,-16.49834297
1.34900,-14.97237093
1.34950,-10.39445481
1.35000,-7.037316328
1.35050,-5.206149881
1.35100,-1.849011397
1.35150,0.8977382727
1.35200,-0.6282337658
1.35250,-6.73212192
1.35300,-11.31003804
1.35350,-10.0892604
1.35400,-7.037316328
1.35450,-5.206149881
1.35500,-4.290566658
1.35550,-2.459400212
1.35600,-0.9334281735
1.35650,-1.543816989
1.35700,-3.374983435
1.35750,-3.98537225
1.35800,-4.595761066
1.35850,-8.563288366
1.35900,-15.58275974
1.35950,-21.07625908
1.36000,-20.77106467
1.36050,-15.58275974
1.36100,-11.31003804
1.36150,-9.784065997
1.36200,-8.563288366
1.36250,-5.511344289
1.36300,-3.374983435
1.36350,-4.595761066
1.36400,-8.563288366
1.36450,-12.22562126
1.36500,-14.66717652
1.36550,-16.80353737
1.36600,-18.93989823
1.36650,-19.85548145
1.36700,-19.24509264
1.36750,-18.93989823
1.36800,-19.24509264
1.36850,-18.93989823
1.36900,-17.7191206
1.36950,-15.27756534
1.37000,-12.83601007
1.37050,-10.0892604
1.37100,-6.73212192
1.37150,-3.98537225
1.37200,-2.76459462
1.37250,-2.76459462
1.37300,-3.069789027
1.37350,-2.76459462
1.37400,-2.459400212
1.37450,-2.459400212
1.37500,-2.154205804
1.37550,-0.9334281735
1.37600,0.2873494573
1.37650,0.592543865
1.37700,-0.6282337658
1.37750,-1.543816989
1.37800,-0.6282337658
1.37850,0.592543865
1.37900,0.592543865
1.37950,-0.01784495038
1.38000,-0.01784495038
1.38050,2.118515904
1.38100,3.644487942
1.38150,2.728904719
1.38200,2.423710311
1.38250,4.865265573
1.38300,8.222404058
1.38350,9.748376096
1.38400,8.832792873
1.38450,8.222404058
1.38500,10.0535705
1.38550,12.49512577
1.38600,14.32629221
1.38650,14.93668103
1.38700,15.54706984
1.38750,16.46265307
1.38800,17.07304188
1.38850,16.76784747
1.38900,15.85226425
1.38950,15.24187543
1.39000,15.24187543
1.39050,16.15745866
1.39100,16.76784747
1.39150,16.76784747
1.39200,17.07304188
1.39250,18.90420833
1.39300,21.9561524
1.39350,24.09251326
1.39400,24.09251326
1.39450,23.17693003
1.39500,23.17693003
1.39550,24.09251326
1.39600,24.09251326
1.39650,22.87173563
1.39700,21.34576359
1.39750,21.04056918
1.39800,20.73537477
1.39850,19.20940273
1.39900,17.6834307
1.39950,18.59901392
1.40000,21.04056918
1.40050,22.56654122
1.40100,22.56654122
1.40150,23.17693003
1.40200,24.70290207
1.40250,25.00809648
1.40300,21.650958
1.40350,15.54706984
1.40400,7.91720965
1.40450,1.813321496
1.40500,-1.543816989
1.40550,-2.459400212
1.40600,-2.459400212
1.40650,-4.595761066
1.40700,-8.563288366
1.40750,-10.39445481
1.40800,-9.478871589
1.40850,-9.478871589
1.40900,-14.36198211
1.40950,-22.29703671
1.41000,-29.31650809
1.41050,-33.28403539
1.41100,-35.42039624
1.41150,-36.33597947
1.41200,-35.42039624
1.41250,-32.36845217
1.41300,-28.40092487
1.41350,-25.6541752
1.41400,-23.51781434
1.41450,-22.29703671
1.41500,-23.21261994
1.41550,-24.43339757
1.41600,-23.51781434
1.41650,-19.55028704
1.41700,-15.27756534
1.41750,-14.0567877
1.41800,-14.36198211
1.41850,-12.53081567
1.41900,-8.868482774
1.41950,-6.121733104
1.42000,-4.900955474
1.42050,-2.76459462
1.42100,1.508127088
1.42150,6.086043204
1.42200,7.306820834
1.42250,4.865265573
1.42300,1.20293268
1.42350,-0.6282337658
1.42400,-1.238622581
1.42450,-0.6282337658
1.42500,-0.6282337658
1.42550,-1.543816989
1.42600,-3.680177843
1.42650,-6.121733104
1.42700,-7.647705143
1.42750,-8.258093958
1.42800,-8.868482774
1.42850,-9.478871589
1.42900,-10.39445481
1.42950,-12.22562126
1.43000,-14.0567877
1.43050,-14.97237093
1.43100,-14.0567877
1.43150,-12.83601007
1.43200,-12.53081567
1.43250,-12.53081567
1.43300,-11.61523244
1.43350,-10.39445481
1.43400,-10.0892604
1.43450,-11.31003804
1.43500,-11.61523244
1.43550,-9.784065997
1.43600,-7.037316328
1.43650,-4.900955474
1.43700,-4.290566658
1.43750,-3.374983435
1.43800,-1.543816989
1.43850,0.8977382727
1.43900,2.423710311
1.43950,3.034099127
1.44000,3.034099127
1.44050,3.034099127
1.44100,3.034099127
1.44150,3.339293534
1.44200,3.644487942
1.44250,4.560071165
1.44300,5.170459981
1.44350,5.170459981
1.44400,4.865265573
1.44450,4.560071165
1.44500,3.94968235
1.44550,2.728904719
1.44600,1.508127088
1.44650,-0.01784495038
1.44700,-1.543816989
1.44750,-3.069789027
1.44800,-2.154205804
1.44850,-0.01784495038
1.44900,2.423710311
1.44950,3.339293534
1.45000,3.339293534
1.45050,3.339293534
1.45100,3.339293534
1.45150,3.339293534
1.45200,3.339293534
1.45250,3.034099127
1.45300,1.20293268
1.45350,-0.9334281735
1.45400,-1.543816989
1.45450,-0.9334281735
1.45500,-0.9334281735
1.45550,-2.154205804
1.45600,-3.374983435
1.45650,-3.680177843
1.45700,-4.595761066
1.45750,-5.816538697
1.45800,-7.037316328
1.45850,-7.647705143
1.45900,-8.258093958
1.45950,-8.563288366
1.46000,-7.647705143
1.46050,-6.73212192
1.46100,-7.342510735
1.46150,-9.173677181
1.46200,-9.478871589
1.46250,-8.563288366
1.46300,-7.952899551
1.46350,-7.952899551
1.46400,-7.037316328
1.46450,-4.595761066
1.46500,-3.374983435
1.46550,-3.98537225
1.46600,-4.900955474
1.46650,-4.595761066
1.46700,-3.98537225
1.46750,-3.374983435
1.46800,-2.459400212
1.46850,-1.543816989
1.46900,-0.9334281735
1.46950,-0.3230393581
1.47000,0.8977382727
1.47050,2.728904719
1.47100,4.254876757
1.47150,4.865265573
1.47200,4.560071165
1.47250,3.94968235
1.47300,3.94968235
1.47350,4.865265573
1.47400,7.001626427
1.47450,9.443181688
1.47500,11.57954254
1.47550,13.10551458
1.47600,14.0210978
1.47650,13.10551458
1.47700,12.18993136
1.47750,13.41070899
1.47800,15.85226425
1.47850,17.6834307
1.47900,17.07304188
1.47950,16.76784747
1.48000,17.6834307
1.48050,18.90420833
1.48100,18.90420833
1.48150,17.6834307
1.48200,15.85226425
1.48250,12.80032017
1.48300,9.748376096
1.48350,8.832792873
1.48400,10.0535705
1.48450,9.748376096
1.48500,7.91720965
1.48550,6.086043204
1.48600,6.696432019
1.48650,7.001626427
1.48700,6.086043204
1.48750,4.865265573
1.48800,3.644487942
1.48850,1.508127088
1.48900,-2.154205804
1.48950,-4.900955474
1.49000,-3.98537225
1.49050,-1.543816989
1.49100,-1.238622581
1.49150,-3.374983435
1.49200,-5.816538697
1.49250,-7.647705143
1.49300,-9.478871589
1.49350,-11.92042685
1.49400,-12.22562126
1.49450,-10.0892604
1.49500,-6.121733104
1.49550,-2.76459462
1.49600,-0.3230393581
1.49650,2.423710311
1.49700,6.391237611
1.49750,10.66395932
1.49800,12.49512577
1.49850,11.88473695
1.49900,10.96915373
1.49950,11.57954254
1.50000,14.0210978
1.50050,15.54706984
1.50100,15.24187543
1.50150,12.80032017
1.50200,7.91720965
1.50250,1.813321496
1.50300,-3.98537225
1.50350,-10.0892604
1.50400,-15.88795415
1.50450,-20.77106467
1.50500,-23.21261994
1.50550,-22.60223112
1.50600,-21.38145349
1.50650,-20.77106467
1.50700,-19.24509264
1.50750,-16.49834297
1.50800,-14.0567877
1.50850,-13.7515933
1.50900,-12.83601007
1.50950,-10.39445481
1.51000,-7.952899551
1.51050,-7.952899551
1.51100,-8.868482774
1.51150,-7.037316328
1.51200,-3.374983435
1.51250,-0.6282337658
1.51300,-0.01784495038
1.51350,1.508127088
1.51400,3.94968235
1.51450,4.865265573
1.51500,3.94968235
1.51550,2.423710311
1.51600,1.20293268
1.51650,-0.01784495038
1.51700,-0.01784495038
1.51750,1.508127088
1.51800,4.865265573
1.51850,5.780848796
1.51900,3.94968235
1.51950,2.118515904
1.52000,1.508127088
1.52050,0.8977382727
1.52100,-0.01784495038
1.52150,0.592543865
1.52200,2.728904719
1.52250,3.644487942
1.52300,1.813321496
1.52350,0.8977382727
1.52400,2.728904719
1.52450,5.475654388
1.52500,6.391237611
1.52550,6.696432019
1.52600,7.91720965
1.52650,9.137987281
1.52700,9.443181688
1.52750,9.748376096
1.52800,10.96915373
1.52850,12.18993136
1.52900,12.80032017
1.52950,12.80032017
1.53000,12.49512577
1.53050,11.88473695
1.53100,11.88473695
1.53150,13.10551458
1.53200,14.63148662
1.53250,14.0210978
1.53300,12.18993136
1.53350,12.18993136
1.53400,14.63148662
1.53450,16.76784747
1.53500,17.07304188
1.53550,17.6834307
1.53600,19.20940273
1.53650,19.81979155
1.53700,19.51459714
1.53750,20.43018037
1.53800,23.78731885
1.53850,27.14445734
1.53900,28.06004056
1.53950,26.83926293
1.54000,25.6184853
1.54050,25.00809648
1.54100,23.17693003
1.54150,21.34576359
1.54200,20.12498596
1.54250,20.12498596
1.54300,20.43018037
1.54350,21.04056918
1.54400,21.04056918
1.54450,19.20940273
1.54500,15.24187543
1.54550,10.66395932
1.54600,6.391237611
1.54650,2.118515904
1.54700,-3.069789027
1.54750,-9.173677181
1.54800,-15.58275974
1.54850,-21.07625908
1.54900,-25.34898079
1.54950,-28.09573046
1.55000,-28.70611927
1.55050,-26.87495283
1.55100,-23.21261994
1.55150,-18.93989823
1.55200,-16.19314856
1.55250,-14.97237093
1.55300,-13.14120448
1.55350,-10.0892604
1.55400,-6.426927512
1.55450,-3.069789027
1.55500,0.592543865
1.55550,5.475654388
1.55600,8.832792873
1.55650,9.443181688
1.55700,9.137987281
1.55750,9.748376096
1.55800,10.0535705
1.55850,8.832792873
1.55900,7.91720965
1.55950,8.527598465
1.56000,9.443181688
1.56050,8.832792873
1.56100,7.306820834
1.56150,6.696432019
1.56200,6.391237611
1.56250,4.865265573
1.56300,3.644487942
1.56350,4.865265573
1.56400,7.306820834
1.56450,7.91720965
1.56500,6.391237611
1.56550,6.086043204
1.56600,7.612015242
1.56650,8.832792873
1.56700,8.527598465
1.56750,7.91720965
1.56800,6.391237611
1.56850,3.339293534
1.56900,-0.6282337658
1.56950,-2.459400212
1.57000,-1.238622581
1.57050,0.2873494573
1.57100,1.20293268
1.57150,2.423710311
1.57200,4.254876757
1.57250,5.170459981
1.57300,4.254876757
1.57350,2.728904719
1.57400,2.728904719
1.57450,2.728904719
1.57500,1.508127088
1.57550,0.592543865
1.57600,1.20293268
1.57650,2.728904719
1.57700,2.423710311
1.57750,-0.01784495038
1.57800,-1.543816989
1.57850,-0.9334281735
1.57900,0.592543865
1.57950,1.20293268
1.58000,-0.01784495038
1.58050,-0.9334281735
1.58100,0.2873494573
1.58150,4.254876757
1.58200,7.001626427
1.58250,7.001626427
1.58300,5.170459981
1.58350,3.644487942
1.58400,2.728904719
1.58450,1.508127088
1.58500,-0.9334281735
1.58550,-3.98537225
1.58600,-6.121733104
1.58650,-7.647705143
1.58700,-9.478871589
1.58750,-11.00484363
1.58800,-11.92042685
1.58850,-11.61523244
1.58900,-11.61523244
1.58950,-11.61523244
1.59000,-11.00484363
1.59050,-9.478871589
1.59100,-7.342510735
1.59150,-5.206149881
1.59200,-2.76459462
1.59250,-0.3230393581
1.59300,1.508127088
1.59350,2.728904719
1.59400,3.339293534
1.59450,4.560071165
1.59500,6.086043204
1.59550,7.306820834
1.59600,7.612015242
1.59650,7.306820834
1.59700,6.696432019
1.59750,7.001626427
1.59800,7.306820834
1.59850,7.001626427
1.59900,5.780848796
1.59950,5.475654388
1.60000,6.391237611
1.60050,8.527598465
1.60100,10.0535705
1.60150,10.0535705
1.60200,10.35876491
1.60250,11.88473695
1.60300,14.93668103
1.60350,17.37823629
1.60400,17.9886251
1.60450,16.76784747
1.60500,14.32629221
1.60550,11.57954254
1.60600,8.832792873
1.60650,6.086043204
1.60700,4.560071165
1.60750,3.339293534
1.60800,2.728904719
1.60850,2.423710311
1.60900,2.423710311
1.60950,2.118515904
1.61000,0.8977382727
1.61050,-0.01784495038
1.61100,-0.6282337658
1.61150,-2.154205804
1.61200,-4.595761066
1.61250,-7.647705143
1.61300,-9.478871589
1.61350,-10.39445481
1.61400,-11.00484363
1.61450,-12.22562126
1.61500,-13.44639889
1.61550,-14.97237093
1.61600,-15.88795415
1.61650,-15.88795415
1.61700,-14.36198211
1.61750,-13.7515933
1.61800,-15.27756534
1.61850,-16.80353737
1.61900,-15.88795415
1.61950,-13.14120448
1.62000,-11.31003804
1.62050,-11.00484363
1.62100,-9.784065997
1.62150,-7.952899551
1.62200,-7.037316328
1.62250,-7.037316328
1.62300,-6.426927512
1.62350,-5.206149881
1.62400,-4.900955474
1.62450,-5.206149881
1.62500,-3.680177843
1.62550,-0.6282337658
1.62600,0.592543865
1.62650,-0.01784495038
1.62700,-0.9334281735
1.62750,-0.3230393581
1.62800,0.2873494573
1.62850,0.2873494573
1.62900,0.2873494573
1.62950,1.20293268
1.63000,2.728904719
1.63050,3.644487942
1.63100,3.94968235
1.63150,4.254876757
1.63200,3.034099127
1.63250,0.2873494573
1.63300,-2.154205804
1.63350,-4.290566658
1.63400,-6.426927512
1.63450,-7.342510735
1.63500,-6.121733104
1.63550,-3.069789027
1.63600,-0.6282337658
1.63650,-0.6282337658
1.63700,-1.849011397
1.63750,-1.238622581
1.63800,-0.01784495038
1.63850,-0.01784495038
1.63900,-0.9334281735
1.63950,-2.154205804
1.64000,-2.76459462
1.64050,-4.900955474
1.64100,-8.563288366
1.64150,-11.00484363
1.64200,-10.69964922
1.64250,-8.868482774
1.64300,-7.647705143
1.64350,-7.952899551
1.64400,-7.647705143
1.64450,-5.816538697
1.64500,-3.680177843
1.64550,-1.849011397
1.64600,-0.9334281735
1.64650,-0.6282337658
1.64700,-0.6282337658
1.64750,-0.9334281735
1.64800,-1.238622581
1.64850,-3.069789027
1.64900,-4.900955474
1.64950,-6.121733104
1.65000,-6.121733104
1.65050,-6.121733104
1.65100,-6.426927512
1.65150,-5.816538697
1.65200,-4.290566658
1.65250,-3.069789027
1.65300,-3.374983435
1.65350,-4.595761066
1.65400,-5.206149881
1.65450,-5.206149881
1.65500,-5.816538697
1.65550,-7.037316328
1.65600,-7.342510735
1.65650,-7.037316328
1.65700,-7.037316328
1.65750,-6.73212192
1.65800,-5.511344289
1.65850,-3.98537225
1.65900,-3.374983435
1.65950,-3.374983435
1.66000,-3.374983435
1.66050,-3.069789027
1.66100,-3.680177843
1.66150,-4.290566658
1.66200,-3.98537225
1.66250,-3.069789027
1.66300,-3.374983435
1.66350,-4.290566658
1.66400,-3.069789027
1.66450,-0.3230393581
1.66500,-0.01784495038
1.66550,-1.849011397
1.66600,-3.680177843
1.66650,-2.76459462
1.66700,-1.238622581
1.66750,-1.543816989
1.66800,-1.849011397
1.66850,-0.01784495038
1.66900,2.423710311
1.66950,4.254876757
1.67000,4.254876757
1.67050,4.254876757
1.67100,4.560071165
1.67150,4.560071165
1.67200,3.644487942
1.67250,3.644487942
1.67300,4.254876757
1.67350,5.170459981
1.67400,5.170459981
1.67450,4.560071165
1.67500,3.339293534
1.67550,2.118515904
1.67600,2.118515904
1.67650,3.034099127
1.67700,4.254876757
1.67750,4.254876757
1.67800,3.94968235
1.67850,5.170459981
1.67900,7.612015242
1.67950,9.748376096
1.68000,10.96915373
1.68050,11.57954254
1.68100,10.96915373
1.68150,9.443181688
1.68200,7.612015242
1.68250,6.391237611
1.68300,5.170459981
1.68350,2.118515904
1.68400,-4.595761066
1.68450,-13.14120448
1.68500,-19.55028704
1.68550,-21.9918423
1.68600,-21.9918423
1.68650,-22.60223112
1.68700,-24.12820316
1.68750,-25.34898079
1.68800,-26.26456401
1.68850,-26.56975842
1.68900,-25.6541752
1.68950,-23.51781434
1.69000,-20.16067586
1.69050,-16.80353737
1.69100,-13.7515933
1.69150,-11.61523244
1.69200,-11.61523244
1.69250,-12.83601007
1.69300,-14.0567877
1.69350,-13.44639889
1.69400,-12.22562126
1.69450,-12.22562126
1.69500,-13.7515933
1.69550,-14.66717652
1.69600,-14.36198211
1.69650,-13.7515933
1.69700,-14.0567877
1.69750,-14.97237093
1.69800,-14.0567877
1.69850,-12.83601007
1.69900,-12.22562126
1.69950,-12.83601007
1.70000,-13.44639889
1.70050,-13.14120448
1.70100,-12.83601007
1.70150,-11.61523244
1.70200,-9.784065997
1.70250,-7.647705143
1.70300,-7.342510735
1.70350,-8.258093958
1.70400,-8.563288366
1.70450,-7.037316328
1.70500,-5.511344289
1.70550,-5.206149881
1.70600,-6.121733104
1.70650,-5.816538697
1.70700,-4.290566658
1.70750,-2.459400212
1.70800,-1.543816989
1.70850,-1.543816989
1.70900,-1.849011397
1.70950,-1.849011397
1.71000,-0.3230393581
1.71050,0.8977382727
1.71100,1.508127088
1.71150,1.508127088
1.71200,1.20293268
1.71250,1.508127088
1.71300,0.8977382727
1.71350,0.2873494573
1.71400,-0.01784495038
1.71450,-0.01784495038
1.71500,0.8977382727
1.71550,1.813321496
1.71600,2.423710311
1.71650,2.728904719
1.71700,2.118515904
1.71750,1.20293268
1.71800,-0.01784495038
1.71850,-1.543816989
1.71900,-1.849011397
1.71950,-0.3230393581
1.72000,2.728904719
1.72050,5.170459981
1.72100,5.780848796
1.72150,5.780848796
1.72200,6.696432019
1.72250,7.306820834
1.72300,7.001626427
1.72350,6.391237611
1.72400,7.001626427
1.72450,7.612015242
1.72500,6.086043204
1.72550,3.034099127
1.72600,0.8977382727
1.72650,0.8977382727
1.72700,2.118515904
1.72750,3.339293534
1.72800,5.170459981
1.72850,7.001626427
1.72900,7.91720965
1.72950,7.612015242
1.73000,7.001626427
1.73050,6.391237611
1.73100,6.391237611
1.73150,6.086043204
1.73200,6.696432019
1.73250,7.306820834
1.73300,6.696432019
1.73350,5.170459981
1.73400,4.560071165
1.73450,4.560071165
1.73500,3.94968235
1.73550,3.034099127
1.73600,3.034099127
1.73650,4.560071165
1.73700,6.086043204
1.73750,6.086043204
1.73800,5.475654388
1.73850,5.170459981
1.73900,5.475654388
1.73950,5.170459981
1.74000,4.560071165
1.74050,3.339293534
1.74100,2.118515904
1.74150,0.8977382727
1.74200,-0.3230393581
1.74250,-1.849011397
1.74300,-2.154205804
1.74350,-1.849011397
1.74400,-0.6282337658
1.74450,-0.01784495038
1.74500,-0.01784495038
1.74550,-0.01784495038
1.74600,0.2873494573
1.74650,0.592543865
1.74700,0.2873494573
1.74750,-0.01784495038
1.74800,-0.6282337658
1.74850,-0.9334281735
1.74900,-1.849011397
1.74950,-3.374983435
1.75000,-5.206149881
1.75050,-6.73212192
1.75100,-7.647705143
1.75150,-7.647705143
1.75200,-7.342510735
1.75250,-7.647705143
1.75300,-8.563288366
1.75350,-10.0892604
1.75400,-10.0892604
1.75450,-8.868482774
1.75500,-7.342510735
1.75550,-7.342510735
1.75600,-9.173677181
1.75650,-11.61523244
1.75700,-12.83601007
1.75750,-12.22562126
1.75800,-10.69964922
1.75850,-9.478871589
1.75900,-9.478871589
1.75950,-9.478871589
1.76000,-7.952899551
1.76050,-5.511344289
1.76100,-3.374983435
1.76150,-1.849011397
1.76200,-1.238622581
1.76250,-0.9334281735
1.76300,-0.9334281735
1.76350,-0.6282337658
1.76400,0.2873494573
1.76450,1.813321496
1.76500,3.339293534
1.76550,5.170459981
1.76600,7.306820834
1.76650,8.527598465
1.76700,9.137987281
1.76750,9.748376096
1.76800,10.0535705
1.76850,10.35876491
1.76900,10.66395932
1.76950,11.27434813
1.77000,12.80032017
1.77050,14.93668103
1.77100,17.37823629
1.77150,19.20940273
1.77200,19.51459714
1.77250,19.20940273
1.77300,19.81979155
1.77350,22.87173563
1.77400,26.22887411
1.77450,27.44965174
1.77500,26.53406852
1.77550,25.31329089
1.77600,24.09251326
1.77650,21.04056918
1.77700,15.24187543
1.77750,8.527598465
1.77800,4.254876757
1.77850,2.423710311
1.77900,1.508127088
1.77950,1.20293268
1.78000,0.2873494573
1.78050,-1.543816989
1.78100,-4.595761066
1.78150,-7.342510735
1.78200,-8.563288366
1.78250,-9.478871589
1.78300,-10.69964922
1.78350,-11.61523244
1.78400,-11.00484363
1.78450,-9.478871589
1.78500,-8.868482774
1.78550,-8.258093958
1.78600,-6.73212192
1.78650,-4.595761066
1.78700,-2.76459462
1.78750,-1.849011397
1.78800,-2.459400212
1.78850,-3.374983435
1.78900,-4.290566658
1.78950,-4.595761066
1.79000,-4.290566658
1.79050,-3.680177843
1.79100,-3.680177843
1.79150,-3.680177843
1.79200,-3.680177843
1.79250,-4.595761066
1.79300,-5.511344289
1.79350,-5.511344289
1.79400,-3.680177843
1.79450,-0.9334281735
1.79500,0.8977382727
1.79550,2.423710311
1.79600,3.339293534
1.79650,3.644487942
1.79700,3.034099127
1.79750,2.118515904
1.79800,2.423710311
1.79850,2.728904719
1.79900,2.118515904
1.79950,0.8977382727
1.80000,0.8977382727
1.80050,2.118515904
1.80100,3.339293534
1.80150,3.644487942
1.80200,3.94968235
1.80250,5.170459981
1.80300,5.780848796
1.80350,5.780848796
1.80400,5.475654388
1.80450,6.391237611
1.80500,7.001626427
1.80550,5.780848796
1.80600,4.560071165
1.80650,5.780848796
1.80700,8.832792873
1.80750,10.35876491
1.80800,9.748376096
1.80850,9.137987281
1.80900,8.832792873
1.80950,7.306820834
1.81000,3.94968235
1.81050,0.2873494573
1.81100,-2.154205804
1.81150,-4.595761066
1.81200,-6.121733104
1.81250,-4.900955474
1.81300,-1.238622581
1.81350,0.8977382727
1.81400,0.8977382727
1.81450,0.592543865
1.81500,2.423710311
1.81550,5.475654388
1.81600,5.780848796
1.81650,3.339293534
1.81700,1.20293268
1.81750,-0.01784495038
1.81800,-1.238622581
1.81850,-3.374983435
1.81900,-5.206149881
1.81950,-7.037316328
1.82000,-8.258093958
1.82050,-8.258093958
1.82100,-6.73212192
1.82150,-4.900955474
1.82200,-4.290566658
1.82250,-3.680177843
1.82300,-1.543816989
1.82350,1.20293268
1.82400,2.118515904
1.82450,-0.01784495038
1.82500,-3.374983435
1.82550,-6.121733104
1.82600,-8.868482774
1.82650,-12.22562126
1.82700,-14.66717652
1.82750,-14.66717652
1.82800,-12.53081567
1.82850,-11.31003804
1.82900,-11.61523244
1.82950,-11.61523244
1.83000,-11.00484363
1.83050,-9.784065997
1.83100,-9.784065997
1.83150,-10.69964922
1.83200,-11.31003804
1.83250,-11.61523244
1.83300,-12.53081567
1.83350,-14.97237093
1.83400,-17.7191206
1.83450,-19.85548145
1.83500,-21.07625908
1.83550,-21.38145349
1.83600,-19.85548145
1.83650,-16.80353737
1.83700,-12.83601007
1.83750,-8.563288366
1.83800,-5.206149881
1.83850,-2.459400212
1.83900,-0.01784495038
1.83950,1.508127088
1.84000,2.423710311
1.84050,3.94968235
1.84100,6.696432019
1.84150,9.748376096
1.84200,11.27434813
1.84250,10.96915373
1.84300,9.748376096
1.84350,10.0535705
1.84400,11.88473695
1.84450,14.63148662
1.84500,17.9886251
1.84550,22.26134681
1.84600,25.9236797
1.84650,27.44965174
1.84700,26.83926293
1.84750,25.6184853
1.84800,24.39770767
1.84850,23.17693003
1.84900,22.26134681
1.84950,22.56654122
1.85000,25.00809648
1.85050,27.75484615
1.85100,29.5860126
1.85150,30.19640141
1.85200,30.80679023
1.85250,31.41717904
1.85300,29.5860126
1.85350,25.00809648
1.85400,19.81979155
1.85450,16.15745866
1.85500,14.32629221
1.85550,13.10551458
1.85600,12.18993136
1.85650,12.49512577
1.85700,14.32629221
1.85750,15.85226425
1.85800,16.76784747
1.85850,16.76784747
1.85900,16.76784747
1.85950,15.85226425
1.86000,13.41070899
1.86050,10.0535705
1.86100,6.696432019
1.86150,3.644487942
1.86200,0.2873494573
1.86250,-3.374983435
1.86300,-7.037316328
1.86350,-8.258093958
1.86400,-8.258093958
1.86450,-8.868482774
1.86500,-10.39445481
1.86550,-11.61523244
1.86600,-11.61523244
1.86650,-11.92042685
1.86700,-12.53081567
1.86750,-12.53081567
1.86800,-11.31003804
1.86850,-9.173677181
1.86900,-7.952899551
1.86950,-7.647705143
1.87000,-6.73212192
1.87050,-5.511344289
1.87100,-4.900955474
1.87150,-5.206149881
1.87200,-4.595761066
1.87250,-3.069789027
1.87300,-1.238622581
1.87350,-0.6282337658
1.87400,-1.238622581
1.87450,-2.459400212
1.87500,-3.374983435
1.87550,-4.290566658
1.87600,-4.900955474
1.87650,-5.511344289
1.87700,-6.121733104
1.87750,-6.121733104
1.87800,-5.511344289
1.87850,-4.290566658
1.87900,-3.069789027
1.87950,-1.543816989
1.88000,0.2873494573
1.88050,1.813321496
1.88100,1.20293268
1.88150,-0.01784495038
1.88200,-0.3230393581
1.88250,0.2873494573
1.88300,0.8977382727
1.88350,0.2873494573
1.88400,0.2873494573
1.88450,0.8977382727
1.88500,1.20293268
1.88550,-0.01784495038
1.88600,-1.543816989
1.88650,-0.9334281735
1.88700,-0.01784495038
1.88750,-0.6282337658
1.88800,-2.76459462
1.88850,-4.595761066
1.88900,-4.900955474
1.88950,-5.511344289
1.89000,-6.121733104
1.89050,-6.73212192
1.89100,-7.037316328
1.89150,-7.037316328
1.89200,-7.342510735
1.89250,-8.258093958
1.89300,-9.173677181
1.89350,-10.39445481
1.89400,-11.31003804
1.89450,-12.53081567
1.89500,-13.44639889
1.89550,-14.0567877
1.89600,-13.44639889
1.89650,-11.31003804
1.89700,-8.868482774
1.89750,-6.426927512
1.89800,-4.900955474
1.89850,-4.290566658
1.89900,-5.206149881
1.89950,-6.121733104
1.90000,-4.595761066
1.90050,-1.543816989
1.90100,-0.01784495038
1.90150,-1.238622581
1.90200,-2.154205804
1.90250,-0.01784495038
1.90300,2.423710311
1.90350,4.254876757
1.90400,5.475654388
1.90450,6.086043204
1.90500,5.475654388
1.90550,2.728904719
1.90600,-0.01784495038
1.90650,-0.01784495038
1.90700,2.728904719
1.90750,4.865265573
1.90800,5.780848796
1.90850,7.001626427
1.90900,8.222404058
1.90950,7.001626427
1.91000,4.254876757
1.91050,2.728904719
1.91100,3.339293534
1.91150,3.94968235
1.91200,2.728904719
1.91250,1.20293268
1.91300,0.592543865
1.91350,0.592543865
1.91400,-0.01784495038
1.91450,-0.6282337658
1.91500,-1.543816989
1.91550,-2.154205804
1.91600,-2.154205804
1.91650,-1.849011397
1.91700,-1.849011397
1.91750,-2.459400212
1.91800,-3.680177843
1.91850,-3.98537225
1.91900,-3.374983435
1.91950,-2.459400212
1.92000,-1.238622581
1.92050,-0.01784495038
1.92100,0.2873494573
1.92150,0.2873494573
1.92200,1.508127088
1.92250,4.865265573
1.92300,8.527598465
1.92350,10.35876491
1.92400,10.35876491
1.92450,10.0535705
1.92500,10.35876491
1.92550,9.748376096
1.92600,7.91720965
1.92650,6.391237611
1.92700,6.696432019
1.92750,8.832792873
1.92800,11.57954254
1.92850,13.41070899
1.92900,14.0210978
1.92950,14.63148662
1.93000,15.85226425
1.93050,17.37823629
1.93100,17.9886251
1.93150,18.90420833
1.93200,21.34576359
1.93250,24.39770767
1.93300,26.83926293
1.93350,27.75484615
1.93400,27.75484615
1.93450,27.75484615
1.93500,26.83926293
1.93550,25.6184853
1.93600,25.00809648
1.93650,25.00809648
1.93700,24.09251326
1.93750,20.73537477
1.93800,17.37823629
1.93850,16.76784747
1.93900,18.59901392
1.93950,19.20940273
1.94000,17.6834307
1.94050,14.63148662
1.94100,11.88473695
1.94150,9.137987281
1.94200,5.475654388
1.94250,1.508127088
1.94300,-1.238622581
1.94350,-5.206149881
1.94400,-10.69964922
1.94450,-17.10873178
1.94500,-23.21261994
1.94550,-29.01131368
1.94600,-34.81000743
1.94650,-41.21908999
1.94700,-47.01778374
1.94750,-50.37492222
1.94800,-50.98531104
1.94850,-49.459339
1.94900,-47.62817255
1.94950,-46.40739492
1.95000,-44.88142288
1.95050,-43.35545084
1.95100,-42.13467321
1.95150,-41.5242844
1.95200,-41.5242844
1.95250,-42.13467321
1.95300,-42.43986762
1.95350,-42.74506203
1.95400,-42.13467321
1.95450,-40.30350677
1.95500,-38.77753473
1.95550,-37.86195151
1.95600,-36.03078506
1.95650,-32.67364657
1.95700,-29.6217025
1.95750,-27.79053605
1.95800,-25.6541752
1.95850,-21.38145349
1.95900,-16.80353737
1.95950,-14.66717652
1.96000,-14.36198211
1.96050,-11.92042685
1.96100,-7.952899551
1.96150,-5.206149881
1.96200,-3.680177843
1.96250,-0.01784495038
1.96300,5.780848796
1.96350,9.137987281
1.96400,10.96915373
1.96450,18.90420833
1.96500,33.24834549
1.96550,43.31976094
1.96600,39.96262246
1.96650,28.06004056
1.96700,19.81979155
1.96750,18.59901392
1.96800,17.9886251
1.96850,14.32629221
1.96900,10.96915373
1.96950,10.0535705
1.97000,10.0535705
1.97050,8.527598465
1.97100,7.001626427
1.97150,8.222404058
1.97200,10.0535705
1.97250,9.748376096
1.97300,7.612015242
1.97350,5.780848796
1.97400,5.475654388
1.97450,5.475654388
1.97500,4.865265573
1.97550,4.254876757
1.97600,4.254876757
1.97650,4.254876757
1.97700,3.94968235
1.97750,3.644487942
1.97800,5.170459981
1.97850,7.306820834
1.97900,8.222404058
1.97950,6.696432019
1.98000,4.865265573
1.98050,4.560071165
1.98100,4.560071165
1.98150,3.034099127
1.98200,1.508127088
1.98250,1.813321496
1.98300,3.644487942
1.98350,4.560071165
1.98400,5.170459981
1.98450,8.222404058
1.98500,13.41070899
1.98550,18.59901392
1.98600,22.26134681
1.98650,25.00809648
1.98700,27.44965174
1.98750,28.06004056
1.98800,27.44965174
1.98850,27.75484615
1.98900,28.67042937
1.98950,29.28081819
1.99000,28.36523497
1.99050,27.14445734
1.99100,26.83926293
1.99150,26.22887411
1.99200,24.70290207
1.99250,23.78731885
1.99300,25.31329089
1.99350,27.44965174
1.99400,28.06004056
1.99450,28.06004056
1.99500,29.5860126
1.99550,32.63795667
1.99600,34.77431753
1.99650,34.46912312
1.99700,32.94315108
1.99750,30.50159582
1.99800,26.83926293
1.99850,21.9561524
1.99900,17.07304188
1.99950,12.18993136
2.00000,6.086043204
2.00050,-0.6282337658
2.00100,-4.595761066
2.00150,-4.900955474
2.00200,-4.595761066
2.00250,-7.342510735
2.00300,-12.83601007
2.00350,-18.32950941
2.00400,-22.90742553
2.00450,-27.79053605
2.00500,-31.75806335
2.00550,-33.28403539
2.00600,-32.67364657
2.00650,-32.97884098
2.00700,-33.89442421
2.00750,-32.97884098
2.00800,-31.45286894
2.00850,-33.5892298
2.00900,-40.30350677
2.00950,-47.32297814
2.01000,-52.20608867
2.01050,-55.86842156
2.01100,-59.83594886
2.01150,-62.27750412
2.01200,-61.3619209
2.01250,-57.3943936
2.01300,-51.59569985
2.01350,-44.27103407
2.01400,-35.72559065
2.01450,-29.6217025
2.01500,-27.48534164
2.01550,-25.95936961
2.01600,-21.6866479
2.01650,-14.97237093
2.01700,-7.952899551
2.01750,-2.76459462
2.01800,-0.01784495038
2.01850,0.592543865
2.01900,-0.3230393581
2.01950,0.8977382727
2.02000,8.832792873
2.02050,20.73537477
2.02100,28.97562378
2.02150,25.6184853
2.02200,9.748376096
2.02250,-11.00484363
2.02300,-25.6541752
2.02350,-23.51781434
2.02400,-5.511344289
2.02450,14.32629221
2.02500,20.73537477
2.02550,10.66395932
2.02600,-3.98537225
2.02650,-12.83601007
2.02700,-15.27756534
2.02750,-17.10873178
2.02800,-18.93989823
2.02850,-17.7191206
2.02900,-14.0567877
2.02950,-11.92042685
2.03000,-12.53081567
2.03050,-13.14120448
2.03100,-12.53081567
2.03150,-11.92042685
2.03200,-11.92042685
2.03250,-11.61523244
2.03300,-9.173677181
2.03350,-6.121733104
2.03400,-3.374983435
2.03450,-1.849011397
2.03500,-0.6282337658
2.03550,-0.01784495038
2.03600,-0.01784495038
2.03650,-0.9334281735
2.03700,-2.459400212
2.03750,-5.511344289
2.03800,-7.647705143
2.03850,-6.426927512
2.03900,-0.01784495038
2.03950,9.137987281
2.04000,16.46265307
2.04050,18.59901392
2.04100,15.85226425
2.04150,10.66395932
2.04200,4.865265573
2.04250,-0.9334281735
2.04300,-6.121733104
2.04350,-9.478871589
2.04400,-10.69964922
2.04450,-9.478871589
2.04500,-7.342510735
2.04550,-4.900955474
2.04600,-2.459400212
2.04650,-0.6282337658
2.04700,0.8977382727
2.04750,3.339293534
2.04800,5.475654388
2.04850,6.696432019
2.04900,7.306820834
2.04950,8.527598465
2.05000,11.88473695
2.05050,15.85226425
2.05100,17.6834307
2.05150,16.76784747
2.05200,15.54706984
2.05250,15.54706984
2.05300,16.15745866
2.05350,17.37823629
2.05400,18.29381951
2.05450,19.20940273
2.05500,19.51459714
2.05550,19.20940273
2.05600,19.20940273
2.05650,19.20940273
2.05700,19.20940273
2.05750,18.90420833
2.05800,18.29381951
2.05850,16.76784747
2.05900,13.7159034
2.05950,9.443181688
2.06000,5.475654388
2.06050,1.508127088
2.06100,-2.459400212
2.06150,-5.816538697
2.06200,-7.952899551
2.06250,-8.868482774
2.06300,-10.0892604
2.06350,-11.31003804
2.06400,-12.83601007
2.06450,-16.19314856
2.06500,-21.6866479
2.06550,-26.56975842
2.06600,-28.70611927
2.06650,-30.84248013
2.06700,-36.94636828
2.06750,-47.01778374
2.06800,-56.47881038
2.06850,-62.27750412
2.06900,-65.02425379
2.06950,-65.63464261
2.07000,-65.63464261
2.07050,-66.24503142
2.07100,-68.99178109
2.07150,-71.12814194
2.07200,-70.21255872
2.07250,-65.63464261
2.07300,-59.22556004
2.07350,-50.68011663
2.07400,-38.77753473
2.07450,-26.56975842
2.07500,-21.6866479
2.07550,-26.87495283
2.07600,-36.33597947
2.07650,-41.82947881
2.07700,-41.5242844
2.07750,-36.94636828
2.07800,-30.84248013
2.07850,-21.9918423
2.07900,-8.868482774
2.07950,6.391237611
2.08000,19.20940273
2.08050,23.48212444
2.08100,18.59901392
2.08150,9.748376096
2.08200,4.560071165
2.08250,5.475654388
2.08300,8.527598465
2.08350,10.66395932
2.08400,11.57954254
2.08450,12.80032017
2.08500,14.63148662
2.08550,15.24187543
2.08600,14.63148662
2.08650,14.93668103
2.08700,16.76784747
2.08750,19.20940273
2.08800,20.12498596
2.08850,19.20940273
2.08900,17.9886251
2.08950,18.29381951
2.09000,20.12498596
2.09050,21.9561524
2.09100,22.56654122
2.09150,22.26134681
2.09200,21.34576359
2.09250,21.04056918
2.09300,22.26134681
2.09350,24.70290207
2.09400,26.83926293
2.09450,27.14445734
2.09500,26.53406852
2.09550,26.22887411
2.09600,26.22887411
2.09650,25.00809648
2.09700,23.17693003
2.09750,22.26134681
2.09800,22.56654122
2.09850,23.17693003
2.09900,22.87173563
2.09950,22.87173563
2.10000,22.87173563
2.10050,22.56654122
2.10100,22.56654122
2.10150,24.70290207
2.10200,27.75484615
2.10250,29.28081819
2.10300,28.36523497
2.10350,27.44965174
2.10400,28.36523497
2.10450,30.19640141
2.10500,32.63795667
2.10550,34.16392871
2.10600,32.02756786
2.10650,25.31329089
2.10700,16.76784747
2.10750,12.18993136
2.10800,12.80032017
2.10850,14.32629221
2.10900,13.41070899
2.10950,10.96915373
2.11000,10.0535705
2.11050,9.443181688
2.11100,8.527598465
2.11150,9.443181688
2.11200,13.41070899
2.11250,18.59901392
2.11300,21.34576359
2.11350,22.26134681
2.11400,22.56654122
2.11450,23.48212444
2.11500,24.09251326
2.11550,24.70290207
2.11600,25.9236797
2.11650,26.83926293
2.11700,26.83926293
2.11750,26.53406852
2.11800,26.22887411
2.11850,26.22887411
2.11900,26.53406852
2.11950,27.44965174
2.12000,28.36523497
2.12050,27.75484615
2.12100,25.9236797
2.12150,25.00809648
2.12200,26.22887411
2.12250,27.75484615
2.12300,28.06004056
2.12350,27.75484615
2.12400,27.75484615
2.12450,28.36523497
2.12500,28.97562378
2.12550,29.5860126
2.12600,30.80679023
2.12650,31.41717904
2.12700,31.72237345
2.12750,31.41717904
2.12800,30.50159582
2.12850,29.28081819
2.12900,28.97562378
2.12950,31.72237345
2.13000,35.99509516
2.13050,37.21587279
2.13100,32.33276227
2.13150,24.39770767
2.13200,17.37823629
2.13250,13.7159034
2.13300,14.63148662
2.13350,20.12498596
2.13400,29.891207
2.13450,38.74184483
2.13500,39.35223364
2.13550,32.02756786
2.13600,22.87173563
2.13650,20.43018037
2.13700,25.6184853
2.13750,35.99509516
2.13800,47.89767706
2.13850,57.96909251
2.13900,60.10545337
2.13950,48.81326028
2.14000,27.14445734
2.14050,6.086043204
2.14100,-3.98537225
2.14150,-5.206149881
2.14200,-4.595761066
2.14250,-6.426927512
2.14300,-8.258093958
2.14350,-8.258093958
2.14400,-8.258093958
2.14450,-11.00484363
2.14500,-15.58275974
2.14550,-20.77106467
2.14600,-26.26456401
2.14650,-30.53728572
2.14700,-31.75806335
2.14750,-29.92689691
2.14800,-28.40092487
2.14850,-29.01131368
2.14900,-29.31650809
2.14950,-27.79053605
2.15000,-26.87495283
2.15050,-27.48534164
2.15100,-26.26456401
2.15150,-21.9918423
2.15200,-19.24509264
2.15250,-21.9918423
2.15300,-27.18014724
2.15350,-31.45286894
2.15400,-34.19961861
2.15450,-34.50481302
2.15500,-29.92689691
2.15550,-20.16067586
2.15600,-11.92042685
2.15650,-7.647705143
2.15700,-0.9334281735
2.15750,8.832792873
2.15800,11.88473695
2.15850,3.644487942
2.15900,2.118515904
2.15950,26.22887411
2.16000,65.2937583
2.16050,84.82620039
2.16100,68.34570237
2.16150,36.30028957
2.16200,17.07304188
2.16250,13.7159034
2.16300,10.35876491
2.16350,-1.238622581
2.16400,-15.27756534
2.16450,-23.82300875
2.16500,-25.04378638
2.16550,-20.16067586
2.16600,-13.14120448
2.16650,-12.22562126
2.16700,-25.34898079
2.16750,-44.57622847
2.16800,-46.40739492
2.16850,-16.49834297
2.16900,31.41717904
2.16950,65.2937583
2.17000,65.59895271
2.17050,39.04703924
2.17100,7.306820834
2.17150,-15.88795415
2.17200,-29.01131368
2.17250,-34.50481302
2.17300,-35.11520184
2.17350,-34.19961861
2.17400,-32.36845217
2.17450,-26.87495283
2.17500,-16.19314856
2.17550,-5.816538697
2.17600,-2.154205804
2.17650,-2.154205804
2.17700,3.339293534
2.17750,16.15745866
2.17800,26.53406852
2.17850,25.9236797
2.17900,15.54706984
2.17950,3.644487942
2.18000,-5.206149881
2.18050,-9.478871589
2.18100,-9.478871589
2.18150,-6.121733104
2.18200,-4.595761066
2.18250,-7.037316328
2.18300,-12.53081567
2.18350,-16.80353737
2.18400,-17.7191206
2.18450,-15.58275974
2.18500,-12.22562126
2.18550,-9.173677181
2.18600,-7.952899551
2.18650,-7.952899551
2.18700,-7.952899551
2.18750,-6.73212192
2.18800,-4.290566658
2.18850,-1.238622581
2.18900,0.592543865
2.18950,0.8977382727
2.19000,0.592543865
2.19050,0.8977382727
2.19100,2.728904719
2.19150,3.644487942
2.19200,3.034099127
2.19250,2.728904719
2.19300,4.560071165
2.19350,7.612015242
2.19400,9.443181688
2.19450,10.66395932
2.19500,13.10551458
2.19550,15.85226425
2.19600,16.76784747
2.19650,15.85226425
2.19700,14.0210978
2.19750,12.80032017
2.19800,11.88473695
2.19850,10.66395932
2.19900,8.832792873
2.19950,7.91720965
2.20000,7.91720965
2.20050,7.91720965
2.20100,8.222404058
2.20150,9.137987281
2.20200,10.35876491
2.20250,12.80032017
2.20300,16.15745866
2.20350,19.20940273
2.20400,22.87173563
2.20450,27.75484615
2.20500,32.02756786
2.20550,33.24834549
2.20600,31.41717904
2.20650,28.36523497
2.20700,24.70290207
2.20750,19.81979155
2.20800,15.24187543
2.20850,12.49512577
2.20900,11.27434813
2.20950,9.137987281
2.21000,4.865265573
2.21050,2.118515904
2.21100,3.339293534
2.21150,7.001626427
2.21200,9.443181688
2.21250,10.0535705
2.21300,9.443181688
2.21350,8.527598465
2.21400,7.306820834
2.21450,6.696432019
2.21500,5.170459981
2.21550,-0.01784495038
2.21600,-8.563288366
2.21650,-17.41392619
2.21700,-24.43339757
2.21750,-30.53728572
2.21800,-37.5567571
2.21850,-43.66064525
2.21900,-47.32297814
2.21950,-50.68011663
2.22000,-56.17361597
2.22050,-62.88789294
2.22100,-67.46580905
2.22150,-70.21255872
2.22200,-73.87489161
2.22250,-78.45280773
2.22300,-80.89436299
2.22350,-81.1995574
2.22400,-81.50475181
2.22450,-84.86189029
2.22500,-89.134612
2.22550,-91.27097285
2.22600,-88.52422318
2.22650,-81.80994621
2.22700,-73.2645028
2.22750,-65.3294482
2.22800,-58.61517123
2.22850,-53.12167189
2.22900,-48.84895018
2.22950,-44.88142288
2.23000,-41.21908999
2.23050,-37.86195151
2.23100,-33.5892298
2.23150,-29.92689691
2.23200,-27.79053605
2.23250,-26.87495283
2.23300,-25.34898079
2.23350,-21.9918423
2.23400,-18.024315
2.23450,-14.66717652
2.23500,-12.53081567
2.23550,-9.784065997
2.23600,-5.206149881
2.23650,-1.238622581
2.23700,0.8977382727
2.23750,2.118515904
2.23800,3.034099127
2.23850,4.254876757
2.23900,4.560071165
2.23950,4.254876757
2.24000,4.865265573
2.24050,6.391237611
2.24100,7.91720965
2.24150,8.527598465
2.24200,8.222404058
2.24250,7.306820834
2.24300,5.780848796
2.24350,3.644487942
2.24400,2.423710311
2.24450,3.339293534
2.24500,5.780848796
2.24550,7.91720965
2.24600,9.137987281
2.24650,9.748376096
2.24700,10.96915373
2.24750,11.57954254
2.24800,11.27434813
2.24850,10.35876491
2.24900,10.35876491
2.24950,10.35876491
2.25000,10.0535705
2.25050,8.832792873
2.25100,8.222404058
2.25150,8.832792873
2.25200,11.27434813
2.25250,14.32629221
2.25300,17.37823629
2.25350,18.90420833
2.25400,18.59901392
2.25450,17.6834307
2.25500,17.9886251
2.25550,18.59901392
2.25600,17.6834307
2.25650,14.0210978
2.25700,9.748376096
2.25750,7.306820834
2.25800,6.391237611
2.25850,6.696432019
2.25900,8.222404058
2.25950,11.57954254
2.26000,15.85226425
2.26050,17.9886251
2.26100,18.59901392
2.26150,19.20940273
2.26200,19.81979155
2.26250,19.51459714
2.26300,17.6834307
2.26350,15.24187543
2.26400,14.32629221
2.26450,13.7159034
2.26500,12.80032017
2.26550,11.27434813
2.26600,9.443181688
2.26650,7.91720965
2.26700,6.696432019
2.26750,6.696432019
2.26800,7.306820834
2.26850,7.001626427
2.26900,5.780848796
2.26950,5.780848796
2.27000,7.001626427
2.27050,7.306820834
2.27100,5.170459981
2.27150,2.118515904
2.27200,-0.9334281735
2.27250,-3.98537225
2.27300,-6.426927512
2.27350,-6.426927512
2.27400,-3.374983435
2.27450,0.592543865
2.27500,1.813321496
2.27550,-0.9334281735
2.27600,-6.73212192
2.27650,-11.00484363
2.27700,-12.22562126
2.27750,-12.53081567
2.27800,-14.97237093
2.27850,-19.55028704
2.27900,-25.04378638
2.27950,-30.84248013
2.28000,-37.86195151
2.28050,-45.4918117
2.28100,-52.51128308
2.28150,-58.92036564
2.28200,-64.71905938
2.28250,-68.38139228
2.28300,-68.38139228
2.28350,-64.41386498
2.28400,-58.92036564
2.28450,-54.34244952
2.28500,-49.459339
2.28550,-43.66064525
2.28600,-38.77753473
2.28650,-36.33597947
2.28700,-35.72559065
2.28750,-34.81000743
2.28800,-32.97884098
2.28850,-29.92689691
2.28900,-25.6541752
2.28950,-19.85548145
2.29000,-14.0567877
2.29050,-10.0892604
2.29100,-7.342510735
2.29150,-4.595761066
2.29200,-0.3230393581
2.29250,4.254876757
2.29300,8.527598465
2.29350,11.27434813
2.29400,13.10551458
2.29450,14.0210978
2.29500,15.54706984
2.29550,17.9886251
2.29600,21.04056918
2.29650,24.09251326
2.29700,25.9236797
2.29750,25.00809648
2.29800,21.650958
2.29850,18.29381951
2.29900,17.6834307
2.29950,19.51459714
2.30000,20.12498596
2.30050,17.07304188
2.30100,12.18993136
2.30150,8.222404058
2.30200,6.086043204
2.30250,3.94968235
2.30300,0.2873494573
2.30350,-2.459400212
2.30400,-3.069789027
2.30450,-1.849011397
2.30500,-0.3230393581
2.30550,-0.01784495038
2.30600,-0.01784495038
2.30650,-0.3230393581
2.30700,-1.238622581
2.30750,-2.154205804
2.30800,-2.154205804
2.30850,-0.01784495038
2.30900,3.94968235
2.30950,7.612015242
2.31000,8.222404058
2.31050,5.170459981
2.31100,0.592543865
2.31150,-0.3230393581
2.31200,1.20293268
2.31250,3.339293534
2.31300,3.034099127
2.31350,1.20293268
2.31400,-0.3230393581
2.31450,-0.9334281735
2.31500,-0.01784495038
2.31550,1.508127088
2.31600,3.94968235
2.31650,5.170459981
2.31700,5.780848796
2.31750,7.91720965
2.31800,13.41070899
2.31850,20.43018037
2.31900,25.9236797
2.31950,29.5860126
2.32000,32.02756786
2.32050,32.94315108
2.32100,32.33276227
2.32150,31.11198464
2.32200,29.28081819
2.32250,26.53406852
2.32300,23.48212444
2.32350,21.9561524
2.32400,22.26134681
2.32450,22.87173563
2.32500,23.17693003
2.32550,25.6184853
2.32600,28.97562378
2.32650,29.891207
2.32700,25.9236797
2.32750,18.90420833
2.32800,13.10551458
2.32850,8.527598465
2.32900,3.339293534
2.32950,-2.459400212
2.33000,-9.784065997
2.33050,-19.55028704
2.33100,-32.97884098
2.33150,-48.84895018
2.33200,-62.88789294
2.33250,-71.73853076
2.33300,-75.09566924
2.33350,-72.95930839
2.33400,-67.46580905
2.33450,-60.44633768
2.33500,-54.03725511
2.33550,-48.84895018
2.33600,-43.96583966
2.33650,-39.69311795
2.33700,-35.72559065
2.33750,-32.97884098
2.33800,-31.75806335
2.33850,-31.75806335
2.33900,-32.36845217
2.33950,-32.36845217
2.34000,-32.97884098
2.34050,-33.5892298
2.34100,-33.5892298
2.34150,-31.45286894
2.34200,-28.40092487
2.34250,-25.04378638
2.34300,-19.55028704
2.34350,-11.61523244
2.34400,-3.069789027
2.34450,2.423710311
2.34500,6.086043204
2.34550,9.748376096
2.34600,14.0210978
2.34650,18.90420833
2.34700,24.09251326
2.34750,28.06004056
2.34800,28.97562378
2.34850,26.53406852
2.34900,25.00809648
2.34950,28.06004056
2.35000,34.46912312
2.35050,40.57301127
2.35100,46.37170502
2.35150,53.69637081
2.35200,60.71584218
2.35250,63.76778626
2.35300,61.93661981
2.35350,58.27428692
2.35400,53.3911764
2.35450,46.67689943
2.35500,38.43665042
2.35550,31.72237345
2.35600,26.22887411
2.35650,19.51459714
2.35700,10.35876491
2.35750,2.118515904
2.35800,-3.680177843
2.35850,-7.647705143
2.35900,-10.39445481
2.35950,-11.00484363
2.36000,-8.868482774
2.36050,-7.037316328
2.36100,-7.342510735
2.36150,-9.784065997
2.36200,-14.97237093
2.36250,-22.90742553
2.36300,-32.06325776
2.36350,-38.77753473
2.36400,-43.35545084
2.36450,-47.32297814
2.36500,-50.68011663
2.36550,-50.06972781
2.36600,-44.27103407
2.36650,-36.64117387
2.36700,-32.67364657
2.36750,-32.97884098
2.36800,-35.72559065
2.36850,-38.77753473
2.36900,-39.38792354
2.36950,-36.64117387
2.37000,-31.45286894
2.37050,-27.79053605
2.37100,-28.40092487
2.37150,-31.14767454
2.37200,-30.84248013
2.37250,-25.6541752
2.37300,-18.63470382
2.37350,-13.14120448
2.37400,-9.784065997
2.37450,-6.73212192
2.37500,-2.76459462
2.37550,1.20293268
2.37600,5.475654388
2.37650,9.748376096
2.37700,13.41070899
2.37750,16.46265307
2.37800,19.51459714
2.37850,22.26134681
2.37900,24.70290207
2.37950,26.83926293
2.38000,28.97562378
2.38050,31.11198464
2.38100,32.02756786
2.38150,30.50159582
2.38200,28.06004056
2.38250,27.75484615
2.38300,28.97562378
2.38350,28.67042937
2.38400,26.53406852
2.38450,25.31329089
2.38500,25.9236797
2.38550,26.53406852
2.38600,25.00809648
2.38650,22.56654122
2.38700,21.04056918
2.38750,19.51459714
2.38800,17.6834307
2.38850,16.76784747
2.38900,17.9886251
2.38950,20.12498596
2.39000,21.04056918
2.39050,20.12498596
2.39100,18.59901392
2.39150,16.76784747
2.39200,15.85226425
2.39250,17.6834307
2.39300,21.650958
2.39350,24.39770767
2.39400,21.650958
2.39450,14.32629221
2.39500,6.696432019
2.39550,2.423710311
2.39600,0.592543865
2.39650,-0.3230393581
2.39700,-2.459400212
2.39750,-5.206149881
2.39800,-7.342510735
2.39850,-8.258093958
2.39900,-7.952899551
2.39950,-7.342510735
2.40000,-7.037316328
2.40050,-5.816538697
2.40100,-3.069789027
2.40150,-0.3230393581
2.40200,1.20293268
2.40250,2.728904719
2.40300,4.254876757
2.40350,5.475654388
2.40400,5.475654388
2.40450,4.865265573
2.40500,4.865265573
2.40550,6.696432019
2.40600,9.137987281
2.40650,11.27434813
2.40700,12.18993136
2.40750,11.27434813
2.40800,9.748376096
2.40850,9.748376096
2.40900,11.88473695
2.40950,15.24187543
2.41000,19.51459714
2.41050,24.39770767
2.41100,29.5860126
2.41150,34.16392871
2.41200,37.21587279
2.41250,39.65742805
2.41300,42.40417772
2.41350,44.84573298
2.41400,46.67689943
2.41450,47.28728824
2.41500,47.59248265
2.41550,48.50806587
2.41600,49.7288435
2.41650,50.94962114
2.41700,51.56000995
2.41750,50.64442673
2.41800,48.20287147
2.41850,45.7613162
2.41900,44.84573298
2.41950,45.15092739
2.42000,44.84573298
2.42050,44.23534417
2.42100,44.84573298
2.42150,47.89767706
2.42200,50.94962114
2.42250,50.03403791
2.42300,44.23534417
2.42350,36.91067838
2.42400,31.11198464
2.42450,25.31329089
2.42500,17.9886251
2.42550,9.137987281
2.42600,2.118515904
2.42650,-1.238622581
2.42700,-5.511344289
2.42750,-13.44639889
2.42800,-23.82300875
2.42850,-32.97884098
2.42900,-39.08272914
2.42950,-42.74506203
2.43000,-43.96583966
2.43050,-40.60870117
2.43100,-34.50481302
2.43150,-29.6217025
2.43200,-29.01131368
2.43250,-29.92689691
2.43300,-30.23209131
2.43350,-30.23209131
2.43400,-32.67364657
2.43450,-35.11520184
2.43500,-34.50481302
2.43550,-31.75806335
2.43600,-30.23209131
2.43650,-31.45286894
2.43700,-33.89442421
2.43750,-36.94636828
2.43800,-39.38792354
2.43850,-38.16714591
2.43900,-31.75806335
2.43950,-23.82300875
2.44000,-20.46587027
2.44050,-22.29703671
2.44100,-25.34898079
2.44150,-27.48534164
2.44200,-29.01131368
2.44250,-28.70611927
2.44300,-25.34898079
2.44350,-20.46587027
2.44400,-18.63470382
2.44450,-20.77106467
2.44500,-23.82300875
2.44550,-23.51781434
2.44600,-20.16067586
2.44650,-16.19314856
2.44700,-12.53081567
2.44750,-10.0892604
2.44800,-9.173677181
2.44850,-7.952899551
2.44900,-3.98537225
2.44950,1.813321496
2.45000,7.001626427
2.45050,9.137987281
2.45100,8.832792873
2.45150,7.001626427
2.45200,5.170459981
2.45250,3.94968235
2.45300,4.560071165
2.45350,5.475654388
2.45400,4.560071165
2.45450,3.034099127
2.45500,1.813321496
2.45550,-0.01784495038
2.45600,-3.374983435
2.45650,-5.511344289
2.45700,-3.680177843
2.45750,-0.3230393581
2.45800,-0.01784495038
2.45850,-2.154205804
2.45900,-3.069789027
2.45950,-2.154205804
2.46000,-1.849011397
2.46050,-3.374983435
2.46100,-3.98537225
2.46150,-3.98537225
2.46200,-5.511344289
2.46250,-9.173677181
2.46300,-12.53081567
2.46350,-13.44639889
2.46400,-12.53081567
2.46450,-10.39445481
2.46500,-6.121733104
2.46550,-0.9334281735
2.46600,1.508127088
2.46650,1.508127088
2.46700,3.339293534
2.46750,8.832792873
2.46800,15.85226425
2.46850,21.650958
2.46900,26.53406852
2.46950,30.80679023
2.47000,32.94315108
2.47050,30.80679023
2.47100,26.83926293
2.47150,25.6184853
2.47200,28.36523497
2.47250,32.33276227
2.47300,34.46912312
2.47350,33.5535399
2.47400,31.41717904
2.47450,29.5860126
2.47500,28.06004056
2.47550,25.9236797
2.47600,21.34576359
2.47650,15.24187543
2.47700,9.443181688
2.47750,6.391237611
2.47800,7.001626427
2.47850,9.748376096
2.47900,11.88473695
2.47950,12.49512577
2.48000,11.57954254
2.48050,10.66395932
2.48100,10.35876491
2.48150,10.35876491
2.48200,9.748376096
2.48250,8.222404058
2.48300,6.696432019
2.48350,5.475654388
2.48400,3.644487942
2.48450,0.8977382727
2.48500,-2.459400212
2.48550,-6.121733104
2.48600,-8.868482774
2.48650,-10.39445481
2.48700,-10.69964922
2.48750,-10.69964922
2.48800,-9.478871589
2.48850,-7.037316328
2.48900,-3.98537225
2.48950,-2.154205804
2.49000,-2.154205804
2.49050,-0.9334281735
2.49100,2.423710311
2.49150,5.780848796
2.49200,6.391237611
2.49250,5.475654388
2.49300,5.780848796
2.49350,7.306820834
2.49400,8.222404058
2.49450,9.748376096
2.49500,13.41070899
2.49550,19.20940273
2.49600,22.56654122
2.49650,21.9561524
2.49700,19.51459714
2.49750,18.90420833
2.49800,19.51459714
2.49850,20.43018037
2.49900,21.650958
2.49950,24.39770767
2.50000,28.06004056
2.50050,31.11198464
2.50100,31.72237345
2.50150,29.28081819
2.50200,24.70290207
2.50250,19.51459714
2.50300,13.7159034
2.50350,7.306820834
2.50400,-0.01784495038
2.50450,-6.73212192
2.50500,-9.478871589
2.50550,-7.037316328
2.50600,-3.374983435
2.50650,-3.069789027
2.50700,-7.342510735
2.50750,-12.53081567
2.50800,-14.66717652
2.50850,-13.7515933
2.50900,-14.36198211
2.50950,-17.7191206
2.51000,-21.6866479
2.51050,-22.60223112
2.51100,-21.07625908
2.51150,-21.07625908
2.51200,-25.04378638
2.51250,-32.67364657
2.51300,-39.69311795
2.51350,-43.05025644
2.51400,-41.82947881
2.51450,-37.86195151
2.51500,-34.81000743
2.51550,-33.5892298
2.51600,-32.67364657
2.51650,-32.67364657
2.51700,-35.72559065
2.51750,-41.5242844
2.51800,-46.71258933
2.51850,-47.93336696
2.51900,-46.10220051
2.51950,-42.74506203
2.52000,-38.16714591
2.52050,-30.84248013
2.52100,-22.60223112
2.52150,-15.27756534
2.52200,-7.952899551
2.52250,0.2873494573
2.52300,8.527598465
2.52350,14.0210978
2.52400,16.76784747
2.52450,19.51459714
2.52500,22.26134681
2.52550,23.17693003
2.52600,22.26134681
2.52650,21.9561524
2.52700,21.9561524
2.52750,19.51459714
2.52800,13.41070899
2.52850,7.306820834
2.52900,3.94968235
2.52950,3.339293534
2.53000,5.170459981
2.53050,9.748376096
2.53100,15.24187543
2.53150,17.9886251
2.53200,17.6834307
2.53250,16.46265307
2.53300,15.85226425
2.53350,14.93668103
2.53400,13.41070899
2.53450,12.18993136
2.53500,11.57954254
2.53550,9.137987281
2.53600,3.94968235
2.53650,-0.01784495038
2.53700,-0.6282337658
2.53750,0.592543865
2.53800,1.813321496
2.53850,2.728904719
2.53900,5.170459981
2.53950,7.612015242
2.54000,9.137987281
2.54050,10.35876491
2.54100,12.80032017
2.54150,14.32629221
2.54200,12.18993136
2.54250,5.780848796
2.54300,-1.849011397
2.54350,-8.868482774
2.54400,-14.0567877
2.54450,-17.41392619
2.54500,-19.85548145
2.54550,-21.6866479
2.54600,-22.90742553
2.54650,-22.29703671
2.54700,-21.07625908
2.54750,-21.07625908
2.54800,-21.9918423
2.54850,-20.77106467
2.54900,-16.19314856
2.54950,-11.31003804
2.55000,-9.478871589
2.55050,-8.563288366
2.55100,-5.816538697
2.55150,-0.9334281735
2.55200,3.339293534
2.55250,7.612015242
2.55300,12.18993136
2.55350,17.07304188
2.55400,19.81979155
2.55450,20.12498596
2.55500,18.90420833
2.55550,17.07304188
2.55600,14.32629221
2.55650,12.18993136
2.55700,11.57954254
2.55750,12.80032017
2.55800,14.32629221
2.55850,15.24187543
2.55900,16.76784747
2.55950,18.90420833
2.56000,20.43018037
2.56050,21.34576359
2.56100,22.56654122
2.56150,24.09251326
2.56200,25.6184853
2.56250,26.22887411
2.56300,25.31329089
2.56350,22.56654122
2.56400,18.29381951
2.56450,14.63148662
2.56500,13.10551458
2.56550,13.10551458
2.56600,10.96915373
2.56650,7.001626427
2.56700,2.423710311
2.56750,-0.3230393581
2.56800,-2.459400212
2.56850,-4.290566658
2.56900,-5.206149881
2.56950,-4.900955474
2.57000,-5.206149881
2.57050,-7.037316328
2.57100,-9.173677181
2.57150,-11.00484363
2.57200,-12.22562126
2.57250,-12.83601007
2.57300,-13.14120448
2.57350,-14.36198211
2.57400,-18.024315
2.57450,-23.21261994
2.57500,-27.18014724
2.57550,-26.26456401
2.57600,-21.07625908
2.57650,-13.7515933
2.57700,-6.121733104
2.57750,-0.6282337658
2.57800,0.8977382727
2.57850,-0.01784495038
2.57900,-1.238622581
2.57950,-2.76459462
2.58000,-4.290566658
2.58050,-7.037316328
2.58100,-8.258093958
2.58150,-6.426927512
2.58200,-2.154205804
2.58250,2.423710311
2.58300,6.696432019
2.58350,10.66395932
2.58400,13.10551458
2.58450,14.63148662
2.58500,16.46265307
2.58550,18.59901392
2.58600,17.6834307
2.58650,12.80032017
2.58700,7.001626427
2.58750,3.644487942
2.58800,1.20293268
2.58850,-2.459400212
2.58900,-5.816538697
2.58950,-4.900955474
2.59000,-0.9334281735
2.59050,-0.3230393581
2.59100,-5.206149881
2.59150,-10.39445481
2.59200,-11.61523244
2.59250,-8.868482774
2.59300,-6.121733104
2.59350,-4.290566658
2.59400,-4.290566658
2.59450,-7.952899551
2.59500,-15.88795415
2.59550,-23.51781434
2.59600,-26.26456401
2.59650,-25.95936961
2.59700,-26.87495283
2.59750,-29.92689691
2.59800,-31.45286894
2.59850,-30.53728572
2.59900,-28.40092487
2.59950,-25.95936961
2.60000,-22.29703671
2.60050,-16.80353737
2.60100,-11.31003804
2.60150,-5.816538697
2.60200,0.2873494573
2.60250,6.696432019
2.60300,10.35876491
2.60350,11.27434813
2.60400,11.88473695
2.60450,12.49512577
2.60500,11.88473695
2.60550,10.0535705
2.60600,9.443181688
2.60650,12.18993136
2.60700,16.15745866
2.60750,19.51459714
2.60800,23.17693003
2.60850,27.14445734
2.60900,29.891207
2.60950,28.97562378
2.61000,25.31329089
2.61050,22.56654122
2.61100,21.04056918
2.61150,19.81979155
2.61200,18.59901392
2.61250,17.37823629
2.61300,15.54706984
2.61350,11.27434813
2.61400,5.780848796
2.61450,1.20293268
2.61500,-0.6282337658
2.61550,-1.849011397
2.61600,-2.76459462
2.61650,-4.290566658
2.61700,-5.206149881
2.61750,-3.98537225
2.61800,-0.9334281735
2.61850,2.118515904
2.61900,4.254876757
2.61950,5.170459981
2.62000,5.780848796
2.62050,6.391237611
2.62100,4.560071165
2.62150,1.20293268
2.62200,-0.6282337658
2.62250,-0.3230393581
2.62300,-0.01784495038
2.62350,-1.849011397
2.62400,-3.98537225
2.62450,-3.680177843
2.62500,-1.849011397
2.62550,-2.76459462
2.62600,-6.73212192
2.62650,-11.31003804
2.62700,-14.36198211
2.62750,-15.88795415
2.62800,-16.80353737
2.62850,-18.024315
2.62900,-20.46587027
2.62950,-24.12820316
2.63000,-26.56975842
2.63050,-26.26456401
2.63100,-23.51781434
2.63150,-22.90742553
2.63200,-26.56975842
2.63250,-32.36845217
2.63300,-36.64117387
2.63350,-36.94636828
2.63400,-34.50481302
2.63450,-29.92689691
2.63500,-22.90742553
2.63550,-14.97237093
2.63600,-9.784065997
2.63650,-10.69964922
2.63700,-14.97237093
2.63750,-17.41392619
2.63800,-15.58275974
2.63850,-12.53081567
2.63900,-11.61523244
2.63950,-11.61523244
2.64000,-10.69964922
2.64050,-7.952899551
2.64100,-5.206149881
2.64150,-3.069789027
2.64200,-0.9334281735
2.64250,-0.6282337658
2.64300,-2.154205804
2.64350,-3.98537225
2.64400,-2.459400212
2.64450,1.20293268
2.64500,4.865265573
2.64550,5.475654388
2.64600,3.339293534
2.64650,1.508127088
2.64700,1.20293268
2.64750,2.118515904
2.64800,2.118515904
2.64850,-0.6282337658
2.64900,-4.595761066
2.64950,-6.426927512
2.65000,-5.511344289
2.65050,-5.511344289
2.65100,-10.69964922
2.65150,-19.55028704
2.65200,-26.26456401
2.65250,-27.48534164
2.65300,-25.6541752
2.65350,-23.82300875
2.65400,-22.90742553
2.65450,-21.9918423
2.65500,-20.77106467
2.65550,-19.55028704
2.65600,-16.80353737
2.65650,-13.14120448
2.65700,-9.784065997
2.65750,-9.173677181
2.65800,-10.0892604
2.65850,-8.868482774
2.65900,-5.816538697
2.65950,-3.680177843
2.66000,-4.290566658
2.66050,-6.73212192
2.66100,-7.952899551
2.66150,-8.563288366
2.66200,-9.784065997
2.66250,-11.61523244
2.66300,-12.22562126
2.66350,-12.22562126
2.66400,-12.53081567
2.66450,-13.7515933
2.66500,-14.36198211
2.66550,-14.97237093
2.66600,-15.88795415
2.66650,-15.58275974
2.66700,-12.22562126
2.66750,-6.73212192
2.66800,-2.459400212
2.66850,-1.238622581
2.66900,-0.9334281735
2.66950,0.2873494573
2.67000,3.339293534
2.67050,5.780848796
2.67100,6.696432019
2.67150,5.475654388
2.67200,3.644487942
2.67250,3.339293534
2.67300,5.780848796
2.67350,9.137987281
2.67400,10.96915373
2.67450,10.35876491
2.67500,8.527598465
2.67550,6.696432019
2.67600,4.254876757
2.67650,2.118515904
2.67700,1.508127088
2.67750,2.118515904
2.67800,2.118515904
2.67850,0.8977382727
2.67900,-0.3230393581
2.67950,-2.154205804
2.68000,-4.595761066
2.68050,-6.73212192
2.68100,-7.037316328
2.68150,-7.037316328
2.68200,-8.868482774
2.68250,-11.00484363
2.68300,-9.784065997
2.68350,-5.816538697
2.68400,-1.543816989
2.68450,0.8977382727
2.68500,3.339293534
2.68550,6.696432019
2.68600,9.137987281
2.68650,9.443181688
2.68700,8.222404058
2.68750,7.612015242
2.68800,7.612015242
2.68850,7.612015242
2.68900,7.306820834
2.68950,5.170459981
2.69000,0.592543865
2.69050,-3.98537225
2.69100,-7.952899551
2.69150,-10.0892604
2.69200,-9.784065997
2.69250,-6.426927512
2.69300,-0.9334281735
2.69350,3.034099127
2.69400,3.034099127
2.69450,0.8977382727
2.69500,-0.01784495038
2.69550,0.8977382727
2.69600,0.2873494573
2.69650,-1.543816989
2.69700,-1.238622581
2.69750,2.728904719
2.69800,7.612015242
2.69850,9.748376096
2.69900,9.748376096
2.69950,9.137987281
2.70000,7.612015242
2.70050,4.560071165
2.70100,0.592543865
2.70150,-2.459400212
2.70200,-5.206149881
2.70250,-9.478871589
2.70300,-14.0567877
2.70350,-17.10873178
2.70400,-17.7191206
2.70450,-17.7191206
2.70500,-20.16067586
2.70550,-23.51781434
2.70600,-25.34898079
2.70650,-22.90742553
2.70700,-17.41392619
2.70750,-11.00484363
2.70800,-5.511344289
2.70850,-2.459400212
2.70900,-0.9334281735
2.70950,0.2873494573
2.71000,2.118515904
2.71050,3.034099127
2.71100,2.118515904
2.71150,3.339293534
2.71200,9.748376096
2.71250,18.90420833
2.71300,25.00809648
2.71350,24.39770767
2.71400,20.73537477
2.71450,18.29381951
2.71500,18.29381951
2.71550,18.59901392
2.71600,18.29381951
2.71650,17.9886251
2.71700,17.9886251
2.71750,17.6834307
2.71800,16.46265307
2.71850,14.63148662
2.71900,12.80032017
2.71950,11.57954254
2.72000,11.57954254
2.72050,12.49512577
2.72100,11.88473695
2.72150,9.443181688
2.72200,7.612015242
2.72250,8.832792873
2.72300,11.57954254
2.72350,13.41070899
2.72400,14.0210978
2.72450,15.24187543
2.72500,17.07304188
2.72550,17.9886251
2.72600,17.9886251
2.72650,18.29381951
2.72700,19.51459714
2.72750,19.81979155
2.72800,17.6834307
2.72850,13.7159034
2.72900,9.443181688
2.72950,6.086043204
2.73000,3.339293534
2.73050,1.20293268
2.73100,-0.9334281735
2.73150,-2.459400212
2.73200,-1.849011397
2.73250,-0.01784495038
2.73300,0.592543865
2.73350,-2.76459462
2.73400,-7.647705143
2.73450,-11.00484363
2.73500,-13.44639889
2.73550,-16.49834297
2.73600,-19.24509264
2.73650,-18.32950941
2.73700,-14.0567877
2.73750,-11.00484363
2.73800,-11.00484363
2.73850,-10.39445481
2.73900,-7.037316328
2.73950,-1.849011397
2.74000,2.118515904
2.74050,5.170459981
2.74100,6.696432019
2.74150,7.306820834
2.74200,7.91720965
2.74250,9.443181688
2.74300,11.88473695
2.74350,13.41070899
2.74400,14.93668103
2.74450,17.9886251
2.74500,21.34576359
2.74550,21.34576359
2.74600,17.6834307
2.74650,15.24187543
2.74700,15.24187543
2.74750,14.93668103
2.74800,12.18993136
2.74850,10.35876491
2.74900,12.80032017
2.74950,16.46265307
2.75000,16.15745866
2.75050,13.10551458
2.75100,11.27434813
2.75150,11.88473695
2.75200,11.27434813
2.75250,7.91720965
2.75300,4.560071165
2.75350,3.644487942
2.75400,4.865265573
2.75450,6.696432019
2.75500,7.91720965
2.75550,7.001626427
2.75600,5.780848796
2.75650,7.001626427
2.75700,11.27434813
2.75750,13.7159034
2.75800,10.66395932
2.75850,5.170459981
2.75900,2.423710311
2.75950,3.94968235
2.76000,4.254876757
2.76050,0.2873494573
2.76100,-5.511344289
2.76150,-10.39445481
2.76200,-13.14120448
2.76250,-14.36198211
2.76300,-13.14120448
2.76350,-10.69964922
2.76400,-7.952899551
2.76450,-5.206149881
2.76500,-0.9334281735
2.76550,4.254876757
2.76600,8.222404058
2.76650,8.527598465
2.76700,7.001626427
2.76750,6.391237611
2.76800,6.086043204
2.76850,5.780848796
2.76900,5.780848796
2.76950,7.306820834
2.77000,9.443181688
2.77050,9.443181688
2.77100,7.306820834
2.77150,6.696432019
2.77200,10.0535705
2.77250,14.0210978
2.77300,14.0210978
2.77350,9.137987281
2.77400,4.560071165
2.77450,3.644487942
2.77500,5.780848796
2.77550,7.91720965
2.77600,9.443181688
2.77650,11.57954254
2.77700,13.41070899
2.77750,15.24187543
2.77800,17.07304188
2.77850,20.43018037
2.77900,24.39770767
2.77950,27.75484615
2.78000,30.19640141
2.78050,31.41717904
2.78100,30.80679023
2.78150,28.06004056
2.78200,25.9236797
2.78250,26.22887411
2.78300,27.75484615
2.78350,27.14445734
2.78400,26.53406852
2.78450,28.97562378
2.78500,33.5535399
2.78550,35.38470634
2.78600,31.72237345
2.78650,25.00809648
2.78700,19.51459714
2.78750,15.54706984
2.78800,11.27434813
2.78850,5.475654388
2.78900,-0.9334281735
2.78950,-7.647705143
2.79000,-12.83601007
2.79050,-16.80353737
2.79100,-18.63470382
2.79150,-19.24509264
2.79200,-19.24509264
2.79250,-19.24509264
2.79300,-19.85548145
2.79350,-21.38145349
2.79400,-22.90742553
2.79450,-23.21261994
2.79500,-22.60223112
2.79550,-22.29703671
2.79600,-21.6866479
2.79650,-20.16067586
2.79700,-18.024315
2.79750,-16.80353737
2.79800,-16.80353737
2.79850,-15.88795415
2.79900,-12.22562126
2.79950,-8.563288366
2.80000,-7.647705143
2.80050,-8.563288366
2.80100,-7.647705143
2.80150,-3.374983435
2.80200,0.2873494573
2.80250,1.20293268
2.80300,0.592543865
2.80350,1.813321496
2.80400,4.560071165
2.80450,5.170459981
2.80500,1.813321496
2.80550,-2.459400212
2.80600,-7.342510735
2.80650,-13.14120448
2.80700,-20.77106467
2.80750,-27.48534164
2.80800,-30.84248013
2.80850,-32.36845217
2.80900,-33.28403539
2.80950,-33.28403539
2.81000,-30.23209131
2.81050,-24.73859197
2.81100,-18.63470382
2.81150,-11.61523244
2.81200,-2.76459462
2.81250,5.170459981
2.81300,9.443181688
2.81350,9.748376096
2.81400,9.748376096
2.81450,10.96915373
2.81500,10.66395932
2.81550,5.780848796
2.81600,0.2873494573
2.81650,-2.154205804
2.81700,-2.154205804
2.81750,-3.374983435
2.81800,-5.206149881
2.81850,-4.900955474
2.81900,-3.069789027
2.81950,-1.849011397
2.82000,-2.154205804
2.82050,-2.459400212
2.82100,-3.680177843
2.82150,-8.258093958
2.82200,-14.36198211
2.82250,-15.88795415
2.82300,-11.00484363
2.82350,-3.98537225
2.82400,-0.01784495038
2.82450,2.118515904
2.82500,5.780848796
2.82550,11.27434813
2.82600,16.76784747
2.82650,21.34576359
2.82700,24.70290207
2.82750,25.9236797
2.82800,23.78731885
2.82850,18.90420833
2.82900,13.7159034
2.82950,9.443181688
2.83000,7.612015242
2.83050,9.137987281
2.83100,10.96915373
2.83150,10.96915373
2.83200,9.748376096
2.83250,9.443181688
2.83300,9.748376096
2.83350,9.137987281
2.83400,7.001626427
2.83450,5.170459981
2.83500,4.560071165
2.83550,3.644487942
2.83600,3.034099127
2.83650,4.254876757
2.83700,6.086043204
2.83750,6.391237611
2.83800,6.086043204
2.83850,10.66395932
2.83900,19.20940273
2.83950,25.9236797
2.84000,27.14445734
2.84050,26.53406852
2.84100,28.06004056
2.84150,27.44965174
2.84200,21.34576359
2.84250,12.49512577
2.84300,6.391237611
2.84350,2.118515904
2.84400,-2.76459462
2.84450,-7.647705143
2.84500,-9.173677181
2.84550,-9.173677181
2.84600,-11.92042685
2.84650,-15.58275974
2.84700,-15.27756534
2.84750,-10.39445481
2.84800,-5.816538697
2.84850,-4.900955474
2.84900,-4.290566658
2.84950,-2.459400212
2.85000,-0.3230393581
2.85050,-0.01784495038
2.85100,-0.01784495038
2.85150,1.508127088
2.85200,2.423710311
2.85250,0.592543865
2.85300,-2.459400212
2.85350,-5.206149881
2.85400,-7.037316328
2.85450,-8.868482774
2.85500,-11.00484363
2.85550,-10.39445481
2.85600,-6.426927512
2.85650,-1.238622581
2.85700,1.508127088
2.85750,0.8977382727
2.85800,-0.3230393581
2.85850,0.2873494573
2.85900,2.728904719
2.85950,3.644487942
2.86000,1.813321496
2.86050,-1.238622581
2.86100,-5.511344289
2.86150,-9.784065997
2.86200,-14.0567877
2.86250,-16.19314856
2.86300,-17.10873178
2.86350,-18.63470382
2.86400,-20.46587027
2.86450,-19.55028704
2.86500,-15.58275974
2.86550,-12.53081567
2.86600,-13.14120448
2.86650,-13.7515933
2.86700,-10.39445481
2.86750,-4.595761066
2.86800,-0.6282337658
2.86850,-0.01784495038
2.86900,1.508127088
2.86950,4.560071165
2.87000,8.222404058
2.87050,10.66395932
2.87100,12.49512577
2.87150,12.80032017
2.87200,10.35876491
2.87250,5.170459981
2.87300,-0.01784495038
2.87350,-3.069789027
2.87400,-6.73212192
2.87450,-9.784065997
2.87500,-9.784065997
2.87550,-6.73212192
2.87600,-4.290566658
2.87650,-6.121733104
2.87700,-9.784065997
2.87750,-10.39445481
2.87800,-7.952899551
2.87850,-6.426927512
2.87900,-7.647705143
2.87950,-9.173677181
2.88000,-9.173677181
2.88050,-8.868482774
2.88100,-11.92042685
2.88150,-18.024315
2.88200,-24.12820316
2.88250,-27.48534164
2.88300,-26.87495283
2.88350,-23.51781434
2.88400,-18.32950941
2.88450,-12.53081567
2.88500,-7.037316328
2.88550,-3.374983435
2.88600,-3.069789027
2.88650,-5.511344289
2.88700,-7.037316328
2.88750,-6.121733104
2.88800,-4.595761066
2.88850,-5.206149881
2.88900,-7.037316328
2.88950,-7.647705143
2.89000,-6.121733104
2.89050,-4.290566658
2.89100,-2.459400212
2.89150,-0.9334281735
2.89200,-0.3230393581
2.89250,-2.459400212
2.89300,-5.816538697
2.89350,-7.952899551
2.89400,-8.563288366
2.89450,-9.173677181
2.89500,-9.784065997
2.89550,-6.426927512
2.89600,1.20293268
2.89650,9.748376096
2.89700,14.93668103
2.89750,18.90420833
2.89800,22.56654122
2.89850,25.00809648
2.89900,22.56654122
2.89950,17.9886251
2.90000,15.85226425
2.90050,17.37823629
2.90100,18.90420833
2.90150,17.6834307
2.90200,15.54706984
2.90250,15.24187543
2.90300,17.07304188
2.90350,20.73537477
2.90400,25.00809648
2.90450,26.53406852
2.90500,21.9561524
2.90550,11.27434813
2.90600,0.2873494573
2.90650,-6.426927512
2.90700,-10.0892604
2.90750,-14.36198211
2.90800,-20.46587027
2.90850,-24.73859197
2.90900,-24.43339757
2.90950,-20.46587027
2.91000,-16.49834297
2.91050,-13.14120448
2.91100,-9.784065997
2.91150,-5.206149881
2.91200,-0.01784495038
2.91250,3.94968235
2.91300,6.696432019
2.91350,9.748376096
2.91400,14.63148662
2.91450,20.43018037
2.91500,26.22887411
2.91550,31.11198464
2.91600,32.33276227
2.91650,28.67042937
2.91700,21.34576359
2.91750,14.93668103
2.91800,13.7159034
2.91850,16.76784747
2.91900,18.90420833
2.91950,17.37823629
2.92000,13.41070899
2.92050,9.443181688
2.92100,6.696432019
2.92150,5.170459981
2.92200,4.865265573
2.92250,4.865265573
2.92300,3.94968235
2.92350,3.034099127
