type,name,time_units,begin_time,frequency,count,units
signal,"Noraxon Ultium-RT BICEPS BR.","s",0.00000,2000,50920,"uV"

time,value
0.00000,-0.0009151256603
0.00050,-0.0009151256603
0.00100,0.304279282
0.00150,0.6094736897
0.00200,0.304279282
0.00250,-0.0009151256603
0.00300,-0.0009151256603
0.00350,0.304279282
0.00400,0.304279282
0.00450,0.304279282
0.00500,0.6094736897
0.00550,0.6094736897
0.00600,0.6094736897
0.00650,0.304279282
0.00700,0.6094736897
0.00750,0.6094736897
0.00800,-0.3061095334
0.00850,-1.221692756
0.00900,-1.221692756
0.00950,0.304279282
0.01000,1.219862505
0.01050,0.304279282
0.01100,-0.9164983488
0.01150,-0.9164983488
0.01200,-0.0009151256603
0.01250,0.6094736897
0.01300,0.304279282
0.01350,-0.0009151256603
0.01400,-0.0009151256603
0.01450,0.9146680974
0.01500,1.219862505
0.01550,0.6094736897
0.01600,0.304279282
0.01650,0.304279282
0.01700,0.6094736897
0.01750,0.304279282
0.01800,-0.0009151256603
0.01850,-0.3061095334
0.01900,-0.0009151256603
0.01950,0.6094736897
0.02000,0.6094736897
0.02050,-0.0009151256603
0.02100,-0.0009151256603
0.02150,-0.3061095334
0.02200,-0.6113039411
0.02250,-0.9164983488
0.02300,-0.3061095334
0.02350,-0.0009151256603
0.02400,-0.6113039411
0.02450,-1.832081572
0.02500,-2.442470387
0.02550,-1.832081572
0.02600,-0.9164983488
0.02650,-1.221692756
0.02700,-1.221692756
0.02750,-0.6113039411
0.02800,-0.0009151256603
0.02850,-0.0009151256603
0.02900,-0.9164983488
0.02950,-1.526887164
0.03000,-1.221692756
0.03050,-0.3061095334
0.03100,-0.3061095334
0.03150,-0.9164983488
0.03200,-1.832081572
0.03250,-1.526887164
0.03300,-0.3061095334
0.03350,0.304279282
0.03400,0.6094736897
0.03450,-0.0009151256603
0.03500,-0.0009151256603
0.03550,-0.0009151256603
0.03600,0.304279282
0.03650,1.830251321
0.03700,2.745834544
0.03750,2.745834544
0.03800,2.135445728
0.03850,3.051028951
0.03900,5.187389805
0.03950,7.323750659
0.04000,8.54452829
0.04050,10.68088914
0.04100,14.95361085
0.04150,19.22633256
0.04200,20.14191578
0.04250,17.39516611
0.04300,13.42763881
0.04350,10.37569474
0.04400,8.54452829
0.04450,6.713361844
0.04500,3.661417767
0.04550,-0.3061095334
0.04600,-4.578831241
0.04650,-8.546358541
0.04700,-10.9879138
0.04750,-12.51388584
0.04800,-13.73466347
0.04850,-15.56582992
0.04900,-16.78660755
0.04950,-16.17621873
0.05000,-13.42946906
0.05050,-11.29310821
0.05100,-11.90349703
0.05150,-11.90349703
0.05200,-7.935969726
0.05250,-1.526887164
0.05300,2.440640136
0.05350,1.525056913
0.05400,-1.221692756
0.05450,-3.663248018
0.05500,-5.189220057
0.05550,-6.715192095
0.05600,-8.851552949
0.05650,-10.07233058
0.05700,-10.37752499
0.05750,-10.6827194
0.05800,-10.6827194
0.05850,-9.767136172
0.05900,-8.241164134
0.05950,-6.715192095
0.06000,-5.799608872
0.06050,-5.189220057
0.06100,-4.273636833
0.06150,-3.052859203
0.06200,-1.221692756
0.06250,-0.0009151256603
0.06300,0.9146680974
0.06350,1.830251321
0.06400,2.745834544
0.06450,3.356223359
0.06500,2.745834544
0.06550,1.525056913
0.06600,1.830251321
0.06650,3.661417767
0.06700,5.187389805
0.06750,5.492584213
0.06800,4.57700099
0.06850,4.271806582
0.06900,4.271806582
0.06950,4.271806582
0.07000,3.661417767
0.07050,3.051028951
0.07100,1.830251321
0.07150,1.219862505
0.07200,0.9146680974
0.07250,1.525056913
0.07300,2.440640136
0.07350,1.830251321
0.07400,0.304279282
0.07450,-0.6113039411
0.07500,-0.0009151256603
0.07550,1.219862505
0.07600,1.219862505
0.07650,0.304279282
0.07700,-0.3061095334
0.07750,-0.0009151256603
0.07800,0.9146680974
0.07850,0.9146680974
0.07900,-0.0009151256603
0.07950,-0.0009151256603
0.08000,0.6094736897
0.08050,1.219862505
0.08100,0.6094736897
0.08150,-0.0009151256603
0.08200,-0.0009151256603
0.08250,0.9146680974
0.08300,1.525056913
0.08350,1.525056913
0.08400,1.830251321
0.08450,1.830251321
0.08500,1.830251321
0.08550,1.219862505
0.08600,0.9146680974
0.08650,0.9146680974
0.08700,0.9146680974
0.08750,0.6094736897
0.08800,0.304279282
0.08850,0.6094736897
0.08900,1.219862505
0.08950,1.830251321
0.09000,2.135445728
0.09050,1.525056913
0.09100,0.6094736897
0.09150,-0.0009151256603
0.09200,0.6094736897
0.09250,1.830251321
0.09300,1.525056913
0.09350,0.304279282
0.09400,-0.9164983488
0.09450,-0.9164983488
0.09500,-0.0009151256603
0.09550,0.6094736897
0.09600,1.219862505
0.09650,0.9146680974
0.09700,0.304279282
0.09750,-0.0009151256603
0.09800,-0.0009151256603
0.09850,0.9146680974
0.09900,1.219862505
0.09950,0.304279282
0.10000,-0.0009151256603
0.10050,-0.0009151256603
0.10100,1.219862505
0.10150,1.525056913
0.10200,0.9146680974
0.10250,0.6094736897
0.10300,1.219862505
0.10350,0.9146680974
0.10400,-0.0009151256603
0.10450,-0.0009151256603
0.10500,0.6094736897
0.10550,1.525056913
0.10600,0.9146680974
0.10650,-0.0009151256603
0.10700,-0.0009151256603
0.10750,0.6094736897
0.10800,0.6094736897
0.10850,-0.0009151256603
0.10900,-0.0009151256603
0.10950,1.525056913
0.11000,2.440640136
0.11050,1.525056913
0.11100,0.304279282
0.11150,0.9146680974
0.11200,1.830251321
0.11250,1.525056913
0.11300,0.304279282
0.11350,0.304279282
0.11400,1.830251321
0.11450,2.745834544
0.11500,2.440640136
0.11550,1.830251321
0.11600,1.219862505
0.11650,0.6094736897
0.11700,0.304279282
0.11750,0.304279282
0.11800,1.219862505
0.11850,1.525056913
0.11900,1.525056913
0.11950,0.6094736897
0.12000,0.304279282
0.12050,0.304279282
0.12100,0.304279282
0.12150,0.304279282
0.12200,-0.0009151256603
0.12250,-0.0009151256603
0.12300,-0.0009151256603
0.12350,0.304279282
0.12400,0.304279282
0.12450,-0.6113039411
0.12500,-1.526887164
0.12550,-1.221692756
0.12600,-0.0009151256603
0.12650,1.219862505
0.12700,0.6094736897
0.12750,-0.0009151256603
0.12800,0.6094736897
0.12850,2.135445728
0.12900,2.440640136
0.12950,1.219862505
0.13000,-0.0009151256603
0.13050,-0.6113039411
0.13100,-0.3061095334
0.13150,-0.0009151256603
0.13200,-0.0009151256603
0.13250,-0.0009151256603
0.13300,0.304279282
0.13350,0.304279282
0.13400,-0.0009151256603
0.13450,-0.6113039411
0.13500,-0.6113039411
0.13550,-0.3061095334
0.13600,-0.6113039411
0.13650,-1.221692756
0.13700,-1.221692756
0.13750,-0.6113039411
0.13800,-0.6113039411
0.13850,-0.9164983488
0.13900,-0.6113039411
0.13950,-0.0009151256603
0.14000,-0.0009151256603
0.14050,-0.6113039411
0.14100,-0.6113039411
0.14150,0.304279282
0.14200,1.525056913
0.14250,1.219862505
0.14300,-0.0009151256603
0.14350,-0.0009151256603
0.14400,-0.0009151256603
0.14450,-0.0009151256603
0.14500,0.304279282
0.14550,0.304279282
0.14600,-0.0009151256603
0.14650,-0.9164983488
0.14700,-0.6113039411
0.14750,-0.0009151256603
0.14800,-0.0009151256603
0.14850,-1.526887164
0.14900,-1.832081572
0.14950,-0.6113039411
0.15000,-0.3061095334
0.15050,-1.526887164
0.15100,-2.13727598
0.15150,-0.9164983488
0.15200,-0.0009151256603
0.15250,-1.526887164
0.15300,-2.13727598
0.15350,-0.0009151256603
0.15400,2.135445728
0.15450,1.525056913
0.15500,-0.0009151256603
0.15550,0.6094736897
0.15600,2.745834544
0.15650,2.745834544
0.15700,1.525056913
0.15750,1.830251321
0.15800,3.966612174
0.15850,5.492584213
0.15900,5.187389805
0.15950,4.57700099
0.16000,3.356223359
0.16050,2.135445728
0.16100,2.745834544
0.16150,6.408167436
0.16200,10.07050033
0.16250,10.07050033
0.16300,7.018556251
0.16350,3.966612174
0.16400,1.525056913
0.16450,-1.832081572
0.16500,-5.494414464
0.16550,-7.020386503
0.16600,-7.630775318
0.16650,-9.156747357
0.16700,-10.9879138
0.16750,-10.37752499
0.16800,-8.546358541
0.16850,-8.546358541
0.16900,-9.461941764
0.16950,-8.546358541
0.17000,-6.409997687
0.17050,-5.799608872
0.17100,-6.715192095
0.17150,-6.409997687
0.17200,-4.273636833
0.17250,-2.442470387
0.17300,-2.747664795
0.17350,-3.052859203
0.17400,-2.13727598
0.17450,-1.221692756
0.17500,-1.832081572
0.17550,-2.13727598
0.17600,-1.526887164
0.17650,-0.9164983488
0.17700,-0.3061095334
0.17750,-0.0009151256603
0.17800,1.219862505
0.17850,1.830251321
0.17900,0.9146680974
0.17950,-0.0009151256603
0.18000,-0.3061095334
0.18050,-0.0009151256603
0.18100,0.9146680974
0.18150,1.219862505
0.18200,0.304279282
0.18250,-0.0009151256603
0.18300,-0.0009151256603
0.18350,-0.0009151256603
0.18400,-0.6113039411
0.18450,-1.526887164
0.18500,-1.526887164
0.18550,-0.3061095334
0.18600,-0.0009151256603
0.18650,-0.3061095334
0.18700,-1.221692756
0.18750,-0.9164983488
0.18800,-0.0009151256603
0.18850,0.304279282
0.18900,-0.0009151256603
0.18950,0.304279282
0.19000,0.9146680974
0.19050,0.9146680974
0.19100,0.304279282
0.19150,0.304279282
0.19200,0.6094736897
0.19250,0.6094736897
0.19300,0.304279282
0.19350,0.304279282
0.19400,0.6094736897
0.19450,0.9146680974
0.19500,0.304279282
0.19550,-0.0009151256603
0.19600,-0.0009151256603
0.19650,0.6094736897
0.19700,1.219862505
0.19750,1.219862505
0.19800,1.219862505
0.19850,0.9146680974
0.19900,0.304279282
0.19950,-0.0009151256603
0.20000,-0.0009151256603
0.20050,-0.0009151256603
0.20100,0.304279282
0.20150,0.9146680974
0.20200,1.525056913
0.20250,0.9146680974
0.20300,-0.0009151256603
0.20350,-0.3061095334
0.20400,0.6094736897
0.20450,2.135445728
0.20500,2.135445728
0.20550,1.219862505
0.20600,0.304279282
0.20650,-0.0009151256603
0.20700,-0.0009151256603
0.20750,-0.0009151256603
0.20800,0.9146680974
0.20850,1.525056913
0.20900,0.6094736897
0.20950,-0.3061095334
0.21000,-0.3061095334
0.21050,1.219862505
0.21100,2.745834544
0.21150,1.830251321
0.21200,-0.0009151256603
0.21250,-0.9164983488
0.21300,-0.0009151256603
0.21350,0.304279282
0.21400,-0.0009151256603
0.21450,-0.6113039411
0.21500,-0.0009151256603
0.21550,0.9146680974
0.21600,1.219862505
0.21650,0.6094736897
0.21700,1.219862505
0.21750,1.830251321
0.21800,1.525056913
0.21850,-0.0009151256603
0.21900,-0.3061095334
0.21950,0.304279282
0.22000,0.9146680974
0.22050,-0.0009151256603
0.22100,-0.9164983488
0.22150,-0.6113039411
0.22200,0.304279282
0.22250,0.6094736897
0.22300,0.304279282
0.22350,-0.0009151256603
0.22400,0.304279282
0.22450,-0.0009151256603
0.22500,-0.0009151256603
0.22550,0.6094736897
0.22600,1.525056913
0.22650,1.525056913
0.22700,1.219862505
0.22750,0.6094736897
0.22800,-0.0009151256603
0.22850,-0.6113039411
0.22900,-1.221692756
0.22950,-0.9164983488
0.23000,-0.0009151256603
0.23050,0.304279282
0.23100,-0.0009151256603
0.23150,-0.3061095334
0.23200,-0.3061095334
0.23250,-0.0009151256603
0.23300,0.304279282
0.23350,-0.0009151256603
0.23400,-0.9164983488
0.23450,-1.221692756
0.23500,-0.6113039411
0.23550,-0.0009151256603
0.23600,-0.0009151256603
0.23650,-0.0009151256603
0.23700,-0.6113039411
0.23750,-1.221692756
0.23800,-1.832081572
0.23850,-1.221692756
0.23900,-0.0009151256603
0.23950,0.9146680974
0.24000,0.6094736897
0.24050,-0.0009151256603
0.24100,-0.0009151256603
0.24150,0.6094736897
0.24200,0.6094736897
0.24250,0.6094736897
0.24300,0.9146680974
0.24350,0.9146680974
0.24400,-0.0009151256603
0.24450,-0.9164983488
0.24500,-0.6113039411
0.24550,0.9146680974
0.24600,1.830251321
0.24650,0.6094736897
0.24700,-0.3061095334
0.24750,-0.0009151256603
0.24800,0.9146680974
0.24850,0.9146680974
0.24900,-0.0009151256603
0.24950,-0.3061095334
0.25000,-0.0009151256603
0.25050,-0.0009151256603
0.25100,-0.3061095334
0.25150,-0.0009151256603
0.25200,0.304279282
0.25250,0.6094736897
0.25300,0.304279282
0.25350,-0.0009151256603
0.25400,-0.0009151256603
0.25450,-0.6113039411
0.25500,-1.221692756
0.25550,-1.221692756
0.25600,-0.9164983488
0.25650,-0.9164983488
0.25700,-0.6113039411
0.25750,-0.0009151256603
0.25800,0.6094736897
0.25850,0.304279282
0.25900,-0.0009151256603
0.25950,0.6094736897
0.26000,1.830251321
0.26050,2.440640136
0.26100,1.525056913
0.26150,0.9146680974
0.26200,1.219862505
0.26250,1.830251321
0.26300,2.440640136
0.26350,2.745834544
0.26400,2.745834544
0.26450,2.745834544
0.26500,3.051028951
0.26550,3.356223359
0.26600,3.051028951
0.26650,3.661417767
0.26700,5.797778621
0.26750,7.628945067
0.26800,7.018556251
0.26850,3.966612174
0.26900,2.745834544
0.26950,3.966612174
0.27000,3.966612174
0.27050,1.219862505
0.27100,-0.6113039411
0.27150,2.135445728
0.27200,7.934139475
0.27250,10.07050033
0.27300,6.102973028
0.27350,0.304279282
0.27400,-2.442470387
0.27450,-3.968442426
0.27500,-6.10480328
0.27550,-8.241164134
0.27600,-9.767136172
0.27650,-10.37752499
0.27700,-11.29310821
0.27750,-13.12427466
0.27800,-15.26063551
0.27850,-15.56582992
0.27900,-12.81908025
0.27950,-10.07233058
0.28000,-9.156747357
0.28050,-9.156747357
0.28100,-6.409997687
0.28150,-1.526887164
0.28200,1.219862505
0.28250,0.6094736897
0.28300,0.304279282
0.28350,1.830251321
0.28400,2.440640136
0.28450,-0.0009151256603
0.28500,-1.832081572
0.28550,-0.6113039411
0.28600,1.830251321
0.28650,2.745834544
0.28700,1.525056913
0.28750,1.525056913
0.28800,2.745834544
0.28850,2.745834544
0.28900,1.219862505
0.28950,0.304279282
0.29000,0.304279282
0.29050,0.304279282
0.29100,-0.0009151256603
0.29150,-0.3061095334
0.29200,0.6094736897
0.29250,1.830251321
0.29300,1.830251321
0.29350,1.219862505
0.29400,0.9146680974
0.29450,1.219862505
0.29500,1.830251321
0.29550,1.525056913
0.29600,0.9146680974
0.29650,1.219862505
0.29700,2.440640136
0.29750,3.051028951
0.29800,2.440640136
0.29850,1.525056913
0.29900,1.525056913
0.29950,1.830251321
0.30000,1.525056913
0.30050,-0.0009151256603
0.30100,-1.221692756
0.30150,-1.832081572
0.30200,-2.442470387
0.30250,-3.052859203
0.30300,-2.442470387
0.30350,-1.526887164
0.30400,-1.832081572
0.30450,-3.968442426
0.30500,-5.189220057
0.30550,-4.273636833
0.30600,-2.747664795
0.30650,-2.442470387
0.30700,-3.35805361
0.30750,-3.968442426
0.30800,-3.663248018
0.30850,-3.663248018
0.30900,-3.663248018
0.30950,-3.35805361
0.31000,-2.442470387
0.31050,-2.442470387
0.31100,-3.052859203
0.31150,-3.35805361
0.31200,-1.832081572
0.31250,0.304279282
0.31300,3.051028951
0.31350,4.57700099
0.31400,4.882195398
0.31450,4.57700099
0.31500,3.661417767
0.31550,2.745834544
0.31600,1.830251321
0.31650,1.219862505
0.31700,1.219862505
0.31750,1.830251321
0.31800,1.525056913
0.31850,-0.0009151256603
0.31900,-1.221692756
0.31950,-1.832081572
0.32000,-1.221692756
0.32050,-0.9164983488
0.32100,-0.3061095334
0.32150,0.304279282
0.32200,1.830251321
0.32250,2.135445728
0.32300,0.9146680974
0.32350,-0.3061095334
0.32400,-0.0009151256603
0.32450,0.9146680974
0.32500,1.525056913
0.32550,0.6094736897
0.32600,-0.0009151256603
0.32650,0.9146680974
0.32700,2.440640136
0.32750,2.440640136
0.32800,1.525056913
0.32850,1.830251321
0.32900,3.051028951
0.32950,3.966612174
0.33000,4.57700099
0.33050,5.492584213
0.33100,5.492584213
0.33150,3.051028951
0.33200,0.304279282
0.33250,-0.0009151256603
0.33300,0.9146680974
0.33350,0.9146680974
0.33400,-0.6113039411
0.33450,-0.0009151256603
0.33500,4.882195398
0.33550,9.460111513
0.33600,8.849722698
0.33650,4.271806582
0.33700,0.6094736897
0.33750,-0.6113039411
0.33800,-1.832081572
0.33850,-1.832081572
0.33900,0.6094736897
0.33950,3.051028951
0.34000,1.525056913
0.34050,-1.526887164
0.34100,-3.052859203
0.34150,-2.13727598
0.34200,-1.832081572
0.34250,-3.35805361
0.34300,-3.663248018
0.34350,-2.13727598
0.34400,-0.6113039411
0.34450,-0.3061095334
0.34500,-0.3061095334
0.34550,0.9146680974
0.34600,2.135445728
0.34650,2.440640136
0.34700,1.219862505
0.34750,-0.0009151256603
0.34800,-0.9164983488
0.34850,-0.9164983488
0.34900,-0.0009151256603
0.34950,-0.3061095334
0.35000,-3.052859203
0.35050,-6.409997687
0.35100,-7.630775318
0.35150,-6.409997687
0.35200,-5.799608872
0.35250,-6.10480328
0.35300,-7.020386503
0.35350,-7.630775318
0.35400,-7.020386503
0.35450,-5.494414464
0.35500,-3.35805361
0.35550,-2.747664795
0.35600,-3.052859203
0.35650,-2.747664795
0.35700,-0.0009151256603
0.35750,3.051028951
0.35800,5.187389805
0.35850,5.492584213
0.35900,5.492584213
0.35950,4.271806582
0.36000,2.440640136
0.36050,2.135445728
0.36100,4.271806582
0.36150,6.713361844
0.36200,5.797778621
0.36250,3.051028951
0.36300,1.525056913
0.36350,1.830251321
0.36400,0.6094736897
0.36450,-1.526887164
0.36500,-1.832081572
0.36550,-0.3061095334
0.36600,-0.0009151256603
0.36650,-1.832081572
0.36700,-3.35805361
0.36750,-2.747664795
0.36800,-2.13727598
0.36850,-3.35805361
0.36900,-4.884025649
0.36950,-4.273636833
0.37000,-3.052859203
0.37050,-3.052859203
0.37100,-3.968442426
0.37150,-3.968442426
0.37200,-3.35805361
0.37250,-3.35805361
0.37300,-3.663248018
0.37350,-2.747664795
0.37400,-1.832081572
0.37450,-2.747664795
0.37500,-5.189220057
0.37550,-6.409997687
0.37600,-5.799608872
0.37650,-4.884025649
0.37700,-5.189220057
0.37750,-4.884025649
0.37800,-3.663248018
0.37850,-2.13727598
0.37900,-1.221692756
0.37950,-0.3061095334
0.38000,0.6094736897
0.38050,1.830251321
0.38100,1.830251321
0.38150,1.219862505
0.38200,1.525056913
0.38250,2.745834544
0.38300,3.356223359
0.38350,3.051028951
0.38400,3.661417767
0.38450,7.323750659
0.38500,14.03802763
0.38550,18.31074934
0.38600,17.08997171
0.38650,12.81725
0.38700,10.37569474
0.38750,11.59647237
0.38800,11.90166677
0.38850,10.07050033
0.38900,7.934139475
0.38950,7.018556251
0.39000,6.102973028
0.39050,3.356223359
0.39100,0.6094736897
0.39150,-0.3061095334
0.39200,-1.832081572
0.39250,-4.273636833
0.39300,-6.10480328
0.39350,-5.799608872
0.39400,-4.578831241
0.39450,-3.35805361
0.39500,-0.3061095334
0.39550,5.797778621
0.39600,12.20686118
0.39650,13.42763881
0.39700,10.07050033
0.39750,6.713361844
0.39800,5.187389805
0.39850,3.051028951
0.39900,-0.6113039411
0.39950,-4.884025649
0.40000,-7.935969726
0.40050,-9.767136172
0.40100,-10.37752499
0.40150,-10.07233058
0.40200,-10.37752499
0.40250,-12.20869143
0.40300,-13.73466347
0.40350,-12.20869143
0.40400,-7.935969726
0.40450,-4.578831241
0.40500,-3.052859203
0.40550,-1.526887164
0.40600,0.304279282
0.40650,2.135445728
0.40700,2.745834544
0.40750,3.661417767
0.40800,5.187389805
0.40850,5.187389805
0.40900,2.440640136
0.40950,-0.0009151256603
0.41000,-0.3061095334
0.41050,-0.3061095334
0.41100,-1.221692756
0.41150,-3.35805361
0.41200,-4.273636833
0.41250,-3.35805361
0.41300,-2.747664795
0.41350,-2.747664795
0.41400,-2.442470387
0.41450,-1.221692756
0.41500,0.9146680974
0.41550,3.051028951
0.41600,4.882195398
0.41650,6.102973028
0.41700,5.797778621
0.41750,3.661417767
0.41800,0.6094736897
0.41850,-0.6113039411
0.41900,-0.0009151256603
0.41950,-0.0009151256603
0.42000,-1.832081572
0.42050,-4.884025649
0.42100,-6.10480328
0.42150,-6.10480328
0.42200,-7.32558091
0.42250,-9.461941764
0.42300,-9.767136172
0.42350,-7.935969726
0.42400,-6.10480328
0.42450,-6.409997687
0.42500,-6.409997687
0.42550,-4.578831241
0.42600,-2.13727598
0.42650,-0.9164983488
0.42700,-0.0009151256603
0.42750,0.304279282
0.42800,0.304279282
0.42850,-0.9164983488
0.42900,-1.526887164
0.42950,-0.0009151256603
0.43000,1.219862505
0.43050,1.219862505
0.43100,0.6094736897
0.43150,0.6094736897
0.43200,0.6094736897
0.43250,-0.0009151256603
0.43300,-0.0009151256603
0.43350,-0.0009151256603
0.43400,0.304279282
0.43450,0.6094736897
0.43500,1.219862505
0.43550,2.440640136
0.43600,2.135445728
0.43650,1.219862505
0.43700,0.6094736897
0.43750,1.219862505
0.43800,1.219862505
0.43850,0.9146680974
0.43900,1.525056913
0.43950,3.356223359
0.44000,3.966612174
0.44050,2.745834544
0.44100,2.440640136
0.44150,3.356223359
0.44200,3.661417767
0.44250,2.135445728
0.44300,0.9146680974
0.44350,1.830251321
0.44400,2.745834544
0.44450,1.830251321
0.44500,1.219862505
0.44550,3.356223359
0.44600,6.102973028
0.44650,6.102973028
0.44700,3.661417767
0.44750,2.440640136
0.44800,3.356223359
0.44850,3.661417767
0.44900,2.745834544
0.44950,1.525056913
0.45000,1.830251321
0.45050,1.525056913
0.45100,0.9146680974
0.45150,0.9146680974
0.45200,2.440640136
0.45250,3.661417767
0.45300,3.661417767
0.45350,3.051028951
0.45400,2.440640136
0.45450,1.525056913
0.45500,0.9146680974
0.45550,1.525056913
0.45600,2.745834544
0.45650,2.135445728
0.45700,0.6094736897
0.45750,-0.0009151256603
0.45800,0.6094736897
0.45850,1.830251321
0.45900,0.9146680974
0.45950,-0.3061095334
0.46000,-0.9164983488
0.46050,-0.6113039411
0.46100,-0.6113039411
0.46150,-1.526887164
0.46200,-1.832081572
0.46250,-1.526887164
0.46300,-0.9164983488
0.46350,-0.0009151256603
0.46400,0.304279282
0.46450,0.9146680974
0.46500,1.219862505
0.46550,1.525056913
0.46600,1.219862505
0.46650,0.6094736897
0.46700,-0.0009151256603
0.46750,-0.0009151256603
0.46800,-0.6113039411
0.46850,-1.221692756
0.46900,-0.6113039411
0.46950,2.440640136
0.47000,7.628945067
0.47050,11.59647237
0.47100,12.51205559
0.47150,12.51205559
0.47200,13.73283322
0.47250,14.64841644
0.47300,12.81725
0.47350,9.154917105
0.47400,6.102973028
0.47450,3.966612174
0.47500,1.219862505
0.47550,-2.442470387
0.47600,-6.10480328
0.47650,-8.851552949
0.47700,-10.6827194
0.47750,-12.20869143
0.47800,-13.42946906
0.47850,-13.73466347
0.47900,-13.12427466
0.47950,-11.59830262
0.48000,-9.156747357
0.48050,-6.10480328
0.48100,-2.747664795
0.48150,0.304279282
0.48200,2.135445728
0.48250,2.135445728
0.48300,1.219862505
0.48350,0.9146680974
0.48400,0.6094736897
0.48450,-0.0009151256603
0.48500,-1.832081572
0.48550,-5.189220057
0.48600,-8.851552949
0.48650,-10.6827194
0.48700,-10.37752499
0.48750,-8.851552949
0.48800,-7.630775318
0.48850,-7.020386503
0.48900,-6.409997687
0.48950,-5.799608872
0.49000,-4.884025649
0.49050,-2.442470387
0.49100,1.219862505
0.49150,4.882195398
0.49200,5.797778621
0.49250,3.356223359
0.49300,0.304279282
0.49350,-0.0009151256603
0.49400,1.525056913
0.49450,3.356223359
0.49500,4.882195398
0.49550,5.492584213
0.49600,5.187389805
0.49650,4.271806582
0.49700,2.440640136
0.49750,0.9146680974
0.49800,-0.6113039411
0.49850,-2.747664795
0.49900,-4.578831241
0.49950,-3.968442426
0.50000,-0.0009151256603
0.50050,5.492584213
0.50100,8.239333882
0.50150,7.323750659
0.50200,5.797778621
0.50250,5.797778621
0.50300,7.018556251
0.50350,7.628945067
0.50400,6.713361844
0.50450,5.492584213
0.50500,3.966612174
0.50550,2.135445728
0.50600,0.6094736897
0.50650,-0.3061095334
0.50700,-2.13727598
0.50750,-5.799608872
0.50800,-9.767136172
0.50850,-11.29310821
0.50900,-10.37752499
0.50950,-9.461941764
0.51000,-9.767136172
0.51050,-10.37752499
0.51100,-9.461941764
0.51150,-7.630775318
0.51200,-6.715192095
0.51250,-6.409997687
0.51300,-5.494414464
0.51350,-3.968442426
0.51400,-2.747664795
0.51450,-1.526887164
0.51500,0.304279282
0.51550,2.440640136
0.51600,3.051028951
0.51650,0.9146680974
0.51700,-0.9164983488
0.51750,-1.526887164
0.51800,-0.6113039411
0.51850,0.304279282
0.51900,0.6094736897
0.51950,-0.0009151256603
0.52000,-0.3061095334
0.52050,-0.0009151256603
0.52100,0.6094736897
0.52150,0.9146680974
0.52200,0.304279282
0.52250,-0.0009151256603
0.52300,-0.0009151256603
0.52350,0.6094736897
0.52400,1.830251321
0.52450,2.440640136
0.52500,1.525056913
0.52550,0.304279282
0.52600,-0.3061095334
0.52650,-0.0009151256603
0.52700,0.304279282
0.52750,0.6094736897
0.52800,0.9146680974
0.52850,1.830251321
0.52900,2.440640136
0.52950,1.830251321
0.53000,1.219862505
0.53050,2.135445728
0.53100,3.356223359
0.53150,2.745834544
0.53200,0.9146680974
0.53250,-0.3061095334
0.53300,-0.0009151256603
0.53350,1.525056913
0.53400,2.440640136
0.53450,2.135445728
0.53500,1.525056913
0.53550,0.9146680974
0.53600,0.304279282
0.53650,0.304279282
0.53700,1.219862505
0.53750,1.830251321
0.53800,1.830251321
0.53850,1.525056913
0.53900,2.135445728
0.53950,2.440640136
0.54000,1.830251321
0.54050,1.219862505
0.54100,1.525056913
0.54150,2.745834544
0.54200,3.356223359
0.54250,2.440640136
0.54300,0.9146680974
0.54350,0.6094736897
0.54400,1.525056913
0.54450,1.830251321
0.54500,0.9146680974
0.54550,-0.0009151256603
0.54600,0.304279282
0.54650,1.525056913
0.54700,2.440640136
0.54750,2.745834544
0.54800,3.966612174
0.54850,6.102973028
0.54900,7.628945067
0.54950,7.323750659
0.55000,6.102973028
0.55050,5.187389805
0.55100,4.57700099
0.55150,4.882195398
0.55200,5.492584213
0.55250,6.408167436
0.55300,5.797778621
0.55350,3.356223359
0.55400,-0.0009151256603
0.55450,-3.35805361
0.55500,-6.409997687
0.55550,-8.546358541
0.55600,-9.767136172
0.55650,-8.851552949
0.55700,-6.715192095
0.55750,-5.189220057
0.55800,-4.273636833
0.55850,-3.968442426
0.55900,-3.968442426
0.55950,-3.968442426
0.56000,-3.968442426
0.56050,-3.663248018
0.56100,-2.442470387
0.56150,-0.6113039411
0.56200,-0.0009151256603
0.56250,-0.6113039411
0.56300,-3.052859203
0.56350,-5.189220057
0.56400,-5.189220057
0.56450,-3.968442426
0.56500,-3.663248018
0.56550,-3.663248018
0.56600,-2.747664795
0.56650,-0.6113039411
0.56700,1.219862505
0.56750,1.830251321
0.56800,2.440640136
0.56850,3.051028951
0.56900,3.356223359
0.56950,1.830251321
0.57000,-0.0009151256603
0.57050,-0.3061095334
0.57100,-0.0009151256603
0.57150,-0.0009151256603
0.57200,-1.526887164
0.57250,-2.747664795
0.57300,-3.663248018
0.57350,-3.968442426
0.57400,-3.35805361
0.57450,-2.13727598
0.57500,-1.221692756
0.57550,-1.221692756
0.57600,-1.221692756
0.57650,-0.0009151256603
0.57700,1.219862505
0.57750,1.525056913
0.57800,1.219862505
0.57850,1.219862505
0.57900,1.830251321
0.57950,1.830251321
0.58000,0.9146680974
0.58050,0.304279282
0.58100,0.304279282
0.58150,0.6094736897
0.58200,-0.0009151256603
0.58250,-0.3061095334
0.58300,-0.0009151256603
0.58350,0.304279282
0.58400,-0.0009151256603
0.58450,-0.3061095334
0.58500,-0.9164983488
0.58550,-0.3061095334
0.58600,0.6094736897
0.58650,1.219862505
0.58700,0.6094736897
0.58750,-0.0009151256603
0.58800,-0.3061095334
0.58850,-0.0009151256603
0.58900,-0.0009151256603
0.58950,-0.0009151256603
0.59000,-0.0009151256603
0.59050,0.304279282
0.59100,1.219862505
0.59150,2.135445728
0.59200,2.440640136
0.59250,1.830251321
0.59300,0.6094736897
0.59350,0.304279282
0.59400,0.9146680974
0.59450,1.830251321
0.59500,1.830251321
0.59550,0.9146680974
0.59600,0.304279282
0.59650,0.6094736897
0.59700,0.9146680974
0.59750,0.304279282
0.59800,-0.0009151256603
0.59850,1.219862505
0.59900,3.356223359
0.59950,4.882195398
0.60000,5.492584213
0.60050,5.797778621
0.60100,7.018556251
0.60150,9.154917105
0.60200,10.68088914
0.60250,11.29127796
0.60300,10.98608355
0.60350,9.765305921
0.60400,8.239333882
0.60450,7.018556251
0.60500,6.102973028
0.60550,5.797778621
0.60600,5.492584213
0.60650,3.966612174
0.60700,0.6094736897
0.60750,-3.35805361
0.60800,-7.32558091
0.60850,-10.37752499
0.60900,-12.51388584
0.60950,-13.42946906
0.61000,-12.51388584
0.61050,-10.07233058
0.61100,-8.546358541
0.61150,-8.241164134
0.61200,-8.241164134
0.61250,-7.020386503
0.61300,-4.884025649
0.61350,-3.052859203
0.61400,-2.13727598
0.61450,-0.6113039411
0.61500,1.219862505
0.61550,3.051028951
0.61600,3.356223359
0.61650,1.219862505
0.61700,-1.832081572
0.61750,-3.968442426
0.61800,-4.578831241
0.61850,-4.273636833
0.61900,-4.273636833
0.61950,-5.494414464
0.62000,-7.020386503
0.62050,-8.241164134
0.62100,-9.156747357
0.62150,-9.767136172
0.62200,-10.07233058
0.62250,-10.07233058
0.62300,-10.37752499
0.62350,-11.29310821
0.62400,-11.59830262
0.62450,-9.767136172
0.62500,-6.409997687
0.62550,-2.442470387
0.62600,-0.3061095334
0.62650,-0.0009151256603
0.62700,-0.0009151256603
0.62750,2.135445728
0.62800,5.492584213
0.62850,7.018556251
0.62900,6.408167436
0.62950,6.713361844
0.63000,8.849722698
0.63050,10.98608355
0.63100,10.68088914
0.63150,8.239333882
0.63200,6.102973028
0.63250,3.661417767
0.63300,-0.0009151256603
0.63350,-4.578831241
0.63400,-7.935969726
0.63450,-9.156747357
0.63500,-9.156747357
0.63550,-8.546358541
0.63600,-7.935969726
0.63650,-7.630775318
0.63700,-8.241164134
0.63750,-7.935969726
0.63800,-6.10480328
0.63850,-3.052859203
0.63900,-0.9164983488
0.63950,-0.3061095334
0.64000,-0.0009151256603
0.64050,1.525056913
0.64100,3.051028951
0.64150,3.356223359
0.64200,2.440640136
0.64250,0.6094736897
0.64300,-0.3061095334
0.64350,-0.3061095334
0.64400,1.830251321
0.64450,4.882195398
0.64500,6.408167436
0.64550,5.797778621
0.64600,4.271806582
0.64650,3.661417767
0.64700,3.661417767
0.64750,3.661417767
0.64800,3.051028951
0.64850,2.440640136
0.64900,1.830251321
0.64950,0.9146680974
0.65000,0.304279282
0.65050,-0.0009151256603
0.65100,0.6094736897
0.65150,0.9146680974
0.65200,1.219862505
0.65250,0.9146680974
0.65300,1.219862505
0.65350,1.525056913
0.65400,0.9146680974
0.65450,-0.0009151256603
0.65500,-0.3061095334
0.65550,0.6094736897
0.65600,2.135445728
0.65650,2.745834544
0.65700,2.440640136
0.65750,2.135445728
0.65800,2.135445728
0.65850,0.9146680974
0.65900,-0.0009151256603
0.65950,-0.0009151256603
0.66000,1.219862505
0.66050,2.440640136
0.66100,3.356223359
0.66150,3.661417767
0.66200,3.966612174
0.66250,3.051028951
0.66300,2.440640136
0.66350,3.051028951
0.66400,4.271806582
0.66450,4.271806582
0.66500,2.745834544
0.66550,1.525056913
0.66600,1.830251321
0.66650,1.525056913
0.66700,-0.0009151256603
0.66750,-1.832081572
0.66800,-2.747664795
0.66850,-3.052859203
0.66900,-3.052859203
0.66950,-2.13727598
0.67000,-0.0009151256603
0.67050,0.6094736897
0.67100,-0.0009151256603
0.67150,-0.0009151256603
0.67200,1.830251321
0.67250,3.661417767
0.67300,2.745834544
0.67350,0.6094736897
0.67400,0.304279282
0.67450,2.135445728
0.67500,3.356223359
0.67550,3.356223359
0.67600,2.745834544
0.67650,3.051028951
0.67700,3.051028951
0.67750,3.051028951
0.67800,2.745834544
0.67850,2.745834544
0.67900,1.830251321
0.67950,0.304279282
0.68000,-0.3061095334
0.68050,-0.9164983488
0.68100,-0.9164983488
0.68150,-0.9164983488
0.68200,-1.526887164
0.68250,-2.13727598
0.68300,-1.832081572
0.68350,-1.221692756
0.68400,-0.9164983488
0.68450,-1.526887164
0.68500,-3.052859203
0.68550,-3.968442426
0.68600,-3.968442426
0.68650,-3.052859203
0.68700,-2.442470387
0.68750,-1.221692756
0.68800,0.6094736897
0.68850,4.57700099
0.68900,7.628945067
0.68950,7.628945067
0.69000,5.187389805
0.69050,3.051028951
0.69100,2.745834544
0.69150,2.745834544
0.69200,1.219862505
0.69250,-1.221692756
0.69300,-2.442470387
0.69350,-2.747664795
0.69400,-3.968442426
0.69450,-6.10480328
0.69500,-6.715192095
0.69550,-6.10480328
0.69600,-6.409997687
0.69650,-6.409997687
0.69700,-3.968442426
0.69750,0.6094736897
0.69800,3.661417767
0.69850,3.356223359
0.69900,3.051028951
0.69950,6.408167436
0.70000,10.07050033
0.70050,10.37569474
0.70100,7.934139475
0.70150,6.408167436
0.70200,6.408167436
0.70250,6.713361844
0.70300,5.492584213
0.70350,4.271806582
0.70400,3.051028951
0.70450,1.219862505
0.70500,-1.526887164
0.70550,-4.273636833
0.70600,-6.409997687
0.70650,-8.851552949
0.70700,-10.37752499
0.70750,-10.6827194
0.70800,-10.07233058
0.70850,-9.461941764
0.70900,-9.767136172
0.70950,-9.767136172
0.71000,-9.156747357
0.71050,-8.241164134
0.71100,-7.935969726
0.71150,-8.241164134
0.71200,-8.546358541
0.71250,-8.851552949
0.71300,-8.241164134
0.71350,-7.020386503
0.71400,-5.189220057
0.71450,-2.442470387
0.71500,-0.6113039411
0.71550,-0.3061095334
0.71600,-1.832081572
0.71650,-3.35805361
0.71700,-3.35805361
0.71750,-2.13727598
0.71800,-0.9164983488
0.71850,-0.0009151256603
0.71900,1.830251321
0.71950,3.356223359
0.72000,3.356223359
0.72050,2.135445728
0.72100,1.525056913
0.72150,2.440640136
0.72200,3.051028951
0.72250,2.135445728
0.72300,1.219862505
0.72350,1.219862505
0.72400,2.135445728
0.72450,2.135445728
0.72500,0.6094736897
0.72550,-0.0009151256603
0.72600,-0.0009151256603
0.72650,0.304279282
0.72700,0.9146680974
0.72750,0.9146680974
0.72800,0.9146680974
0.72850,1.525056913
0.72900,1.830251321
0.72950,1.219862505
0.73000,0.6094736897
0.73050,1.219862505
0.73100,2.440640136
0.73150,3.356223359
0.73200,3.356223359
0.73250,3.356223359
0.73300,3.356223359
0.73350,3.051028951
0.73400,2.440640136
0.73450,2.745834544
0.73500,3.966612174
0.73550,4.57700099
0.73600,3.051028951
0.73650,1.525056913
0.73700,1.219862505
0.73750,2.135445728
0.73800,3.051028951
0.73850,2.745834544
0.73900,2.135445728
0.73950,2.135445728
0.74000,2.135445728
0.74050,1.525056913
0.74100,1.830251321
0.74150,1.830251321
0.74200,1.219862505
0.74250,-0.0009151256603
0.74300,-0.6113039411
0.74350,-0.0009151256603
0.74400,0.9146680974
0.74450,0.9146680974
0.74500,0.6094736897
0.74550,1.525056913
0.74600,3.661417767
0.74650,6.102973028
0.74700,6.408167436
0.74750,5.797778621
0.74800,4.57700099
0.74850,3.966612174
0.74900,3.966612174
0.74950,3.661417767
0.75000,2.745834544
0.75050,2.135445728
0.75100,0.6094736897
0.75150,-1.221692756
0.75200,-4.273636833
0.75250,-7.020386503
0.75300,-7.935969726
0.75350,-7.32558091
0.75400,-6.409997687
0.75450,-6.10480328
0.75500,-6.715192095
0.75550,-6.409997687
0.75600,-4.884025649
0.75650,-2.442470387
0.75700,-1.221692756
0.75750,-1.832081572
0.75800,-2.13727598
0.75850,-1.526887164
0.75900,-0.6113039411
0.75950,-0.0009151256603
0.76000,0.304279282
0.76050,1.830251321
0.76100,3.051028951
0.76150,2.440640136
0.76200,0.9146680974
0.76250,0.9146680974
0.76300,2.440640136
0.76350,3.356223359
0.76400,2.745834544
0.76450,2.745834544
0.76500,3.966612174
0.76550,4.57700099
0.76600,3.966612174
0.76650,3.966612174
0.76700,4.882195398
0.76750,5.187389805
0.76800,4.271806582
0.76850,3.661417767
0.76900,5.187389805
0.76950,6.408167436
0.77000,5.797778621
0.77050,4.882195398
0.77100,4.882195398
0.77150,5.797778621
0.77200,5.797778621
0.77250,5.492584213
0.77300,5.797778621
0.77350,6.408167436
0.77400,6.102973028
0.77450,6.713361844
0.77500,8.849722698
0.77550,10.37569474
0.77600,10.07050033
0.77650,8.54452829
0.77700,7.628945067
0.77750,6.408167436
0.77800,3.051028951
0.77850,-0.6113039411
0.77900,-2.13727598
0.77950,-2.442470387
0.78000,-5.189220057
0.78050,-9.767136172
0.78100,-11.59830262
0.78150,-9.156747357
0.78200,-6.715192095
0.78250,-8.546358541
0.78300,-12.51388584
0.78350,-14.34505229
0.78400,-13.12427466
0.78450,-11.29310821
0.78500,-10.9879138
0.78550,-11.59830262
0.78600,-12.51388584
0.78650,-12.51388584
0.78700,-10.9879138
0.78750,-8.546358541
0.78800,-6.409997687
0.78850,-5.494414464
0.78900,-4.273636833
0.78950,-1.832081572
0.79000,-0.0009151256603
0.79050,-0.3061095334
0.79100,-1.221692756
0.79150,-0.0009151256603
0.79200,3.661417767
0.79250,5.492584213
0.79300,4.57700099
0.79350,2.745834544
0.79400,1.219862505
0.79450,0.6094736897
0.79500,-0.0009151256603
0.79550,-0.0009151256603
0.79600,-0.0009151256603
0.79650,-0.3061095334
0.79700,-0.6113039411
0.79750,0.304279282
0.79800,2.440640136
0.79850,3.966612174
0.79900,3.661417767
0.79950,3.966612174
0.80000,6.713361844
0.80050,9.765305921
0.80100,10.37569474
0.80150,7.628945067
0.80200,3.966612174
0.80250,1.525056913
0.80300,0.9146680974
0.80350,0.6094736897
0.80400,-0.0009151256603
0.80450,-1.526887164
0.80500,-3.663248018
0.80550,-4.884025649
0.80600,-5.494414464
0.80650,-6.10480328
0.80700,-6.10480328
0.80750,-5.799608872
0.80800,-6.10480328
0.80850,-7.020386503
0.80900,-9.156747357
0.80950,-9.767136172
0.81000,-9.156747357
0.81050,-7.935969726
0.81100,-7.630775318
0.81150,-7.32558091
0.81200,-4.884025649
0.81250,-1.526887164
0.81300,-0.0009151256603
0.81350,-0.9164983488
0.81400,-3.052859203
0.81450,-3.35805361
0.81500,-1.221692756
0.81550,-0.0009151256603
0.81600,-0.0009151256603
0.81650,-0.3061095334
0.81700,-0.0009151256603
0.81750,0.6094736897
0.81800,0.6094736897
0.81850,0.6094736897
0.81900,1.830251321
0.81950,3.661417767
0.82000,4.57700099
0.82050,3.966612174
0.82100,3.051028951
0.82150,2.440640136
0.82200,2.135445728
0.82250,3.051028951
0.82300,3.966612174
0.82350,3.966612174
0.82400,2.745834544
0.82450,1.525056913
0.82500,1.219862505
0.82550,1.830251321
0.82600,2.135445728
0.82650,2.135445728
0.82700,2.440640136
0.82750,2.745834544
0.82800,2.745834544
0.82850,2.135445728
0.82900,1.830251321
0.82950,2.135445728
0.83000,2.135445728
0.83050,1.830251321
0.83100,1.525056913
0.83150,2.135445728
0.83200,3.356223359
0.83250,3.966612174
0.83300,3.356223359
0.83350,1.525056913
0.83400,0.9146680974
0.83450,2.135445728
0.83500,3.966612174
0.83550,3.966612174
0.83600,2.135445728
0.83650,1.219862505
0.83700,2.135445728
0.83750,3.966612174
0.83800,4.271806582
0.83850,3.356223359
0.83900,2.745834544
0.83950,3.356223359
0.84000,4.271806582
0.84050,5.797778621
0.84100,7.628945067
0.84150,8.54452829
0.84200,7.934139475
0.84250,6.713361844
0.84300,7.323750659
0.84350,9.154917105
0.84400,10.07050033
0.84450,9.765305921
0.84500,10.37569474
0.84550,11.90166677
0.84600,12.81725
0.84650,11.90166677
0.84700,11.29127796
0.84750,11.29127796
0.84800,10.07050033
0.84850,6.102973028
0.84900,2.135445728
0.84950,-0.3061095334
0.85000,-3.663248018
0.85050,-8.546358541
0.85100,-13.42946906
0.85150,-16.48141314
0.85200,-18.9229684
0.85250,-21.97491248
0.85300,-23.50088452
0.85350,-22.8904957
0.85400,-20.75413485
0.85450,-20.14374603
0.85500,-19.53335722
0.85550,-16.48141314
0.85600,-10.37752499
0.85650,-3.968442426
0.85700,-0.0009151256603
0.85750,3.966612174
0.85800,8.239333882
0.85850,13.12244441
0.85900,16.7847773
0.85950,18.00555493
0.86000,15.86919407
0.86050,10.98608355
0.86100,6.713361844
0.86150,4.57700099
0.86200,4.271806582
0.86250,2.440640136
0.86300,-0.3061095334
0.86350,-3.968442426
0.86400,-6.10480328
0.86450,-7.020386503
0.86500,-7.020386503
0.86550,-5.799608872
0.86600,-3.052859203
0.86650,-0.0009151256603
0.86700,1.525056913
0.86750,0.9146680974
0.86800,-1.526887164
0.86850,-3.663248018
0.86900,-3.052859203
0.86950,-0.6113039411
0.87000,-0.0009151256603
0.87050,-1.221692756
0.87100,-3.663248018
0.87150,-5.189220057
0.87200,-4.884025649
0.87250,-3.35805361
0.87300,-1.526887164
0.87350,-0.9164983488
0.87400,-2.442470387
0.87450,-5.189220057
0.87500,-6.409997687
0.87550,-6.10480328
0.87600,-4.578831241
0.87650,-3.968442426
0.87700,-5.494414464
0.87750,-7.630775318
0.87800,-8.241164134
0.87850,-6.715192095
0.87900,-4.578831241
0.87950,-3.663248018
0.88000,-3.968442426
0.88050,-4.273636833
0.88100,-5.494414464
0.88150,-8.546358541
0.88200,-10.37752499
0.88250,-8.546358541
0.88300,-4.884025649
0.88350,-3.968442426
0.88400,-6.715192095
0.88450,-8.851552949
0.88500,-9.156747357
0.88550,-8.546358541
0.88600,-8.851552949
0.88650,-7.32558091
0.88700,-3.663248018
0.88750,-0.6113039411
0.88800,-0.0009151256603
0.88850,-0.0009151256603
0.88900,0.9146680974
0.88950,2.745834544
0.89000,5.187389805
0.89050,10.68088914
0.89100,18.00555493
0.89150,21.66788782
0.89200,19.22633256
0.89250,15.56399967
0.89300,14.95361085
0.89350,16.17438848
0.89400,14.03802763
0.89450,9.460111513
0.89500,7.323750659
0.89550,9.154917105
0.89600,10.07050033
0.89650,7.018556251
0.89700,3.661417767
0.89750,3.051028951
0.89800,3.356223359
0.89850,1.525056913
0.89900,-1.832081572
0.89950,-4.273636833
0.90000,-5.189220057
0.90050,-5.799608872
0.90100,-5.494414464
0.90150,-3.35805361
0.90200,-0.9164983488
0.90250,-1.221692756
0.90300,-3.968442426
0.90350,-7.32558091
0.90400,-9.461941764
0.90450,-10.9879138
0.90500,-12.51388584
0.90550,-12.20869143
0.90600,-10.07233058
0.90650,-7.32558091
0.90700,-4.884025649
0.90750,-3.052859203
0.90800,-1.526887164
0.90850,-1.221692756
0.90900,-1.526887164
0.90950,-0.6113039411
0.91000,1.525056913
0.91050,3.051028951
0.91100,1.525056913
0.91150,-1.526887164
0.91200,-3.663248018
0.91250,-3.663248018
0.91300,-2.747664795
0.91350,-2.13727598
0.91400,-2.442470387
0.91450,-3.35805361
0.91500,-4.273636833
0.91550,-4.273636833
0.91600,-4.273636833
0.91650,-4.578831241
0.91700,-5.799608872
0.91750,-5.799608872
0.91800,-3.35805361
0.91850,-0.3061095334
0.91900,1.830251321
0.91950,3.051028951
0.92000,5.492584213
0.92050,8.239333882
0.92100,9.765305921
0.92150,10.07050033
0.92200,9.765305921
0.92250,9.765305921
0.92300,10.07050033
0.92350,9.154917105
0.92400,7.934139475
0.92450,6.408167436
0.92500,6.713361844
0.92550,8.849722698
0.92600,12.51205559
0.92650,16.7847773
0.92700,19.83672137
0.92750,20.14191578
0.92800,17.70036052
0.92850,13.73283322
0.92900,11.59647237
0.92950,12.20686118
0.93000,13.73283322
0.93050,12.20686118
0.93100,6.713361844
0.93150,-0.0009151256603
0.93200,-4.884025649
0.93250,-8.241164134
0.93300,-10.9879138
0.93350,-14.34505229
0.93400,-18.31257959
0.93450,-21.36452366
0.93500,-21.97491248
0.93550,-21.05932926
0.93600,-19.83855163
0.93650,-19.22816281
0.93700,-18.31257959
0.93750,-17.09180196
0.93800,-17.09180196
0.93850,-15.87102433
0.93900,-10.07233058
0.93950,0.6094736897
0.94000,9.765305921
0.94050,10.98608355
0.94100,6.408167436
0.94150,2.135445728
0.94200,2.135445728
0.94250,3.661417767
0.94300,3.356223359
0.94350,0.304279282
0.94400,-3.052859203
0.94450,-6.715192095
0.94500,-8.851552949
0.94550,-8.546358541
0.94600,-7.020386503
0.94650,-6.715192095
0.94700,-8.241164134
0.94750,-9.461941764
0.94800,-8.546358541
0.94850,-5.799608872
0.94900,-4.273636833
0.94950,-3.663248018
0.95000,-3.35805361
0.95050,-2.442470387
0.95100,-2.747664795
0.95150,-4.884025649
0.95200,-6.715192095
0.95250,-5.799608872
0.95300,-2.747664795
0.95350,0.6094736897
0.95400,2.745834544
0.95450,4.271806582
0.95500,4.882195398
0.95550,4.882195398
0.95600,4.57700099
0.95650,4.271806582
0.95700,4.271806582
0.95750,3.661417767
0.95800,3.356223359
0.95850,3.966612174
0.95900,5.187389805
0.95950,6.102973028
0.96000,5.797778621
0.96050,4.882195398
0.96100,4.57700099
0.96150,4.271806582
0.96200,4.57700099
0.96250,4.882195398
0.96300,5.492584213
0.96350,5.797778621
0.96400,7.018556251
0.96450,9.154917105
0.96500,11.59647237
0.96550,12.81725
0.96600,12.81725
0.96650,11.90166677
0.96700,9.460111513
0.96750,6.408167436
0.96800,4.882195398
0.96850,5.797778621
0.96900,6.102973028
0.96950,3.661417767
0.97000,-0.0009151256603
0.97050,-1.832081572
0.97100,-0.0009151256603
0.97150,1.830251321
0.97200,2.135445728
0.97250,0.6094736897
0.97300,-0.9164983488
0.97350,-3.968442426
0.97400,-7.935969726
0.97450,-10.6827194
0.97500,-10.6827194
0.97550,-9.156747357
0.97600,-7.935969726
0.97650,-7.935969726
0.97700,-9.461941764
0.97750,-11.29310821
0.97800,-11.90349703
0.97850,-10.6827194
0.97900,-8.851552949
0.97950,-7.32558091
0.98000,-7.32558091
0.98050,-7.630775318
0.98100,-6.409997687
0.98150,-3.968442426
0.98200,-1.221692756
0.98250,-0.0009151256603
0.98300,-0.0009151256603
0.98350,-1.221692756
0.98400,-1.832081572
0.98450,-0.6113039411
0.98500,0.9146680974
0.98550,1.525056913
0.98600,1.525056913
0.98650,2.440640136
0.98700,4.271806582
0.98750,4.882195398
0.98800,3.356223359
0.98850,1.219862505
0.98900,0.304279282
0.98950,1.219862505
0.99000,2.135445728
0.99050,3.356223359
0.99100,3.966612174
0.99150,4.271806582
0.99200,3.661417767
0.99250,3.051028951
0.99300,2.440640136
0.99350,1.830251321
0.99400,1.219862505
0.99450,1.219862505
0.99500,1.830251321
0.99550,2.135445728
0.99600,1.525056913
0.99650,1.219862505
0.99700,2.135445728
0.99750,2.440640136
0.99800,1.219862505
0.99850,-0.6113039411
0.99900,-1.526887164
0.99950,-0.0009151256603
1.00000,1.525056913
1.00050,2.135445728
1.00100,1.525056913
1.00150,1.525056913
1.00200,1.830251321
1.00250,1.525056913
1.00300,0.9146680974
1.00350,0.6094736897
1.00400,1.219862505
1.00450,1.830251321
1.00500,1.830251321
1.00550,1.219862505
1.00600,0.9146680974
1.00650,0.9146680974
1.00700,1.525056913
1.00750,2.440640136
1.00800,2.745834544
1.00850,2.440640136
1.00900,1.219862505
1.00950,-0.0009151256603
1.01000,-0.0009151256603
1.01050,0.9146680974
1.01100,3.051028951
1.01150,4.271806582
1.01200,3.356223359
1.01250,1.525056913
1.01300,1.219862505
1.01350,2.135445728
1.01400,2.135445728
1.01450,0.9146680974
1.01500,-0.0009151256603
1.01550,0.304279282
1.01600,0.6094736897
1.01650,-0.0009151256603
1.01700,-0.0009151256603
1.01750,-0.0009151256603
1.01800,0.9146680974
1.01850,0.304279282
1.01900,-0.6113039411
1.01950,-0.9164983488
1.02000,-0.3061095334
1.02050,-0.3061095334
1.02100,-0.9164983488
1.02150,-0.0009151256603
1.02200,1.830251321
1.02250,2.440640136
1.02300,1.219862505
1.02350,-0.0009151256603
1.02400,-0.0009151256603
1.02450,0.9146680974
1.02500,0.304279282
1.02550,-0.6113039411
1.02600,-0.6113039411
1.02650,0.304279282
1.02700,0.9146680974
1.02750,0.6094736897
1.02800,0.6094736897
1.02850,0.9146680974
1.02900,0.9146680974
1.02950,-0.0009151256603
1.03000,0.304279282
1.03050,0.9146680974
1.03100,0.9146680974
1.03150,-0.0009151256603
1.03200,-0.0009151256603
1.03250,1.219862505
1.03300,2.135445728
1.03350,2.135445728
1.03400,0.9146680974
1.03450,0.304279282
1.03500,0.304279282
1.03550,0.304279282
1.03600,0.9146680974
1.03650,1.830251321
1.03700,2.135445728
1.03750,2.135445728
1.03800,2.135445728
1.03850,3.356223359
1.03900,5.797778621
1.03950,8.239333882
1.04000,8.849722698
1.04050,7.934139475
1.04100,6.713361844
1.04150,6.713361844
1.04200,7.628945067
1.04250,7.628945067
1.04300,4.882195398
1.04350,1.219862505
1.04400,-1.526887164
1.04450,-3.35805361
1.04500,-6.10480328
1.04550,-10.07233058
1.04600,-13.12427466
1.04650,-14.34505229
1.04700,-13.42946906
1.04750,-12.51388584
1.04800,-11.29310821
1.04850,-9.156747357
1.04900,-6.715192095
1.04950,-4.884025649
1.05000,-3.052859203
1.05050,-1.526887164
1.05100,-0.0009151256603
1.05150,1.525056913
1.05200,2.135445728
1.05250,1.219862505
1.05300,-0.0009151256603
1.05350,-1.526887164
1.05400,-1.221692756
1.05450,-0.0009151256603
1.05500,1.525056913
1.05550,1.830251321
1.05600,2.135445728
1.05650,3.661417767
1.05700,4.882195398
1.05750,4.271806582
1.05800,3.051028951
1.05850,2.440640136
1.05900,2.745834544
1.05950,2.745834544
1.06000,1.219862505
1.06050,-0.0009151256603
1.06100,-0.6113039411
1.06150,-1.221692756
1.06200,-3.35805361
1.06250,-5.494414464
1.06300,-4.884025649
1.06350,-1.221692756
1.06400,3.051028951
1.06450,5.797778621
1.06500,4.882195398
1.06550,1.830251321
1.06600,-0.9164983488
1.06650,-1.832081572
1.06700,-1.221692756
1.06750,-1.221692756
1.06800,-3.052859203
1.06850,-5.189220057
1.06900,-5.799608872
1.06950,-5.189220057
1.07000,-4.578831241
1.07050,-5.189220057
1.07100,-6.409997687
1.07150,-7.32558091
1.07200,-8.241164134
1.07250,-9.461941764
1.07300,-10.37752499
1.07350,-9.461941764
1.07400,-6.715192095
1.07450,-2.747664795
1.07500,-0.3061095334
1.07550,-0.6113039411
1.07600,-3.663248018
1.07650,-6.10480328
1.07700,-6.409997687
1.07750,-5.799608872
1.07800,-6.409997687
1.07850,-8.546358541
1.07900,-10.07233058
1.07950,-9.767136172
1.08000,-8.851552949
1.08050,-7.630775318
1.08100,-4.884025649
1.08150,-1.221692756
1.08200,1.219862505
1.08250,0.9146680974
1.08300,-0.0009151256603
1.08350,-0.9164983488
1.08400,-0.6113039411
1.08450,-0.0009151256603
1.08500,0.6094736897
1.08550,2.440640136
1.08600,4.882195398
1.08650,6.102973028
1.08700,6.102973028
1.08750,5.492584213
1.08800,5.187389805
1.08850,4.57700099
1.08900,3.661417767
1.08950,3.051028951
1.09000,3.051028951
1.09050,3.661417767
1.09100,3.356223359
1.09150,2.440640136
1.09200,2.135445728
1.09250,3.051028951
1.09300,4.271806582
1.09350,3.661417767
1.09400,2.135445728
1.09450,2.440640136
1.09500,3.966612174
1.09550,4.57700099
1.09600,3.051028951
1.09650,1.219862505
1.09700,1.525056913
1.09750,3.051028951
1.09800,3.051028951
1.09850,1.830251321
1.09900,1.219862505
1.09950,1.525056913
1.10000,2.135445728
1.10050,2.135445728
1.10100,1.830251321
1.10150,1.525056913
1.10200,1.219862505
1.10250,0.9146680974
1.10300,0.9146680974
1.10350,0.6094736897
1.10400,0.9146680974
1.10450,1.525056913
1.10500,2.745834544
1.10550,3.051028951
1.10600,1.525056913
1.10650,-0.0009151256603
1.10700,-0.0009151256603
1.10750,1.219862505
1.10800,1.219862505
1.10850,-0.0009151256603
1.10900,-0.0009151256603
1.10950,2.135445728
1.11000,3.661417767
1.11050,3.661417767
1.11100,3.661417767
1.11150,5.187389805
1.11200,7.934139475
1.11250,9.460111513
1.11300,9.765305921
1.11350,10.07050033
1.11400,10.37569474
1.11450,9.460111513
1.11500,7.018556251
1.11550,3.356223359
1.11600,-0.0009151256603
1.11650,-3.35805361
1.11700,-5.799608872
1.11750,-7.020386503
1.11800,-7.32558091
1.11850,-6.10480328
1.11900,-3.663248018
1.11950,-1.221692756
1.12000,0.304279282
1.12050,0.9146680974
1.12100,1.525056913
1.12150,2.745834544
1.12200,4.57700099
1.12250,7.018556251
1.12300,10.07050033
1.12350,13.12244441
1.12400,13.42763881
1.12450,11.29127796
1.12500,8.239333882
1.12550,7.018556251
1.12600,6.408167436
1.12650,5.797778621
1.12700,4.57700099
1.12750,3.051028951
1.12800,0.304279282
1.12850,-2.13727598
1.12900,-2.747664795
1.12950,-0.9164983488
1.13000,-0.0009151256603
1.13050,-1.526887164
1.13100,-5.189220057
1.13150,-6.409997687
1.13200,-5.799608872
1.13250,-6.715192095
1.13300,-9.767136172
1.13350,-11.29310821
1.13400,-9.767136172
1.13450,-5.494414464
1.13500,-2.13727598
1.13550,-2.13727598
1.13600,-4.884025649
1.13650,-8.851552949
1.13700,-11.90349703
1.13750,-13.12427466
1.13800,-13.12427466
1.13850,-13.42946906
1.13900,-14.03985788
1.13950,-14.6502467
1.14000,-15.26063551
1.14050,-15.26063551
1.14100,-12.20869143
1.14150,-6.715192095
1.14200,-2.747664795
1.14250,-3.663248018
1.14300,-7.630775318
1.14350,-10.37752499
1.14400,-11.29310821
1.14450,-12.20869143
1.14500,-12.81908025
1.14550,-10.37752499
1.14600,-6.409997687
1.14650,-4.578831241
1.14700,-5.189220057
1.14750,-4.884025649
1.14800,-1.526887164
1.14850,2.440640136
1.14900,3.661417767
1.14950,3.661417767
1.15000,4.57700099
1.15050,6.713361844
1.15100,6.713361844
1.15150,4.57700099
1.15200,2.440640136
1.15250,2.745834544
1.15300,3.661417767
1.15350,3.966612174
1.15400,3.356223359
1.15450,3.356223359
1.15500,4.57700099
1.15550,4.57700099
1.15600,3.356223359
1.15650,2.745834544
1.15700,3.661417767
1.15750,4.57700099
1.15800,4.882195398
1.15850,4.271806582
1.15900,3.661417767
1.15950,3.661417767
1.16000,2.745834544
1.16050,1.830251321
1.16100,1.525056913
1.16150,2.135445728
1.16200,3.356223359
1.16250,4.57700099
1.16300,5.187389805
1.16350,5.492584213
1.16400,4.271806582
1.16450,2.745834544
1.16500,1.830251321
1.16550,2.745834544
1.16600,4.271806582
1.16650,5.187389805
1.16700,4.271806582
1.16750,2.440640136
1.16800,2.135445728
1.16850,3.356223359
1.16900,4.271806582
1.16950,3.966612174
1.17000,3.661417767
1.17050,5.492584213
1.17100,9.154917105
1.17150,11.29127796
1.17200,10.37569474
1.17250,8.54452829
1.17300,8.239333882
1.17350,8.239333882
1.17400,6.713361844
1.17450,3.661417767
1.17500,1.525056913
1.17550,1.219862505
1.17600,1.219862505
1.17650,0.304279282
1.17700,-1.221692756
1.17750,-1.221692756
1.17800,0.6094736897
1.17850,3.356223359
1.17900,5.492584213
1.17950,5.797778621
1.18000,4.882195398
1.18050,4.271806582
1.18100,4.882195398
1.18150,6.713361844
1.18200,8.239333882
1.18250,7.934139475
1.18300,4.882195398
1.18350,1.525056913
1.18400,-0.3061095334
1.18450,-1.832081572
1.18500,-3.968442426
1.18550,-7.32558091
1.18600,-10.37752499
1.18650,-11.90349703
1.18700,-13.12427466
1.18750,-13.73466347
1.18800,-12.20869143
1.18850,-7.32558091
1.18900,-1.832081572
1.18950,1.525056913
1.19000,3.356223359
1.19050,6.408167436
1.19100,10.68088914
1.19150,13.12244441
1.19200,11.59647237
1.19250,7.628945067
1.19300,5.492584213
1.19350,5.492584213
1.19400,5.797778621
1.19450,4.882195398
1.19500,3.051028951
1.19550,1.525056913
1.19600,-0.0009151256603
1.19650,-2.13727598
1.19700,-6.409997687
1.19750,-11.29310821
1.19800,-15.26063551
1.19850,-17.39699636
1.19900,-18.31257959
1.19950,-18.31257959
1.20000,-18.31257959
1.20050,-18.31257959
1.20100,-17.39699636
1.20150,-16.48141314
1.20200,-16.78660755
1.20250,-17.09180196
1.20300,-15.26063551
1.20350,-12.20869143
1.20400,-10.9879138
1.20450,-13.12427466
1.20500,-15.26063551
1.20550,-12.81908025
1.20600,-4.884025649
1.20650,2.440640136
1.20700,6.102973028
1.20750,5.797778621
1.20800,3.966612174
1.20850,2.440640136
1.20900,2.440640136
1.20950,3.966612174
1.21000,5.797778621
1.21050,6.102973028
1.21100,5.492584213
1.21150,7.018556251
1.21200,10.68088914
1.21250,12.81725
1.21300,10.68088914
1.21350,6.408167436
1.21400,4.271806582
1.21450,4.57700099
1.21500,4.57700099
1.21550,3.051028951
1.21600,2.135445728
1.21650,3.051028951
1.21700,3.661417767
1.21750,1.830251321
1.21800,-0.0009151256603
1.21850,-0.0009151256603
1.21900,1.525056913
1.21950,1.525056913
1.22000,-0.0009151256603
1.22050,-0.6113039411
1.22100,-0.9164983488
1.22150,-0.9164983488
1.22200,-1.221692756
1.22250,-0.0009151256603
1.22300,3.051028951
1.22350,5.187389805
1.22400,4.57700099
1.22450,3.356223359
1.22500,3.966612174
1.22550,5.187389805
1.22600,4.57700099
1.22650,2.745834544
1.22700,1.525056913
1.22750,2.135445728
1.22800,4.271806582
1.22850,8.239333882
1.22900,13.42763881
1.22950,18.00555493
1.23000,20.44711019
1.23050,21.36269341
1.23100,21.97308223
1.23150,21.05749901
1.23200,17.70036052
1.23250,12.51205559
1.23300,8.54452829
1.23350,4.882195398
1.23400,-1.221692756
1.23450,-10.07233058
1.23500,-17.09180196
1.23550,-19.83855163
1.23600,-20.14374603
1.23650,-21.05932926
1.23700,-21.66971807
1.23750,-19.53335722
1.23800,-16.78660755
1.23850,-15.26063551
1.23900,-14.34505229
1.23950,-12.20869143
1.24000,-8.851552949
1.24050,-7.32558091
1.24100,-7.935969726
1.24150,-9.461941764
1.24200,-10.37752499
1.24250,-10.6827194
1.24300,-9.767136172
1.24350,-6.10480328
1.24400,-0.6113039411
1.24450,2.440640136
1.24500,2.440640136
1.24550,3.051028951
1.24600,7.018556251
1.24650,11.90166677
1.24700,14.03802763
1.24750,12.20686118
1.24800,9.765305921
1.24850,7.323750659
1.24900,4.57700099
1.24950,2.135445728
1.25000,0.6094736897
1.25050,0.304279282
1.25100,0.304279282
1.25150,0.9146680974
1.25200,1.525056913
1.25250,0.304279282
1.25300,-3.052859203
1.25350,-7.020386503
1.25400,-9.156747357
1.25450,-10.07233058
1.25500,-11.29310821
1.25550,-11.90349703
1.25600,-8.851552949
1.25650,-3.052859203
1.25700,1.219862505
1.25750,2.135445728
1.25800,0.6094736897
1.25850,0.304279282
1.25900,0.304279282
1.25950,-0.0009151256603
1.26000,-0.9164983488
1.26050,-1.221692756
1.26100,-0.9164983488
1.26150,-0.0009151256603
1.26200,0.304279282
1.26250,0.6094736897
1.26300,0.6094736897
1.26350,0.9146680974
1.26400,2.440640136
1.26450,4.882195398
1.26500,7.323750659
1.26550,8.54452829
1.26600,7.934139475
1.26650,6.102973028
1.26700,4.57700099
1.26750,4.57700099
1.26800,5.187389805
1.26850,4.57700099
1.26900,2.440640136
1.26950,1.219862505
1.27000,1.830251321
1.27050,2.745834544
1.27100,3.051028951
1.27150,4.271806582
1.27200,6.408167436
1.27250,6.713361844
1.27300,4.57700099
1.27350,2.135445728
1.27400,1.830251321
1.27450,3.966612174
1.27500,5.492584213
1.27550,6.102973028
1.27600,6.713361844
1.27650,7.018556251
1.27700,6.102973028
1.27750,3.661417767
1.27800,1.525056913
1.27850,1.830251321
1.27900,2.745834544
1.27950,3.051028951
1.28000,2.440640136
1.28050,1.525056913
1.28100,0.6094736897
1.28150,-0.0009151256603
1.28200,0.304279282
1.28250,3.356223359
1.28300,6.713361844
1.28350,6.713361844
1.28400,2.745834544
1.28450,-2.442470387
1.28500,-5.799608872
1.28550,-6.409997687
1.28600,-6.10480328
1.28650,-6.409997687
1.28700,-6.715192095
1.28750,-6.715192095
1.28800,-7.020386503
1.28850,-8.546358541
1.28900,-9.156747357
1.28950,-7.935969726
1.29000,-4.884025649
1.29050,-3.052859203
1.29100,-4.273636833
1.29150,-7.630775318
1.29200,-10.6827194
1.29250,-11.90349703
1.29300,-9.767136172
1.29350,-5.494414464
1.29400,-1.526887164
1.29450,0.304279282
1.29500,-0.9164983488
1.29550,-5.494414464
1.29600,-10.37752499
1.29650,-12.81908025
1.29700,-11.29310821
1.29750,-6.715192095
1.29800,-0.0009151256603
1.29850,6.102973028
1.29900,7.934139475
1.29950,4.271806582
1.30000,-1.221692756
1.30050,-4.884025649
1.30100,-4.884025649
1.30150,-3.968442426
1.30200,-3.663248018
1.30250,-3.968442426
1.30300,-3.968442426
1.30350,-3.968442426
1.30400,-3.052859203
1.30450,-1.832081572
1.30500,-1.221692756
1.30550,-3.052859203
1.30600,-4.273636833
1.30650,-2.442470387
1.30700,0.9146680974
1.30750,2.745834544
1.30800,1.830251321
1.30850,1.830251321
1.30900,3.966612174
1.30950,6.102973028
1.31000,5.492584213
1.31050,3.051028951
1.31100,0.9146680974
1.31150,-0.0009151256603
1.31200,-0.3061095334
1.31250,0.6094736897
1.31300,3.051028951
1.31350,4.271806582
1.31400,3.661417767
1.31450,3.051028951
1.31500,2.745834544
1.31550,1.219862505
1.31600,-0.6113039411
1.31650,-0.9164983488
1.31700,1.219862505
1.31750,3.661417767
1.31800,3.966612174
1.31850,3.051028951
1.31900,3.661417767
1.31950,4.882195398
1.32000,5.187389805
1.32050,5.492584213
1.32100,7.018556251
1.32150,7.934139475
1.32200,6.408167436
1.32250,3.661417767
1.32300,2.135445728
1.32350,1.830251321
1.32400,1.219862505
1.32450,0.6094736897
1.32500,2.135445728
1.32550,4.57700099
1.32600,5.187389805
1.32650,4.271806582
1.32700,4.57700099
1.32750,5.797778621
1.32800,6.408167436
1.32850,6.102973028
1.32900,6.408167436
1.32950,7.018556251
1.33000,7.018556251
1.33050,6.713361844
1.33100,6.408167436
1.33150,4.882195398
1.33200,0.6094736897
1.33250,-3.35805361
1.33300,-4.273636833
1.33350,-1.832081572
1.33400,-0.3061095334
1.33450,-0.3061095334
1.33500,-0.0009151256603
1.33550,1.525056913
1.33600,2.440640136
1.33650,2.135445728
1.33700,2.745834544
1.33750,4.882195398
1.33800,4.57700099
1.33850,0.9146680974
1.33900,-3.052859203
1.33950,-4.884025649
1.34000,-5.494414464
1.34050,-5.189220057
1.34100,-2.442470387
1.34150,2.745834544
1.34200,6.713361844
1.34250,7.018556251
1.34300,7.934139475
1.34350,11.90166677
1.34400,16.17438848
1.34450,14.64841644
1.34500,8.849722698
1.34550,4.271806582
1.34600,3.356223359
1.34650,1.219862505
1.34700,-3.968442426
1.34750,-9.767136172
1.34800,-11.29310821
1.34850,-7.935969726
1.34900,-3.052859203
1.34950,1.219862505
1.35000,4.882195398
1.35050,7.323750659
1.35100,8.849722698
1.35150,11.59647237
1.35200,14.34322204
1.35250,14.03802763
1.35300,9.460111513
1.35350,3.356223359
1.35400,-2.13727598
1.35450,-9.156747357
1.35500,-18.31257959
1.35550,-25.94243978
1.35600,-29.60477267
1.35650,-29.90996708
1.35700,-31.74113353
1.35750,-35.09827201
1.35800,-36.92943846
1.35850,-34.4878832
1.35900,-28.68918945
1.35950,-22.5853013
1.36000,-18.617774
1.36050,-15.87102433
1.36100,-12.81908025
1.36150,-8.241164134
1.36200,-4.273636833
1.36250,-3.663248018
1.36300,-5.189220057
1.36350,-4.884025649
1.36400,-2.13727598
1.36450,-0.0009151256603
1.36500,0.304279282
1.36550,0.6094736897
1.36600,2.440640136
1.36650,3.051028951
1.36700,1.219862505
1.36750,-0.9164983488
1.36800,-0.3061095334
1.36850,1.830251321
1.36900,3.051028951
1.36950,2.440640136
1.37000,1.525056913
1.37050,1.525056913
1.37100,2.135445728
1.37150,2.440640136
1.37200,1.525056913
1.37250,-0.3061095334
1.37300,-1.221692756
1.37350,-0.0009151256603
1.37400,3.051028951
1.37450,6.102973028
1.37500,6.713361844
1.37550,5.797778621
1.37600,4.271806582
1.37650,2.135445728
1.37700,0.9146680974
1.37750,1.219862505
1.37800,1.830251321
1.37850,0.9146680974
1.37900,-0.3061095334
1.37950,-0.0009151256603
1.38000,2.135445728
1.38050,3.966612174
1.38100,3.661417767
1.38150,2.745834544
1.38200,3.661417767
1.38250,5.492584213
1.38300,7.018556251
1.38350,7.628945067
1.38400,7.323750659
1.38450,7.018556251
1.38500,6.408167436
1.38550,5.797778621
1.38600,4.882195398
1.38650,4.57700099
1.38700,6.102973028
1.38750,8.849722698
1.38800,11.29127796
1.38850,11.59647237
1.38900,11.29127796
1.38950,11.59647237
1.39000,11.59647237
1.39050,10.37569474
1.39100,9.765305921
1.39150,12.81725
1.39200,18.00555493
1.39250,21.36269341
1.39300,20.44711019
1.39350,17.39516611
1.39400,15.56399967
1.39450,15.56399967
1.39500,16.47958289
1.39550,17.39516611
1.39600,17.70036052
1.39650,17.08997171
1.39700,16.17438848
1.39750,14.34322204
1.39800,11.59647237
1.39850,7.323750659
1.39900,3.356223359
1.39950,0.304279282
1.40000,-4.273636833
1.40050,-12.51388584
1.40100,-22.28010689
1.40150,-28.68918945
1.40200,-32.35152234
1.40250,-35.40346642
1.40300,-37.84502168
1.40350,-37.84502168
1.40400,-35.70866083
1.40450,-34.4878832
1.40500,-33.26710557
1.40550,-26.858023
1.40600,-14.34505229
1.40650,-1.221692756
1.40700,5.797778621
1.40750,8.54452829
1.40800,11.90166677
1.40850,17.70036052
1.40900,21.36269341
1.40950,18.92113815
1.41000,12.81725
1.41050,7.323750659
1.41100,3.661417767
1.41150,-0.9164983488
1.41200,-8.851552949
1.41250,-16.78660755
1.41300,-21.05932926
1.41350,-21.36452366
1.41400,-20.44894044
1.41450,-19.22816281
1.41500,-14.6502467
1.41550,-5.189220057
1.41600,5.492584213
1.41650,11.90166677
1.41700,13.42763881
1.41750,14.34322204
1.41800,18.31074934
1.41850,22.58347104
1.41900,20.44711019
1.41950,10.07050033
1.42000,-3.052859203
1.42050,-13.42946906
1.42100,-17.70219077
1.42150,-18.617774
1.42200,-19.22816281
1.42250,-20.14374603
1.42300,-19.83855163
1.42350,-18.617774
1.42400,-19.22816281
1.42450,-23.19569011
1.42500,-28.38399504
1.42550,-28.99438386
1.42600,-22.5853013
1.42650,-12.51388584
1.42700,-4.578831241
1.42750,-0.3061095334
1.42800,1.830251321
1.42850,5.187389805
1.42900,8.239333882
1.42950,8.849722698
1.43000,8.239333882
1.43050,8.849722698
1.43100,11.59647237
1.43150,13.42763881
1.43200,14.03802763
1.43250,14.64841644
1.43300,16.7847773
1.43350,18.31074934
1.43400,18.00555493
1.43450,17.39516611
1.43500,17.39516611
1.43550,16.7847773
1.43600,13.42763881
1.43650,8.849722698
1.43700,5.492584213
1.43750,4.882195398
1.43800,5.492584213
1.43850,5.797778621
1.43900,5.492584213
1.43950,4.882195398
1.44000,3.356223359
1.44050,1.525056913
1.44100,-0.0009151256603
1.44150,-1.221692756
1.44200,-1.221692756
1.44250,-0.6113039411
1.44300,-0.9164983488
1.44350,-2.747664795
1.44400,-4.884025649
1.44450,-5.189220057
1.44500,-4.884025649
1.44550,-6.715192095
1.44600,-10.37752499
1.44650,-11.90349703
1.44700,-9.461941764
1.44750,-6.10480328
1.44800,-4.273636833
1.44850,-3.35805361
1.44900,-1.832081572
1.44950,-0.6113039411
1.45000,-0.6113039411
1.45050,-1.526887164
1.45100,-2.13727598
1.45150,-3.968442426
1.45200,-7.020386503
1.45250,-8.851552949
1.45300,-7.32558091
1.45350,-3.663248018
1.45400,-0.0009151256603
1.45450,2.440640136
1.45500,3.661417767
1.45550,3.051028951
1.45600,1.219862505
1.45650,0.6094736897
1.45700,1.830251321
1.45750,3.661417767
1.45800,3.966612174
1.45850,3.356223359
1.45900,2.440640136
1.45950,1.219862505
1.46000,0.304279282
1.46050,1.219862505
1.46100,4.271806582
1.46150,6.408167436
1.46200,5.187389805
1.46250,1.525056913
1.46300,-0.6113039411
1.46350,-0.6113039411
1.46400,0.6094736897
1.46450,2.135445728
1.46500,2.745834544
1.46550,2.745834544
1.46600,1.830251321
1.46650,1.219862505
1.46700,1.830251321
1.46750,3.966612174
1.46800,6.713361844
1.46850,8.239333882
1.46900,8.54452829
1.46950,8.54452829
1.47000,8.849722698
1.47050,9.154917105
1.47100,8.54452829
1.47150,8.239333882
1.47200,10.07050033
1.47250,13.42763881
1.47300,15.56399967
1.47350,15.25880526
1.47400,14.64841644
1.47450,16.17438848
1.47500,18.31074934
1.47550,17.70036052
1.47600,13.42763881
1.47650,8.54452829
1.47700,4.882195398
1.47750,2.745834544
1.47800,-0.0009151256603
1.47850,-3.968442426
1.47900,-9.156747357
1.47950,-13.42946906
1.48000,-15.56582992
1.48050,-15.56582992
1.48100,-15.56582992
1.48150,-15.56582992
1.48200,-16.17621873
1.48250,-17.09180196
1.48300,-18.00738518
1.48350,-16.17621873
1.48400,-10.6827194
1.48450,-3.35805361
1.48500,1.830251321
1.48550,4.882195398
1.48600,8.54452829
1.48650,13.12244441
1.48700,16.47958289
1.48750,18.00555493
1.48800,21.36269341
1.48850,28.07697038
1.48900,33.87566413
1.48950,33.87566413
1.49000,28.99255361
1.49050,22.88866545
1.49100,16.47958289
1.49150,8.239333882
1.49200,-1.832081572
1.49250,-11.59830262
1.49300,-19.22816281
1.49350,-25.94243978
1.49400,-32.96191116
1.49450,-39.37099372
1.49500,-43.03332661
1.49550,-42.7281322
1.49600,-40.28657694
1.49650,-38.4554105
1.49700,-38.4554105
1.49750,-36.31904964
1.49800,-28.07880063
1.49850,-17.70219077
1.49900,-13.73466347
1.49950,-17.09180196
1.50000,-19.53335722
1.50050,-14.03985788
1.50100,-5.189220057
1.50150,-0.0009151256603
1.50200,1.525056913
1.50250,3.966612174
1.50300,8.54452829
1.50350,10.68088914
1.50400,8.54452829
1.50450,5.187389805
1.50500,3.051028951
1.50550,2.440640136
1.50600,2.135445728
1.50650,2.440640136
1.50700,3.356223359
1.50750,4.57700099
1.50800,6.102973028
1.50850,7.934139475
1.50900,8.849722698
1.50950,7.628945067
1.51000,5.492584213
1.51050,4.57700099
1.51100,3.966612174
1.51150,2.135445728
1.51200,0.304279282
1.51250,0.304279282
1.51300,1.525056913
1.51350,1.830251321
1.51400,0.9146680974
1.51450,1.219862505
1.51500,3.661417767
1.51550,5.797778621
1.51600,5.187389805
1.51650,1.830251321
1.51700,-0.6113039411
1.51750,-0.3061095334
1.51800,2.440640136
1.51850,6.102973028
1.51900,7.628945067
1.51950,6.713361844
1.52000,4.57700099
1.52050,3.661417767
1.52100,3.966612174
1.52150,4.57700099
1.52200,4.57700099
1.52250,3.966612174
1.52300,3.356223359
1.52350,2.440640136
1.52400,0.9146680974
1.52450,0.304279282
1.52500,1.525056913
1.52550,3.051028951
1.52600,2.440640136
1.52650,0.304279282
1.52700,-0.0009151256603
1.52750,0.9146680974
1.52800,1.830251321
1.52850,1.219862505
1.52900,1.219862505
1.52950,3.966612174
1.53000,8.54452829
1.53050,10.98608355
1.53100,10.68088914
1.53150,9.765305921
1.53200,10.98608355
1.53250,15.56399967
1.53300,21.97308223
1.53350,26.24580394
1.53400,25.63541512
1.53450,21.36269341
1.53500,18.61594374
1.53550,20.44711019
1.53600,23.19385986
1.53650,22.27827664
1.53700,16.7847773
1.53750,9.460111513
1.53800,3.661417767
1.53850,0.304279282
1.53900,-1.221692756
1.53950,-3.35805361
1.54000,-7.32558091
1.54050,-13.12427466
1.54100,-18.31257959
1.54150,-22.28010689
1.54200,-26.24763419
1.54250,-29.90996708
1.54300,-32.35152234
1.54350,-33.26710557
1.54400,-32.96191116
1.54450,-32.35152234
1.54500,-29.29957827
1.54550,-24.41646774
1.54600,-19.22816281
1.54650,-14.6502467
1.54700,-10.07233058
1.54750,-5.189220057
1.54800,-1.832081572
1.54850,-0.3061095334
1.54900,1.830251321
1.54950,6.408167436
1.55000,10.07050033
1.55050,10.37569474
1.55100,9.460111513
1.55150,9.460111513
1.55200,9.765305921
1.55250,8.849722698
1.55300,7.628945067
1.55350,9.154917105
1.55400,11.90166677
1.55450,13.42763881
1.55500,12.20686118
1.55550,10.37569474
1.55600,8.239333882
1.55650,5.492584213
1.55700,2.135445728
1.55750,-0.0009151256603
1.55800,-1.832081572
1.55850,-5.799608872
1.55900,-11.59830262
1.55950,-16.48141314
1.56000,-19.22816281
1.56050,-21.05932926
1.56100,-22.5853013
1.56150,-20.75413485
1.56200,-14.6502467
1.56250,-9.461941764
1.56300,-8.241164134
1.56350,-8.241164134
1.56400,-6.10480328
1.56450,-2.747664795
1.56500,-0.9164983488
1.56550,0.304279282
1.56600,4.882195398
1.56650,10.37569474
1.56700,10.37569474
1.56750,3.966612174
1.56800,-2.13727598
1.56850,-3.052859203
1.56900,0.304279282
1.56950,3.966612174
1.57000,4.882195398
1.57050,4.57700099
1.57100,3.966612174
1.57150,2.745834544
1.57200,2.135445728
1.57250,1.830251321
1.57300,2.440640136
1.57350,3.356223359
1.57400,4.271806582
1.57450,5.187389805
1.57500,4.57700099
1.57550,2.440640136
1.57600,-0.0009151256603
1.57650,-0.3061095334
1.57700,0.304279282
1.57750,0.304279282
1.57800,-1.526887164
1.57850,-3.968442426
1.57900,-5.799608872
1.57950,-5.799608872
1.58000,-4.273636833
1.58050,-2.747664795
1.58100,-2.13727598
1.58150,-3.052859203
1.58200,-4.273636833
1.58250,-2.442470387
1.58300,1.525056913
1.58350,4.882195398
1.58400,3.661417767
1.58450,-0.0009151256603
1.58500,-1.221692756
1.58550,1.219862505
1.58600,4.882195398
1.58650,6.408167436
1.58700,5.797778621
1.58750,4.882195398
1.58800,4.57700099
1.58850,3.966612174
1.58900,3.966612174
1.58950,3.966612174
1.59000,3.661417767
1.59050,2.745834544
1.59100,2.745834544
1.59150,4.271806582
1.59200,5.187389805
1.59250,4.271806582
1.59300,3.051028951
1.59350,3.661417767
1.59400,7.018556251
1.59450,10.07050033
1.59500,11.59647237
1.59550,11.90166677
1.59600,12.20686118
1.59650,13.73283322
1.59700,16.17438848
1.59750,19.53152697
1.59800,21.36269341
1.59850,19.83672137
1.59900,15.25880526
1.59950,11.59647237
1.60000,10.98608355
1.60050,10.68088914
1.60100,6.408167436
1.60150,-1.526887164
1.60200,-8.241164134
1.60250,-10.9879138
1.60300,-12.51388584
1.60350,-14.34505229
1.60400,-15.26063551
1.60450,-14.03985788
1.60500,-12.81908025
1.60550,-13.42946906
1.60600,-14.03985788
1.60650,-11.90349703
1.60700,-7.020386503
1.60750,-4.273636833
1.60800,-4.884025649
1.60850,-7.020386503
1.60900,-8.546358541
1.60950,-9.461941764
1.61000,-11.59830262
1.61050,-14.03985788
1.61100,-15.87102433
1.61150,-16.17621873
1.61200,-16.17621873
1.61250,-16.78660755
1.61300,-16.78660755
1.61350,-15.87102433
1.61400,-13.42946906
1.61450,-9.767136172
1.61500,-5.189220057
1.61550,-0.0009151256603
1.61600,2.745834544
1.61650,3.356223359
1.61700,1.219862505
1.61750,-0.3061095334
1.61800,-0.9164983488
1.61850,-0.3061095334
1.61900,0.9146680974
1.61950,2.745834544
1.62000,4.271806582
1.62050,4.271806582
1.62100,3.356223359
1.62150,3.051028951
1.62200,3.661417767
1.62250,4.882195398
1.62300,5.492584213
1.62350,5.797778621
1.62400,6.408167436
1.62450,7.323750659
1.62500,7.323750659
1.62550,6.408167436
1.62600,5.187389805
1.62650,4.271806582
1.62700,3.661417767
1.62750,3.051028951
1.62800,1.830251321
1.62850,-0.0009151256603
1.62900,-0.3061095334
1.62950,-0.0009151256603
1.63000,-0.0009151256603
1.63050,-1.221692756
1.63100,-1.526887164
1.63150,-0.0009151256603
1.63200,2.135445728
1.63250,2.440640136
1.63300,1.830251321
1.63350,2.745834544
1.63400,4.882195398
1.63450,5.797778621
1.63500,4.271806582
1.63550,2.135445728
1.63600,0.6094736897
1.63650,-0.0009151256603
1.63700,-0.3061095334
1.63750,0.304279282
1.63800,1.525056913
1.63850,1.219862505
1.63900,-0.3061095334
1.63950,-2.13727598
1.64000,-2.747664795
1.64050,-2.442470387
1.64100,-2.442470387
1.64150,-2.442470387
1.64200,-2.442470387
1.64250,-2.747664795
1.64300,-3.968442426
1.64350,-4.273636833
1.64400,-2.13727598
1.64450,-0.0009151256603
1.64500,0.304279282
1.64550,-0.6113039411
1.64600,-0.3061095334
1.64650,0.9146680974
1.64700,1.219862505
1.64750,0.304279282
1.64800,0.304279282
1.64850,2.135445728
1.64900,4.271806582
1.64950,3.661417767
1.65000,1.830251321
1.65050,1.219862505
1.65100,1.525056913
1.65150,1.830251321
1.65200,2.440640136
1.65250,3.051028951
1.65300,3.661417767
1.65350,3.051028951
1.65400,1.525056913
1.65450,1.219862505
1.65500,1.830251321
1.65550,1.830251321
1.65600,0.9146680974
1.65650,0.304279282
1.65700,0.9146680974
1.65750,1.830251321
1.65800,2.135445728
1.65850,1.525056913
1.65900,0.6094736897
1.65950,-0.0009151256603
1.66000,-0.0009151256603
1.66050,0.304279282
1.66100,1.219862505
1.66150,1.830251321
1.66200,1.219862505
1.66250,0.6094736897
1.66300,0.304279282
1.66350,1.219862505
1.66400,1.525056913
1.66450,1.219862505
1.66500,0.6094736897
1.66550,1.525056913
1.66600,3.661417767
1.66650,4.882195398
1.66700,3.966612174
1.66750,2.440640136
1.66800,3.661417767
1.66850,7.018556251
1.66900,10.07050033
1.66950,10.98608355
1.67000,10.68088914
1.67050,11.59647237
1.67100,12.81725
1.67150,12.51205559
1.67200,11.90166677
1.67250,12.51205559
1.67300,14.64841644
1.67350,14.95361085
1.67400,11.59647237
1.67450,6.713361844
1.67500,3.051028951
1.67550,0.6094736897
1.67600,-2.747664795
1.67650,-6.409997687
1.67700,-8.241164134
1.67750,-8.851552949
1.67800,-10.37752499
1.67850,-13.42946906
1.67900,-15.56582992
1.67950,-14.9554411
1.68000,-11.29310821
1.68050,-6.715192095
1.68100,-3.968442426
1.68150,-3.052859203
1.68200,-3.35805361
1.68250,-2.747664795
1.68300,-0.0009151256603
1.68350,2.440640136
1.68400,2.440640136
1.68450,-1.221692756
1.68500,-6.409997687
1.68550,-10.6827194
1.68600,-14.34505229
1.68650,-18.9229684
1.68700,-25.02685656
1.68750,-30.5203559
1.68800,-32.04632793
1.68850,-29.90996708
1.68900,-25.02685656
1.68950,-20.75413485
1.69000,-16.78660755
1.69050,-12.81908025
1.69100,-8.546358541
1.69150,-4.884025649
1.69200,-2.747664795
1.69250,-0.3061095334
1.69300,2.745834544
1.69350,5.187389805
1.69400,4.57700099
1.69450,1.219862505
1.69500,-1.526887164
1.69550,-1.526887164
1.69600,-0.0009151256603
1.69650,1.830251321
1.69700,2.745834544
1.69750,3.356223359
1.69800,3.966612174
1.69850,4.882195398
1.69900,5.187389805
1.69950,4.57700099
1.70000,3.661417767
1.70050,2.745834544
1.70100,2.745834544
1.70150,3.356223359
1.70200,4.271806582
1.70250,4.882195398
1.70300,4.882195398
1.70350,4.271806582
1.70400,3.661417767
1.70450,3.356223359
1.70500,3.966612174
1.70550,4.882195398
1.70600,5.187389805
1.70650,4.882195398
1.70700,3.966612174
1.70750,3.051028951
1.70800,3.356223359
1.70850,4.271806582
1.70900,5.187389805
1.70950,4.882195398
1.71000,3.661417767
1.71050,2.440640136
1.71100,1.525056913
1.71150,1.219862505
1.71200,2.135445728
1.71250,3.356223359
1.71300,3.661417767
1.71350,2.440640136
1.71400,0.9146680974
1.71450,1.219862505
1.71500,2.745834544
1.71550,3.966612174
1.71600,3.966612174
1.71650,2.440640136
1.71700,1.525056913
1.71750,1.219862505
1.71800,1.525056913
1.71850,2.135445728
1.71900,2.745834544
1.71950,3.051028951
1.72000,3.661417767
1.72050,3.356223359
1.72100,2.135445728
1.72150,1.219862505
1.72200,2.745834544
1.72250,4.882195398
1.72300,5.797778621
1.72350,4.882195398
1.72400,4.271806582
1.72450,4.57700099
1.72500,4.57700099
1.72550,3.661417767
1.72600,3.356223359
1.72650,3.966612174
1.72700,4.271806582
1.72750,3.051028951
1.72800,2.440640136
1.72850,2.440640136
1.72900,2.135445728
1.72950,0.6094736897
1.73000,-0.6113039411
1.73050,-0.0009151256603
1.73100,0.304279282
1.73150,-0.3061095334
1.73200,-2.747664795
1.73250,-4.273636833
1.73300,-4.578831241
1.73350,-4.578831241
1.73400,-3.663248018
1.73450,-1.832081572
1.73500,-0.3061095334
1.73550,-0.9164983488
1.73600,-2.442470387
1.73650,-2.442470387
1.73700,-2.13727598
1.73750,-3.052859203
1.73800,-5.189220057
1.73850,-6.10480328
1.73900,-4.273636833
1.73950,-1.832081572
1.74000,-1.526887164
1.74050,-2.13727598
1.74100,-2.747664795
1.74150,-2.442470387
1.74200,-1.832081572
1.74250,-0.6113039411
1.74300,-0.0009151256603
1.74350,-0.6113039411
1.74400,-1.832081572
1.74450,-2.442470387
1.74500,-1.221692756
1.74550,-0.0009151256603
1.74600,0.304279282
1.74650,-0.0009151256603
1.74700,-0.6113039411
1.74750,-2.13727598
1.74800,-3.052859203
1.74850,-2.442470387
1.74900,-0.6113039411
1.74950,-0.3061095334
1.75000,-2.747664795
1.75050,-5.799608872
1.75100,-6.409997687
1.75150,-4.273636833
1.75200,-1.526887164
1.75250,-0.3061095334
1.75300,-0.0009151256603
1.75350,-0.0009151256603
1.75400,-0.0009151256603
1.75450,-0.9164983488
1.75500,-1.832081572
1.75550,-1.832081572
1.75600,-1.221692756
1.75650,-1.526887164
1.75700,-1.221692756
1.75750,1.219862505
1.75800,5.797778621
1.75850,8.239333882
1.75900,7.018556251
1.75950,4.57700099
1.76000,4.271806582
1.76050,6.102973028
1.76100,8.54452829
1.76150,10.68088914
1.76200,13.12244441
1.76250,14.34322204
1.76300,12.51205559
1.76350,10.68088914
1.76400,13.12244441
1.76450,18.00555493
1.76500,18.00555493
1.76550,10.68088914
1.76600,2.135445728
1.76650,-1.221692756
1.76700,-1.832081572
1.76750,-4.273636833
1.76800,-7.32558091
1.76850,-8.241164134
1.76900,-7.32558091
1.76950,-7.630775318
1.77000,-9.767136172
1.77050,-10.6827194
1.77100,-9.767136172
1.77150,-8.851552949
1.77200,-9.767136172
1.77250,-10.07233058
1.77300,-9.767136172
1.77350,-9.767136172
1.77400,-10.9879138
1.77450,-11.90349703
1.77500,-12.20869143
1.77550,-11.59830262
1.77600,-10.37752499
1.77650,-8.241164134
1.77700,-6.715192095
1.77750,-7.020386503
1.77800,-8.851552949
1.77850,-10.6827194
1.77900,-10.9879138
1.77950,-9.156747357
1.78000,-4.884025649
1.78050,0.6094736897
1.78100,5.187389805
1.78150,5.797778621
1.78200,4.271806582
1.78250,3.661417767
1.78300,4.57700099
1.78350,4.57700099
1.78400,3.661417767
1.78450,3.661417767
1.78500,4.271806582
1.78550,2.745834544
1.78600,-0.0009151256603
1.78650,-0.6113039411
1.78700,0.304279282
1.78750,0.6094736897
1.78800,-1.526887164
1.78850,-3.35805361
1.78900,-1.526887164
1.78950,1.219862505
1.79000,3.051028951
1.79050,3.356223359
1.79100,3.051028951
1.79150,2.440640136
1.79200,0.6094736897
1.79250,-0.9164983488
1.79300,-1.526887164
1.79350,-0.9164983488
1.79400,-0.6113039411
1.79450,-1.526887164
1.79500,-2.13727598
1.79550,-2.442470387
1.79600,-1.832081572
1.79650,-0.6113039411
1.79700,0.6094736897
1.79750,1.830251321
1.79800,3.661417767
1.79850,5.492584213
1.79900,5.492584213
1.79950,3.356223359
1.80000,1.219862505
1.80050,1.219862505
1.80100,2.745834544
1.80150,2.745834544
1.80200,1.525056913
1.80250,1.219862505
1.80300,2.440640136
1.80350,3.356223359
1.80400,2.745834544
1.80450,1.830251321
1.80500,2.135445728
1.80550,3.051028951
1.80600,3.966612174
1.80650,4.882195398
1.80700,5.492584213
1.80750,4.882195398
1.80800,3.661417767
1.80850,2.440640136
1.80900,2.745834544
1.80950,3.661417767
1.81000,4.882195398
1.81050,5.492584213
1.81100,3.966612174
1.81150,1.525056913
1.81200,0.304279282
1.81250,0.9146680974
1.81300,3.051028951
1.81350,4.271806582
1.81400,4.57700099
1.81450,6.408167436
1.81500,10.07050033
1.81550,14.95361085
1.81600,19.22633256
1.81650,21.66788782
1.81700,22.88866545
1.81750,22.88866545
1.81800,22.27827664
1.81850,20.7523046
1.81900,17.70036052
1.81950,10.98608355
1.82000,1.219862505
1.82050,-8.546358541
1.82100,-16.17621873
1.82150,-21.36452366
1.82200,-26.24763419
1.82250,-32.04632793
1.82300,-36.92943846
1.82350,-38.7606049
1.82400,-37.84502168
1.82450,-36.01385523
1.82500,-32.96191116
1.82550,-28.07880063
1.82600,-22.8904957
1.82650,-18.9229684
1.82700,-16.48141314
1.82750,-13.42946906
1.82800,-9.156747357
1.82850,-5.799608872
1.82900,-5.189220057
1.82950,-5.799608872
1.83000,-5.799608872
1.83050,-3.35805361
1.83100,0.304279282
1.83150,4.882195398
1.83200,7.323750659
1.83250,6.713361844
1.83300,3.661417767
1.83350,1.830251321
1.83400,2.440640136
1.83450,3.051028951
1.83500,2.745834544
1.83550,3.966612174
1.83600,8.54452829
1.83650,14.34322204
1.83700,17.39516611
1.83750,16.7847773
1.83800,14.64841644
1.83850,12.51205559
1.83900,10.98608355
1.83950,10.98608355
1.84000,12.20686118
1.84050,13.12244441
1.84100,11.90166677
1.84150,10.07050033
1.84200,8.54452829
1.84250,7.628945067
1.84300,5.492584213
1.84350,2.440640136
1.84400,0.6094736897
1.84450,-0.0009151256603
1.84500,-1.526887164
1.84550,-3.35805361
1.84600,-3.663248018
1.84650,-3.052859203
1.84700,-3.052859203
1.84750,-4.273636833
1.84800,-4.273636833
1.84850,-2.442470387
1.84900,-0.6113039411
1.84950,-1.221692756
1.85000,-2.13727598
1.85050,-1.526887164
1.85100,0.304279282
1.85150,0.6094736897
1.85200,-0.0009151256603
1.85250,0.9146680974
1.85300,4.57700099
1.85350,7.628945067
1.85400,7.628945067
1.85450,5.797778621
1.85500,3.051028951
1.85550,-0.0009151256603
1.85600,-3.663248018
1.85650,-7.32558091
1.85700,-9.461941764
1.85750,-11.29310821
1.85800,-14.34505229
1.85850,-17.70219077
1.85900,-18.617774
1.85950,-17.39699636
1.86000,-15.87102433
1.86050,-14.6502467
1.86100,-12.81908025
1.86150,-10.37752499
1.86200,-7.935969726
1.86250,-5.494414464
1.86300,-2.747664795
1.86350,-0.9164983488
1.86400,-0.9164983488
1.86450,-1.526887164
1.86500,-0.0009151256603
1.86550,4.882195398
1.86600,9.154917105
1.86650,10.07050033
1.86700,8.239333882
1.86750,6.102973028
1.86800,4.57700099
1.86850,3.966612174
1.86900,4.882195398
1.86950,5.187389805
1.87000,3.966612174
1.87050,2.135445728
1.87100,2.440640136
1.87150,4.271806582
1.87200,5.492584213
1.87250,4.882195398
1.87300,4.271806582
1.87350,4.57700099
1.87400,4.57700099
1.87450,3.661417767
1.87500,2.440640136
1.87550,2.745834544
1.87600,3.051028951
1.87650,2.135445728
1.87700,0.6094736897
1.87750,0.304279282
1.87800,0.6094736897
1.87850,0.304279282
1.87900,-0.3061095334
1.87950,-0.0009151256603
1.88000,0.9146680974
1.88050,1.219862505
1.88100,0.304279282
1.88150,-0.3061095334
1.88200,-0.0009151256603
1.88250,0.6094736897
1.88300,0.6094736897
1.88350,-0.0009151256603
1.88400,-0.3061095334
1.88450,-0.0009151256603
1.88500,0.6094736897
1.88550,1.219862505
1.88600,1.525056913
1.88650,1.525056913
1.88700,0.6094736897
1.88750,-0.3061095334
1.88800,-0.3061095334
1.88850,1.525056913
1.88900,4.57700099
1.88950,5.492584213
1.89000,3.966612174
1.89050,2.135445728
1.89100,2.135445728
1.89150,3.356223359
1.89200,3.661417767
1.89250,3.356223359
1.89300,2.745834544
1.89350,2.440640136
1.89400,1.830251321
1.89450,0.6094736897
1.89500,-0.0009151256603
1.89550,-0.6113039411
1.89600,-1.221692756
1.89650,-1.832081572
1.89700,-1.832081572
1.89750,-1.526887164
1.89800,-1.526887164
1.89850,-1.526887164
1.89900,-1.221692756
1.89950,-0.6113039411
1.90000,-0.0009151256603
1.90050,0.304279282
1.90100,1.525056913
1.90150,2.440640136
1.90200,2.440640136
1.90250,1.525056913
1.90300,1.525056913
1.90350,2.135445728
1.90400,3.051028951
1.90450,2.745834544
1.90500,1.830251321
1.90550,1.525056913
1.90600,2.440640136
1.90650,4.57700099
1.90700,7.018556251
1.90750,8.849722698
1.90800,9.460111513
1.90850,8.54452829
1.90900,7.018556251
1.90950,5.797778621
1.91000,4.882195398
1.91050,3.661417767
1.91100,2.135445728
1.91150,0.9146680974
1.91200,-0.3061095334
1.91250,-3.35805361
1.91300,-6.715192095
1.91350,-8.241164134
1.91400,-7.32558091
1.91450,-6.10480328
1.91500,-5.494414464
1.91550,-4.578831241
1.91600,-2.13727598
1.91650,-0.0009151256603
1.91700,0.304279282
1.91750,0.6094736897
1.91800,3.051028951
1.91850,5.492584213
1.91900,5.492584213
1.91950,4.271806582
1.92000,5.187389805
1.92050,7.018556251
1.92100,5.797778621
1.92150,0.9146680974
1.92200,-2.13727598
1.92250,1.219862505
1.92300,8.54452829
1.92350,13.12244441
1.92400,12.20686118
1.92450,8.849722698
1.92500,6.713361844
1.92550,5.187389805
1.92600,3.051028951
1.92650,0.304279282
1.92700,-1.221692756
1.92750,-2.747664795
1.92800,-5.494414464
1.92850,-8.851552949
1.92900,-11.29310821
1.92950,-11.59830262
1.93000,-10.9879138
1.93050,-12.81908025
1.93100,-15.56582992
1.93150,-15.26063551
1.93200,-8.241164134
1.93250,3.051028951
1.93300,12.51205559
1.93350,15.86919407
1.93400,14.95361085
1.93450,14.34322204
1.93500,15.86919407
1.93550,16.47958289
1.93600,14.64841644
1.93650,12.20686118
1.93700,8.54452829
1.93750,2.440640136
1.93800,-6.409997687
1.93850,-15.87102433
1.93900,-22.5853013
1.93950,-27.77360623
1.94000,-33.87749438
1.94050,-39.06579931
1.94100,-40.28657694
1.94150,-36.92943846
1.94200,-33.57229997
1.94250,-31.13074471
1.94300,-28.07880063
1.94350,-22.8904957
1.94400,-17.09180196
1.94450,-12.51388584
1.94500,-8.546358541
1.94550,-4.273636833
1.94600,-0.9164983488
1.94650,0.304279282
1.94700,0.6094736897
1.94750,0.9146680974
1.94800,0.304279282
1.94850,-0.0009151256603
1.94900,0.9146680974
1.94950,3.356223359
1.95000,4.882195398
1.95050,4.271806582
1.95100,2.745834544
1.95150,2.745834544
1.95200,4.271806582
1.95250,5.492584213
1.95300,6.102973028
1.95350,6.713361844
1.95400,6.408167436
1.95450,5.797778621
1.95500,5.492584213
1.95550,5.797778621
1.95600,7.018556251
1.95650,7.323750659
1.95700,6.713361844
1.95750,5.187389805
1.95800,4.271806582
1.95850,4.271806582
1.95900,4.882195398
1.95950,5.187389805
1.96000,4.882195398
1.96050,4.271806582
1.96100,4.57700099
1.96150,4.57700099
1.96200,3.661417767
1.96250,2.440640136
1.96300,1.525056913
1.96350,1.830251321
1.96400,2.135445728
1.96450,2.135445728
1.96500,3.051028951
1.96550,3.966612174
1.96600,4.271806582
1.96650,3.966612174
1.96700,3.051028951
1.96750,2.135445728
1.96800,1.525056913
1.96850,1.525056913
1.96900,1.830251321
1.96950,2.135445728
1.97000,1.525056913
1.97050,1.525056913
1.97100,2.135445728
1.97150,2.135445728
1.97200,1.830251321
1.97250,1.525056913
1.97300,1.525056913
1.97350,1.219862505
1.97400,1.219862505
1.97450,3.051028951
1.97500,5.797778621
1.97550,6.408167436
1.97600,4.882195398
1.97650,4.57700099
1.97700,7.323750659
1.97750,11.29127796
1.97800,12.51205559
1.97850,10.68088914
1.97900,7.934139475
1.97950,5.492584213
1.98000,4.57700099
1.98050,5.492584213
1.98100,6.713361844
1.98150,6.102973028
1.98200,4.882195398
1.98250,6.102973028
1.98300,8.849722698
1.98350,9.154917105
1.98400,6.102973028
1.98450,4.882195398
1.98500,8.849722698
1.98550,13.12244441
1.98600,12.51205559
1.98650,7.323750659
1.98700,3.356223359
1.98750,2.440640136
1.98800,3.051028951
1.98850,3.661417767
1.98900,3.356223359
1.98950,0.9146680974
1.99000,-3.052859203
1.99050,-6.10480328
1.99100,-6.409997687
1.99150,-6.715192095
1.99200,-10.9879138
1.99250,-16.78660755
1.99300,-19.53335722
1.99350,-18.9229684
1.99400,-18.00738518
1.99450,-18.617774
1.99500,-18.9229684
1.99550,-17.70219077
1.99600,-17.39699636
1.99650,-18.617774
1.99700,-19.53335722
1.99750,-18.9229684
1.99800,-17.70219077
1.99850,-17.39699636
1.99900,-17.39699636
1.99950,-16.17621873
2.00000,-14.03985788
2.00050,-12.81908025
2.00100,-10.6827194
2.00150,-7.020386503
2.00200,-3.052859203
2.00250,-0.9164983488
2.00300,-0.3061095334
2.00350,-0.0009151256603
2.00400,0.6094736897
2.00450,-0.3061095334
2.00500,-2.13727598
2.00550,-1.526887164
2.00600,0.9146680974
2.00650,2.135445728
2.00700,0.9146680974
2.00750,-0.0009151256603
2.00800,1.525056913
2.00850,4.57700099
2.00900,6.102973028
2.00950,5.797778621
2.01000,6.408167436
2.01050,7.628945067
2.01100,8.239333882
2.01150,7.323750659
2.01200,6.408167436
2.01250,6.408167436
2.01300,6.408167436
2.01350,6.408167436
2.01400,6.102973028
2.01450,5.187389805
2.01500,3.356223359
2.01550,1.219862505
2.01600,0.304279282
2.01650,0.9146680974
2.01700,2.135445728
2.01750,3.661417767
2.01800,4.882195398
2.01850,5.187389805
2.01900,3.356223359
2.01950,1.525056913
2.02000,2.135445728
2.02050,4.57700099
2.02100,5.187389805
2.02150,3.661417767
2.02200,2.135445728
2.02250,3.051028951
2.02300,4.271806582
2.02350,3.356223359
2.02400,1.525056913
2.02450,1.830251321
2.02500,3.661417767
2.02550,4.57700099
2.02600,4.882195398
2.02650,4.882195398
2.02700,4.57700099
2.02750,3.661417767
2.02800,2.440640136
2.02850,2.135445728
2.02900,1.830251321
2.02950,0.304279282
2.03000,-0.9164983488
2.03050,-0.6113039411
2.03100,0.6094736897
2.03150,1.525056913
2.03200,1.219862505
2.03250,0.6094736897
2.03300,-0.0009151256603
2.03350,-0.3061095334
2.03400,-0.6113039411
2.03450,-0.6113039411
2.03500,-0.3061095334
2.03550,-0.6113039411
2.03600,-0.3061095334
2.03650,-0.0009151256603
2.03700,0.304279282
2.03750,0.304279282
2.03800,1.525056913
2.03850,3.051028951
2.03900,3.356223359
2.03950,2.745834544
2.04000,3.051028951
2.04050,4.271806582
2.04100,3.356223359
2.04150,1.830251321
2.04200,4.882195398
2.04250,13.42763881
2.04300,21.36269341
2.04350,23.19385986
2.04400,21.36269341
2.04450,20.7523046
2.04500,19.53152697
2.04550,14.64841644
2.04600,11.90166677
2.04650,15.25880526
2.04700,18.92113815
2.04750,14.34322204
2.04800,6.408167436
2.04850,9.765305921
2.04900,25.94060953
2.04950,39.06396906
2.05000,37.53799702
2.05050,26.85619275
2.05100,19.53152697
2.05150,16.47958289
2.05200,10.68088914
2.05250,-0.0009151256603
2.05300,-10.9879138
2.05350,-18.9229684
2.05400,-25.63724537
2.05450,-33.87749438
2.05500,-43.03332661
2.05550,-50.6631868
2.05600,-54.93590851
2.05650,-55.54629733
2.05700,-53.71513088
2.05750,-50.96838121
2.05800,-47.61124273
2.05850,-42.4229378
2.05900,-35.09827201
2.05950,-26.5528286
2.06000,-19.83855163
2.06050,-15.87102433
2.06100,-14.34505229
2.06150,-12.51388584
2.06200,-10.37752499
2.06250,-8.241164134
2.06300,-7.32558091
2.06350,-6.409997687
2.06400,-4.884025649
2.06450,-5.494414464
2.06500,-9.156747357
2.06550,-13.12427466
2.06600,-11.59830262
2.06650,-4.884025649
2.06700,0.6094736897
2.06750,1.219862505
2.06800,0.304279282
2.06850,1.830251321
2.06900,5.187389805
2.06950,6.408167436
2.07000,6.102973028
2.07050,6.408167436
2.07100,7.323750659
2.07150,7.018556251
2.07200,5.797778621
2.07250,5.797778621
2.07300,6.102973028
2.07350,5.797778621
2.07400,4.271806582
2.07450,3.661417767
2.07500,4.271806582
2.07550,5.492584213
2.07600,6.408167436
2.07650,7.323750659
2.07700,7.323750659
2.07750,6.408167436
2.07800,5.797778621
2.07850,6.102973028
2.07900,7.018556251
2.07950,7.018556251
2.08000,6.408167436
2.08050,6.102973028
2.08100,6.713361844
2.08150,6.408167436
2.08200,5.797778621
2.08250,5.492584213
2.08300,5.187389805
2.08350,5.187389805
2.08400,5.797778621
2.08450,7.018556251
2.08500,7.628945067
2.08550,6.713361844
2.08600,5.492584213
2.08650,4.57700099
2.08700,4.271806582
2.08750,3.966612174
2.08800,3.356223359
2.08850,3.356223359
2.08900,3.356223359
2.08950,3.051028951
2.09000,3.051028951
2.09050,3.661417767
2.09100,3.966612174
2.09150,2.745834544
2.09200,2.135445728
2.09250,2.745834544
2.09300,3.661417767
2.09350,3.356223359
2.09400,2.745834544
2.09450,3.051028951
2.09500,3.356223359
2.09550,3.051028951
2.09600,1.830251321
2.09650,0.9146680974
2.09700,0.9146680974
2.09750,1.219862505
2.09800,1.830251321
2.09850,1.830251321
2.09900,1.219862505
2.09950,1.219862505
2.10000,1.525056913
2.10050,2.135445728
2.10100,1.830251321
2.10150,0.9146680974
2.10200,0.304279282
2.10250,0.6094736897
2.10300,0.9146680974
2.10350,0.9146680974
2.10400,0.9146680974
2.10450,0.9146680974
2.10500,0.9146680974
2.10550,0.9146680974
2.10600,1.219862505
2.10650,2.135445728
2.10700,2.745834544
2.10750,3.051028951
2.10800,2.745834544
2.10850,2.135445728
2.10900,1.219862505
2.10950,0.6094736897
2.11000,-0.0009151256603
2.11050,-0.0009151256603
2.11100,-0.0009151256603
2.11150,-0.0009151256603
2.11200,-0.0009151256603
2.11250,-0.0009151256603
2.11300,0.304279282
2.11350,0.9146680974
2.11400,0.6094736897
2.11450,-0.0009151256603
2.11500,-0.0009151256603
2.11550,0.304279282
2.11600,0.6094736897
2.11650,0.9146680974
2.11700,1.830251321
2.11750,2.135445728
2.11800,0.304279282
2.11850,-0.9164983488
2.11900,2.135445728
2.11950,11.29127796
2.12000,19.53152697
2.12050,20.7523046
2.12100,15.86919407
2.12150,10.68088914
2.12200,8.849722698
2.12250,9.154917105
2.12300,10.07050033
2.12350,8.849722698
2.12400,4.882195398
2.12450,0.9146680974
2.12500,0.9146680974
2.12550,3.356223359
2.12600,2.745834544
2.12650,-0.3061095334
2.12700,-0.9164983488
2.12750,2.745834544
2.12800,4.882195398
2.12850,1.219862505
2.12900,-3.35805361
2.12950,-3.968442426
2.13000,-2.747664795
2.13050,-3.663248018
2.13100,-4.884025649
2.13150,-2.442470387
2.13200,1.219862505
2.13250,1.219862505
2.13300,-1.221692756
2.13350,-3.663248018
2.13400,-6.10480328
2.13450,-9.461941764
2.13500,-10.9879138
2.13550,-8.241164134
2.13600,-4.273636833
2.13650,-3.968442426
2.13700,-5.799608872
2.13750,-6.409997687
2.13800,-6.715192095
2.13850,-10.07233058
2.13900,-15.26063551
2.13950,-17.70219077
2.14000,-18.617774
2.14050,-21.97491248
2.14100,-25.63724537
2.14150,-24.11127333
2.14200,-18.00738518
2.14250,-13.73466347
2.14300,-13.42946906
2.14350,-13.12427466
2.14400,-9.461941764
2.14450,-5.189220057
2.14500,-3.968442426
2.14550,-3.663248018
2.14600,-1.832081572
2.14650,-0.0009151256603
2.14700,0.6094736897
2.14750,-0.9164983488
2.14800,-2.747664795
2.14850,-3.968442426
2.14900,-5.189220057
2.14950,-5.189220057
2.15000,-3.052859203
2.15050,-0.0009151256603
2.15100,1.219862505
2.15150,-0.0009151256603
2.15200,-1.526887164
2.15250,-1.221692756
2.15300,0.9146680974
2.15350,1.830251321
2.15400,0.6094736897
2.15450,-0.3061095334
2.15500,-0.0009151256603
2.15550,1.525056913
2.15600,1.525056913
2.15650,0.6094736897
2.15700,1.525056913
2.15750,3.966612174
2.15800,4.57700099
2.15850,3.661417767
2.15900,2.745834544
2.15950,3.356223359
2.16000,4.57700099
2.16050,4.57700099
2.16100,4.882195398
2.16150,4.57700099
2.16200,3.966612174
2.16250,3.356223359
2.16300,3.661417767
2.16350,4.57700099
2.16400,4.271806582
2.16450,3.356223359
2.16500,3.051028951
2.16550,3.051028951
2.16600,2.135445728
2.16650,0.6094736897
2.16700,0.9146680974
2.16750,2.440640136
2.16800,2.440640136
2.16850,-0.0009151256603
2.16900,-0.3061095334
2.16950,1.830251321
2.17000,4.57700099
2.17050,5.187389805
2.17100,3.966612174
2.17150,3.051028951
2.17200,2.440640136
2.17250,1.525056913
2.17300,0.6094736897
2.17350,0.9146680974
2.17400,1.525056913
2.17450,1.525056913
2.17500,1.219862505
2.17550,2.135445728
2.17600,3.051028951
2.17650,3.356223359
2.17700,2.135445728
2.17750,1.219862505
2.17800,1.219862505
2.17850,1.219862505
2.17900,0.9146680974
2.17950,0.304279282
2.18000,0.304279282
2.18050,0.6094736897
2.18100,0.6094736897
2.18150,0.304279282
2.18200,-0.0009151256603
2.18250,-0.0009151256603
2.18300,0.304279282
2.18350,-0.0009151256603
2.18400,-0.6113039411
2.18450,-1.221692756
2.18500,-1.221692756
2.18550,-0.9164983488
2.18600,-0.3061095334
2.18650,-0.0009151256603
2.18700,-0.3061095334
2.18750,-0.0009151256603
2.18800,0.6094736897
2.18850,0.6094736897
2.18900,-0.0009151256603
2.18950,-1.221692756
2.19000,-0.9164983488
2.19050,-0.0009151256603
2.19100,0.304279282
2.19150,-0.6113039411
2.19200,-0.6113039411
2.19250,0.9146680974
2.19300,1.830251321
2.19350,-0.0009151256603
2.19400,-0.6113039411
2.19450,5.492584213
2.19500,18.31074934
2.19550,29.29774801
2.19600,31.43410887
2.19650,25.33022071
2.19700,17.39516611
2.19750,12.51205559
2.19800,10.68088914
2.19850,8.239333882
2.19900,3.966612174
2.19950,0.6094736897
2.20000,1.219862505
2.20050,6.102973028
2.20100,11.29127796
2.20150,11.59647237
2.20200,6.102973028
2.20250,-1.221692756
2.20300,-3.663248018
2.20350,4.271806582
2.20400,21.36269341
2.20450,36.6224138
2.20500,39.97955228
2.20550,31.43410887
2.20600,20.7523046
2.20650,16.17438848
2.20700,14.03802763
2.20750,7.934139475
2.20800,-2.13727598
2.20850,-10.9879138
2.20900,-16.17621873
2.20950,-21.05932926
2.21000,-28.38399504
2.21050,-35.09827201
2.21100,-36.92943846
2.21150,-33.87749438
2.21200,-31.43593912
2.21250,-32.96191116
2.21300,-36.01385523
2.21350,-37.23463287
2.21400,-37.23463287
2.21450,-38.15021609
2.21500,-40.59177135
2.21550,-43.64371543
2.21600,-46.3904651
2.21650,-48.52682595
2.21700,-49.13721477
2.21750,-46.6956595
2.21800,-40.89696576
2.21850,-34.4878832
2.21900,-27.77360623
2.21950,-20.75413485
2.22000,-14.34505229
2.22050,-8.851552949
2.22100,-4.273636833
2.22150,-0.3061095334
2.22200,3.051028951
2.22250,4.882195398
2.22300,6.408167436
2.22350,8.239333882
2.22400,9.765305921
2.22450,10.07050033
2.22500,9.460111513
2.22550,10.07050033
2.22600,11.59647237
2.22650,10.98608355
2.22700,8.54452829
2.22750,6.713361844
2.22800,6.408167436
2.22850,6.102973028
2.22900,5.187389805
2.22950,5.187389805
2.23000,6.713361844
2.23050,7.934139475
2.23100,7.934139475
2.23150,7.934139475
2.23200,8.239333882
2.23250,7.934139475
2.23300,6.408167436
2.23350,5.492584213
2.23400,7.018556251
2.23450,8.239333882
2.23500,7.628945067
2.23550,5.492584213
2.23600,4.882195398
2.23650,5.187389805
2.23700,4.882195398
2.23750,3.661417767
2.23800,2.745834544
2.23850,3.661417767
2.23900,4.882195398
2.23950,5.187389805
2.24000,5.187389805
2.24050,4.882195398
2.24100,4.57700099
2.24150,3.661417767
2.24200,3.051028951
2.24250,3.356223359
2.24300,4.882195398
2.24350,6.102973028
2.24400,7.323750659
2.24450,10.68088914
2.24500,16.17438848
2.24550,19.53152697
2.24600,16.47958289
2.24650,10.07050033
2.24700,7.018556251
2.24750,9.154917105
2.24800,12.51205559
2.24850,13.12244441
2.24900,11.90166677
2.24950,11.59647237
2.25000,10.68088914
2.25050,6.713361844
2.25100,1.830251321
2.25150,-1.526887164
2.25200,-2.442470387
2.25250,-3.35805361
2.25300,-4.273636833
2.25350,-3.968442426
2.25400,-2.747664795
2.25450,-3.052859203
2.25500,-4.578831241
2.25550,-5.494414464
2.25600,-3.968442426
2.25650,-0.9164983488
2.25700,1.525056913
2.25750,4.57700099
2.25800,7.628945067
2.25850,10.98608355
2.25900,15.86919407
2.25950,21.97308223
2.26000,26.24580394
2.26050,23.80424868
2.26100,16.7847773
2.26150,12.51205559
2.26200,15.86919407
2.26250,23.19385986
2.26300,26.24580394
2.26350,20.7523046
2.26400,10.37569474
2.26450,0.304279282
2.26500,-7.020386503
2.26550,-13.42946906
2.26600,-19.53335722
2.26650,-25.02685656
2.26700,-28.99438386
2.26750,-30.5203559
2.26800,-30.8255503
2.26850,-31.74113353
2.26900,-32.35152234
2.26950,-32.04632793
2.27000,-29.60477267
2.27050,-25.02685656
2.27100,-19.53335722
2.27150,-14.34505229
2.27200,-10.6827194
2.27250,-10.07233058
2.27300,-11.59830262
2.27350,-11.90349703
2.27400,-10.37752499
2.27450,-8.241164134
2.27500,-7.630775318
2.27550,-7.630775318
2.27600,-7.32558091
2.27650,-7.32558091
2.27700,-8.546358541
2.27750,-8.851552949
2.27800,-6.715192095
2.27850,-3.663248018
2.27900,-2.442470387
2.27950,-2.747664795
2.28000,-2.13727598
2.28050,-0.0009151256603
2.28100,2.135445728
2.28150,3.356223359
2.28200,4.271806582
2.28250,5.492584213
2.28300,5.797778621
2.28350,5.187389805
2.28400,4.882195398
2.28450,5.187389805
2.28500,5.187389805
2.28550,3.966612174
2.28600,4.57700099
2.28650,7.628945067
2.28700,10.68088914
2.28750,12.20686118
2.28800,13.12244441
2.28850,14.95361085
2.28900,16.7847773
2.28950,16.17438848
2.29000,12.51205559
2.29050,9.460111513
2.29100,9.460111513
2.29150,10.37569474
2.29200,9.765305921
2.29250,8.54452829
2.29300,8.239333882
2.29350,9.154917105
2.29400,8.849722698
2.29450,7.323750659
2.29500,6.408167436
2.29550,6.713361844
2.29600,7.323750659
2.29650,7.018556251
2.29700,6.713361844
2.29750,7.018556251
2.29800,6.408167436
2.29850,4.57700099
2.29900,3.966612174
2.29950,5.492584213
2.30000,5.797778621
2.30050,3.356223359
2.30100,-0.0009151256603
2.30150,-2.442470387
2.30200,-5.189220057
2.30250,-8.851552949
2.30300,-10.9879138
2.30350,-10.07233058
2.30400,-9.767136172
2.30450,-10.9879138
2.30500,-9.461941764
2.30550,-4.578831241
2.30600,-1.832081572
2.30650,-3.35805361
2.30700,-2.747664795
2.30750,3.356223359
2.30800,7.934139475
2.30850,6.408167436
2.30900,7.628945067
2.30950,21.66788782
2.31000,39.67435788
2.31050,44.86266281
2.31100,37.53799702
2.31150,32.04449768
2.31200,33.26527531
2.31250,31.73930328
2.31300,22.88866545
2.31350,14.95361085
2.31400,11.29127796
2.31450,5.492584213
2.31500,-6.409997687
2.31550,-17.09180196
2.31600,-21.05932926
2.31650,-22.28010689
2.31700,-25.02685656
2.31750,-25.02685656
2.31800,-19.53335722
2.31850,-14.34505229
2.31900,-15.26063551
2.31950,-20.14374603
2.32000,-22.28010689
2.32050,-21.05932926
2.32100,-20.14374603
2.32150,-19.22816281
2.32200,-16.17621873
2.32250,-11.59830262
2.32300,-9.156747357
2.32350,-10.6827194
2.32400,-13.42946906
2.32450,-13.42946906
2.32500,-8.241164134
2.32550,-2.747664795
2.32600,-1.832081572
2.32650,-4.273636833
2.32700,-4.273636833
2.32750,-0.3061095334
2.32800,-0.0009151256603
2.32850,-4.273636833
2.32900,-5.494414464
2.32950,3.051028951
2.33000,14.03802763
2.33050,14.95361085
2.33100,6.408167436
2.33150,-0.0009151256603
2.33200,0.6094736897
2.33250,1.525056913
2.33300,-1.526887164
2.33350,-6.409997687
2.33400,-8.546358541
2.33450,-10.9879138
2.33500,-15.26063551
2.33550,-19.53335722
2.33600,-20.75413485
2.33650,-21.36452366
2.33700,-22.5853013
2.33750,-22.28010689
2.33800,-18.00738518
2.33850,-12.20869143
2.33900,-8.851552949
2.33950,-7.020386503
2.34000,-3.35805361
2.34050,0.6094736897
2.34100,1.830251321
2.34150,0.304279282
2.34200,2.745834544
2.34250,12.81725
2.34300,24.7198319
2.34350,29.29774801
2.34400,25.02502631
2.34450,18.61594374
2.34500,15.86919407
2.34550,16.17438848
2.34600,16.17438848
2.34650,16.17438848
2.34700,17.08997171
2.34750,16.47958289
2.34800,13.42763881
2.34850,12.81725
2.34900,19.53152697
2.34950,29.90813683
2.35000,35.40163617
2.35050,34.18085854
2.35100,31.12891446
2.35150,31.12891446
2.35200,30.21333124
2.35250,24.7198319
2.35300,15.56399967
2.35350,8.239333882
2.35400,3.356223359
2.35450,-0.9164983488
2.35500,-7.630775318
2.35550,-15.26063551
2.35600,-22.8904957
2.35650,-30.8255503
2.35700,-38.7606049
2.35750,-43.94890983
2.35800,-43.64371543
2.35850,-39.67618813
2.35900,-36.62424405
2.35950,-37.53982727
2.36000,-38.7606049
2.36050,-35.70866083
2.36100,-28.38399504
2.36150,-19.83855163
2.36200,-9.156747357
2.36250,3.966612174
2.36300,15.56399967
2.36350,16.47958289
2.36400,7.018556251
2.36450,0.6094736897
2.36500,8.54452829
2.36550,24.10944308
2.36600,30.51852564
2.36650,22.58347104
2.36700,10.68088914
2.36750,5.187389805
2.36800,3.051028951
2.36850,-3.052859203
2.36900,-11.29310821
2.36950,-14.34505229
2.37000,-11.59830262
2.37050,-10.37752499
2.37100,-15.26063551
2.37150,-20.14374603
2.37200,-18.9229684
2.37250,-11.29310821
2.37300,-3.052859203
2.37350,2.745834544
2.37400,8.54452829
2.37450,16.17438848
2.37500,26.55099834
2.37550,37.84319143
2.37600,47.60941248
2.37650,53.71330063
2.37700,56.4600503
2.37750,58.90160556
2.37800,63.17432727
2.37850,66.83666016
2.37900,63.78471608
2.37950,50.96655096
2.38000,31.73930328
2.38050,11.59647237
2.38100,-6.715192095
2.38150,-23.19569011
2.38200,-36.92943846
2.38250,-47.91643713
2.38300,-56.76707496
2.38350,-61.95537989
2.38400,-63.17615752
2.38450,-60.42940785
2.38500,-55.54629733
2.38550,-50.05279799
2.38600,-43.94890983
2.38650,-37.53982727
2.38700,-32.04632793
2.38750,-27.77360623
2.38800,-24.41646774
2.38850,-20.75413485
2.38900,-17.09180196
2.38950,-14.34505229
2.39000,-12.81908025
2.39050,-12.51388584
2.39100,-12.51388584
2.39150,-10.9879138
2.39200,-8.241164134
2.39250,-5.494414464
2.39300,-4.884025649
2.39350,-5.189220057
2.39400,-3.35805361
2.39450,-0.0009151256603
2.39500,2.745834544
2.39550,3.051028951
2.39600,2.440640136
2.39650,3.661417767
2.39700,6.408167436
2.39750,8.849722698
2.39800,9.765305921
2.39850,10.07050033
2.39900,10.37569474
2.39950,10.07050033
2.40000,9.154917105
2.40050,8.849722698
2.40100,8.849722698
2.40150,7.628945067
2.40200,5.797778621
2.40250,5.492584213
2.40300,6.713361844
2.40350,8.54452829
2.40400,8.54452829
2.40450,8.239333882
2.40500,8.54452829
2.40550,9.154917105
2.40600,7.934139475
2.40650,6.102973028
2.40700,4.882195398
2.40750,5.187389805
2.40800,5.492584213
2.40850,7.018556251
2.40900,12.81725
2.40950,20.44711019
2.41000,23.19385986
2.41050,18.92113815
2.41100,14.64841644
2.41150,15.25880526
2.41200,18.61594374
2.41250,18.00555493
2.41300,14.95361085
2.41350,15.56399967
2.41400,20.7523046
2.41450,25.33022071
2.41500,24.7198319
2.41550,21.36269341
2.41600,18.31074934
2.41650,16.47958289
2.41700,14.34322204
2.41750,9.460111513
2.41800,2.745834544
2.41850,-3.052859203
2.41900,-5.799608872
2.41950,-6.715192095
2.42000,-9.767136172
2.42050,-13.12427466
2.42100,-12.51388584
2.42150,-8.546358541
2.42200,-6.409997687
2.42250,-9.156747357
2.42300,-12.51388584
2.42350,-12.81908025
2.42400,-13.12427466
2.42450,-14.6502467
2.42500,-14.34505229
2.42550,-11.29310821
2.42600,-9.461941764
2.42650,-9.461941764
2.42700,-4.884025649
2.42750,4.271806582
2.42800,8.849722698
2.42850,2.135445728
2.42900,-5.494414464
2.42950,-1.221692756
2.43000,10.98608355
2.43050,15.56399967
2.43100,7.934139475
2.43150,-0.3061095334
2.43200,-1.221692756
2.43250,1.830251321
2.43300,2.745834544
2.43350,-0.0009151256603
2.43400,-5.189220057
2.43450,-11.59830262
2.43500,-15.87102433
2.43550,-15.26063551
2.43600,-12.51388584
2.43650,-14.03985788
2.43700,-20.75413485
2.43750,-25.94243978
2.43800,-25.63724537
2.43850,-21.66971807
2.43900,-18.617774
2.43950,-17.09180196
2.44000,-15.87102433
2.44050,-13.73466347
2.44100,-10.9879138
2.44150,-9.461941764
2.44200,-8.546358541
2.44250,-5.799608872
2.44300,-0.0009151256603
2.44350,5.187389805
2.44400,6.102973028
2.44450,6.102973028
2.44500,10.68088914
2.44550,18.31074934
2.44600,23.19385986
2.44650,29.29774801
2.44700,47.60941248
2.44750,75.07690917
2.44800,92.77818482
2.44850,87.58987988
2.44900,70.80418746
2.44950,58.59641115
2.45000,50.96655096
2.45050,36.92760821
2.45100,15.86919407
2.45150,-4.578831241
2.45200,-21.97491248
2.45250,-40.28657694
2.45300,-57.68265818
2.45350,-67.75407364
2.45400,-69.89043449
2.45450,-69.58524008
2.45500,-65.92290719
2.45550,-51.57877003
2.45600,-26.858023
2.45650,-6.10480328
2.45700,1.830251321
2.45750,6.713361844
2.45800,21.36269341
2.45850,42.42110754
2.45900,52.492523
2.45950,44.5574684
2.46000,30.51852564
2.46050,21.05749901
2.46100,12.20686118
2.46150,-3.052859203
2.46200,-19.83855163
2.46250,-25.94243978
2.46300,-23.50088452
2.46350,-24.41646774
2.46400,-33.87749438
2.46450,-43.33852102
2.46500,-44.25410424
2.46550,-39.06579931
2.46600,-30.21516149
2.46650,-17.09180196
2.46700,-2.13727598
2.46750,4.57700099
2.46800,-0.9164983488
2.46850,-11.59830262
2.46900,-17.70219077
2.46950,-18.617774
2.47000,-19.83855163
2.47050,-21.36452366
2.47100,-21.05932926
2.47150,-20.44894044
2.47200,-21.36452366
2.47250,-19.83855163
2.47300,-12.81908025
2.47350,-4.884025649
2.47400,-1.221692756
2.47450,-1.221692756
2.47500,0.304279282
2.47550,4.271806582
2.47600,6.713361844
2.47650,7.628945067
2.47700,10.07050033
2.47750,13.42763881
2.47800,14.64841644
2.47850,13.42763881
2.47900,11.90166677
2.47950,12.51205559
2.48000,13.73283322
2.48050,15.86919407
2.48100,18.61594374
2.48150,18.92113815
2.48200,14.34322204
2.48250,7.323750659
2.48300,1.830251321
2.48350,-1.221692756
2.48400,-4.884025649
2.48450,-8.546358541
2.48500,-9.767136172
2.48550,-9.767136172
2.48600,-12.81908025
2.48650,-16.48141314
2.48700,-14.34505229
2.48750,-5.189220057
2.48800,3.356223359
2.48850,5.797778621
2.48900,4.271806582
2.48950,4.882195398
2.49000,8.849722698
2.49050,14.64841644
2.49100,22.58347104
2.49150,32.04449768
2.49200,38.14838584
2.49250,37.23280261
2.49300,32.6548865
2.49350,30.21333124
2.49400,30.21333124
2.49450,28.6873592
2.49500,27.16138716
2.49550,28.6873592
2.49600,32.6548865
2.49650,32.34969209
2.49700,24.7198319
2.49750,14.34322204
2.49800,4.882195398
2.49850,-2.747664795
2.49900,-9.156747357
2.49950,-11.29310821
2.50000,-6.715192095
2.50050,5.797778621
2.50100,24.7198319
2.50150,46.08344044
2.50200,60.4275776
2.50250,61.64835523
2.50300,51.57693978
2.50350,38.75877465
2.50400,26.85619275
2.50450,12.51205559
2.50500,-5.189220057
2.50550,-21.66971807
2.50600,-33.57229997
2.50650,-44.86449306
2.50700,-59.51382463
2.50750,-71.41640653
2.50800,-72.33198975
2.50850,-63.48135193
2.50900,-57.37746377
2.50950,-60.12421344
2.51000,-64.39693515
2.51050,-58.293047
2.51100,-41.20216017
2.51150,-23.80607893
2.51200,-15.87102433
2.51250,-16.48141314
2.51300,-18.617774
2.51350,-16.17621873
2.51400,-10.37752499
2.51450,-6.10480328
2.51500,-5.189220057
2.51550,-6.10480328
2.51600,-6.10480328
2.51650,-7.630775318
2.51700,-14.03985788
2.51750,-24.72166215
2.51800,-32.04632793
2.51850,-31.74113353
2.51900,-26.5528286
2.51950,-24.11127333
2.52000,-24.11127333
2.52050,-21.36452366
2.52100,-13.73466347
2.52150,-3.968442426
2.52200,4.271806582
2.52250,14.03802763
2.52300,27.16138716
2.52350,40.89513551
2.52400,51.57693978
2.52450,57.37563352
2.52500,58.90160556
2.52550,55.84966148
2.52600,49.13538451
2.52650,41.81071873
2.52700,34.18085854
2.52750,22.88866545
2.52800,8.54452829
2.52850,-2.442470387
2.52900,-7.32558091
2.52950,-11.29310821
2.53000,-20.75413485
2.53050,-31.74113353
2.53100,-36.31904964
2.53150,-33.57229997
2.53200,-30.21516149
2.53250,-28.38399504
2.53300,-24.41646774
2.53350,-18.31257959
2.53400,-14.9554411
2.53450,-16.17621873
2.53500,-16.78660755
2.53550,-13.42946906
2.53600,-9.461941764
2.53650,-9.156747357
2.53700,-10.37752499
2.53750,-10.37752499
2.53800,-7.935969726
2.53850,-4.273636833
2.53900,-0.9164983488
2.53950,-0.3061095334
2.54000,-2.747664795
2.54050,-4.273636833
2.54100,-1.221692756
2.54150,5.492584213
2.54200,10.07050033
2.54250,9.460111513
2.54300,7.628945067
2.54350,7.628945067
2.54400,7.628945067
2.54450,5.797778621
2.54500,3.661417767
2.54550,3.661417767
2.54600,4.882195398
2.54650,5.187389805
2.54700,4.271806582
2.54750,3.661417767
2.54800,3.356223359
2.54850,3.051028951
2.54900,2.440640136
2.54950,2.135445728
2.55000,3.356223359
2.55050,7.323750659
2.55100,13.73283322
2.55150,18.92113815
2.55200,20.7523046
2.55250,21.97308223
2.55300,24.7198319
2.55350,28.07697038
2.55400,28.6873592
2.55450,27.46658157
2.55500,26.85619275
2.55550,26.85619275
2.55600,25.33022071
2.55650,23.49905427
2.55700,23.80424868
2.55750,24.7198319
2.55800,22.88866545
2.55850,19.22633256
2.55900,16.7847773
2.55950,14.95361085
2.56000,12.51205559
2.56050,11.59647237
2.56100,13.42763881
2.56150,13.42763881
2.56200,5.797778621
2.56250,-4.578831241
2.56300,-8.851552949
2.56350,-6.10480328
2.56400,-5.494414464
2.56450,-10.6827194
2.56500,-15.26063551
2.56550,-13.73466347
2.56600,-10.9879138
2.56650,-13.12427466
2.56700,-20.14374603
2.56750,-26.858023
2.56800,-28.38399504
2.56850,-23.80607893
2.56900,-14.9554411
2.56950,-6.409997687
2.57000,-2.13727598
2.57050,-1.221692756
2.57100,0.6094736897
2.57150,3.966612174
2.57200,3.966612174
2.57250,-1.221692756
2.57300,-5.494414464
2.57350,-3.663248018
2.57400,0.9146680974
2.57450,3.051028951
2.57500,2.745834544
2.57550,3.966612174
2.57600,4.882195398
2.57650,2.135445728
2.57700,-3.052859203
2.57750,-2.13727598
2.57800,8.849722698
2.57850,22.88866545
2.57900,29.29774801
2.57950,27.16138716
2.58000,24.41463749
2.58050,27.77177598
2.58100,33.26527531
2.58150,32.04449768
2.58200,20.7523046
2.58250,5.797778621
2.58300,-4.578831241
2.58350,-10.6827194
2.58400,-18.617774
2.58450,-31.74113353
2.58500,-45.16968747
2.58550,-50.3579924
2.58600,-46.6956595
2.58650,-41.81254898
2.58700,-39.37099372
2.58750,-36.31904964
2.58800,-28.68918945
2.58850,-19.83855163
2.58900,-14.03985788
2.58950,-10.37752499
2.59000,-4.884025649
2.59050,1.219862505
2.59100,3.966612174
2.59150,1.830251321
2.59200,-2.13727598
2.59250,-5.189220057
2.59300,-4.273636833
2.59350,0.304279282
2.59400,6.408167436
2.59450,9.765305921
2.59500,10.37569474
2.59550,13.12244441
2.59600,19.83672137
2.59650,24.41463749
2.59700,22.88866545
2.59750,17.70036052
2.59800,15.86919407
2.59850,16.7847773
2.59900,15.86919407
2.59950,11.90166677
2.60000,7.934139475
2.60050,5.797778621
2.60100,4.57700099
2.60150,2.745834544
2.60200,0.6094736897
2.60250,-1.526887164
2.60300,-4.273636833
2.60350,-5.799608872
2.60400,-4.273636833
2.60450,-3.052859203
2.60500,-3.052859203
2.60550,-2.13727598
2.60600,3.356223359
2.60650,10.68088914
2.60700,12.81725
2.60750,9.460111513
2.60800,7.323750659
2.60850,11.29127796
2.60900,18.61594374
2.60950,22.58347104
2.61000,20.14191578
2.61050,13.42763881
2.61100,7.628945067
2.61150,4.882195398
2.61200,3.356223359
2.61250,0.9146680974
2.61300,-2.442470387
2.61350,-5.189220057
2.61400,-7.630775318
2.61450,-11.90349703
2.61500,-18.31257959
2.61550,-23.80607893
2.61600,-26.858023
2.61650,-28.99438386
2.61700,-28.68918945
2.61750,-21.05932926
2.61800,-8.546358541
2.61850,0.304279282
2.61900,1.830251321
2.61950,3.051028951
2.62000,11.59647237
2.62050,22.88866545
2.62100,27.16138716
2.62150,23.19385986
2.62200,20.44711019
2.62250,22.58347104
2.62300,25.02502631
2.62350,21.05749901
2.62400,10.68088914
2.62450,-1.526887164
2.62500,-12.20869143
2.62550,-21.05932926
2.62600,-28.99438386
2.62650,-36.01385523
2.62700,-39.67618813
2.62750,-38.7606049
2.62800,-35.70866083
2.62850,-35.40346642
2.62900,-36.62424405
2.62950,-33.57229997
2.63000,-24.72166215
2.63050,-14.9554411
2.63100,-7.630775318
2.63150,-0.3061095334
2.63200,8.849722698
2.63250,16.17438848
2.63300,17.70036052
2.63350,18.00555493
2.63400,22.58347104
2.63450,29.90813683
2.63500,34.48605294
2.63550,34.48605294
2.63600,32.34969209
2.63650,29.90813683
2.63700,26.24580394
2.63750,21.36269341
2.63800,15.56399967
2.63850,8.239333882
2.63900,-0.9164983488
2.63950,-10.37752499
2.64000,-16.78660755
2.64050,-20.44894044
2.64100,-22.8904957
2.64150,-25.94243978
2.64200,-28.99438386
2.64250,-29.90996708
2.64300,-28.07880063
2.64350,-24.41646774
2.64400,-21.97491248
2.64450,-20.14374603
2.64500,-16.48141314
2.64550,-9.156747357
2.64600,-1.221692756
2.64650,3.051028951
2.64700,5.797778621
2.64750,7.934139475
2.64800,7.934139475
2.64850,3.356223359
2.64900,-2.13727598
2.64950,-3.663248018
2.65000,-0.6113039411
2.65050,2.745834544
2.65100,3.966612174
2.65150,3.661417767
2.65200,3.661417767
2.65250,5.187389805
2.65300,8.239333882
2.65350,11.29127796
2.65400,11.59647237
2.65450,9.765305921
2.65500,10.98608355
2.65550,16.17438848
2.65600,20.14191578
2.65650,17.39516611
2.65700,9.765305921
2.65750,2.745834544
2.65800,-2.747664795
2.65850,-9.767136172
2.65900,-16.17621873
2.65950,-18.617774
2.66000,-18.617774
2.66050,-19.53335722
2.66100,-20.14374603
2.66150,-15.26063551
2.66200,-5.799608872
2.66250,0.9146680974
2.66300,3.661417767
2.66350,7.018556251
2.66400,14.34322204
2.66450,20.14191578
2.66500,19.53152697
2.66550,14.95361085
2.66600,12.20686118
2.66650,12.81725
2.66700,14.34322204
2.66750,17.39516611
2.66800,23.49905427
2.66850,29.90813683
2.66900,32.34969209
2.66950,30.21333124
2.67000,29.29774801
2.67050,32.6548865
2.67100,35.70683058
2.67150,31.43410887
2.67200,19.22633256
2.67250,5.187389805
2.67300,-3.663248018
2.67350,-7.630775318
2.67400,-10.07233058
2.67450,-14.6502467
2.67500,-23.19569011
2.67550,-32.96191116
2.67600,-39.37099372
2.67650,-41.50735457
2.67700,-41.50735457
2.67750,-41.20216017
2.67800,-38.15021609
2.67850,-32.96191116
2.67900,-31.13074471
2.67950,-35.09827201
2.68000,-39.37099372
2.68050,-36.62424405
2.68100,-30.5203559
2.68150,-29.29957827
2.68200,-30.5203559
2.68250,-25.02685656
2.68300,-14.03985788
2.68350,-8.546358541
2.68400,-8.851552949
2.68450,-1.526887164
2.68500,18.00555493
2.68550,34.79124735
2.68600,35.09644176
2.68650,27.46658157
2.68700,28.38216479
2.68750,35.40163617
2.68800,34.79124735
2.68850,25.63541512
2.68900,19.83672137
2.68950,20.14191578
2.69000,15.25880526
2.69050,0.304279282
2.69100,-13.73466347
2.69150,-18.9229684
2.69200,-18.617774
2.69250,-21.36452366
2.69300,-27.46841182
2.69350,-30.5203559
2.69400,-28.68918945
2.69450,-23.80607893
2.69500,-18.31257959
2.69550,-13.12427466
2.69600,-10.6827194
2.69650,-9.156747357
2.69700,-6.715192095
2.69750,-4.884025649
2.69800,-6.409997687
2.69850,-8.546358541
2.69900,-3.968442426
2.69950,5.492584213
2.70000,10.68088914
2.70050,5.797778621
2.70100,-2.442470387
2.70150,-4.884025649
2.70200,-0.6113039411
2.70250,4.57700099
2.70300,7.934139475
2.70350,9.765305921
2.70400,10.07050033
2.70450,8.239333882
2.70500,5.492584213
2.70550,4.882195398
2.70600,6.713361844
2.70650,8.849722698
2.70700,8.849722698
2.70750,7.628945067
2.70800,6.713361844
2.70850,6.713361844
2.70900,7.934139475
2.70950,11.29127796
2.71000,17.39516611
2.71050,24.10944308
2.71100,29.29774801
2.71150,32.04449768
2.71200,34.18085854
2.71250,36.01202498
2.71300,36.01202498
2.71350,32.6548865
2.71400,27.16138716
2.71450,21.05749901
2.71500,12.81725
2.71550,2.440640136
2.71600,-7.020386503
2.71650,-12.51388584
2.71700,-14.9554411
2.71750,-18.617774
2.71800,-24.72166215
2.71850,-28.68918945
2.71900,-28.68918945
2.71950,-27.16321741
2.72000,-27.46841182
2.72050,-27.46841182
2.72100,-23.80607893
2.72150,-16.78660755
2.72200,-10.07233058
2.72250,-6.10480328
2.72300,-4.578831241
2.72350,-4.884025649
2.72400,-7.32558091
2.72450,-11.29310821
2.72500,-14.34505229
2.72550,-13.73466347
2.72600,-9.767136172
2.72650,-3.663248018
2.72700,2.135445728
2.72750,6.102973028
2.72800,7.018556251
2.72850,4.57700099
2.72900,2.135445728
2.72950,1.525056913
2.73000,1.830251321
2.73050,-0.0009151256603
2.73100,-3.968442426
2.73150,-6.409997687
2.73200,-5.189220057
2.73250,-2.747664795
2.73300,-1.832081572
2.73350,-0.6113039411
2.73400,3.356223359
2.73450,7.934139475
2.73500,7.323750659
2.73550,2.440640136
2.73600,0.304279282
2.73650,4.271806582
2.73700,8.54452829
2.73750,8.239333882
2.73800,6.408167436
2.73850,10.37569474
2.73900,22.88866545
2.73950,38.45358024
2.74000,49.44057892
2.74050,52.492523
2.74100,49.44057892
2.74150,46.69382925
2.74200,46.99902366
2.74250,46.08344044
2.74300,39.06396906
2.74350,28.99255361
2.74400,26.24580394
2.74450,30.82372005
2.74500,30.82372005
2.74550,18.00555493
2.74600,2.135445728
2.74650,-1.221692756
2.74700,6.102973028
2.74750,10.68088914
2.74800,6.713361844
2.74850,2.135445728
2.74900,1.830251321
2.74950,-0.6113039411
2.75000,-10.37752499
2.75050,-23.50088452
2.75100,-35.09827201
2.75150,-48.52682595
2.75200,-65.31251837
2.75250,-77.52029468
2.75300,-77.82548909
2.75350,-69.58524008
2.75400,-62.2605743
2.75450,-56.15668614
2.75500,-45.78007628
2.75550,-30.5203559
2.75600,-17.09180196
2.75650,-9.156747357
2.75700,-3.35805361
2.75750,3.661417767
2.75800,12.20686118
2.75850,19.53152697
2.75900,23.49905427
2.75950,21.05749901
2.76000,11.59647237
2.76050,-0.9164983488
2.76100,-10.37752499
2.76150,-15.56582992
2.76200,-18.617774
2.76250,-20.75413485
2.76300,-20.75413485
2.76350,-19.53335722
2.76400,-19.22816281
2.76450,-19.22816281
2.76500,-16.48141314
2.76550,-11.59830262
2.76600,-8.546358541
2.76650,-6.409997687
2.76700,-0.9164983488
2.76750,7.934139475
2.76800,13.73283322
2.76850,11.90166677
2.76900,5.492584213
2.76950,0.6094736897
2.77000,-0.3061095334
2.77050,-0.3061095334
2.77100,2.745834544
2.77150,10.07050033
2.77200,17.39516611
2.77250,18.31074934
2.77300,13.12244441
2.77350,8.849722698
2.77400,8.239333882
2.77450,9.154917105
2.77500,9.765305921
2.77550,13.73283322
2.77600,22.88866545
2.77650,33.26527531
2.77700,39.36916347
2.77750,40.28474669
2.77800,38.14838584
2.77850,34.18085854
2.77900,28.38216479
2.77950,21.97308223
2.78000,17.39516611
2.78050,15.86919407
2.78100,14.64841644
2.78150,9.765305921
2.78200,1.830251321
2.78250,-4.273636833
2.78300,-5.494414464
2.78350,-4.578831241
2.78400,-6.409997687
2.78450,-11.59830262
2.78500,-14.6502467
2.78550,-11.90349703
2.78600,-6.10480328
2.78650,-3.35805361
2.78700,-4.884025649
2.78750,-7.32558091
2.78800,-8.546358541
2.78850,-12.20869143
2.78900,-18.617774
2.78950,-23.50088452
2.79000,-23.50088452
2.79050,-21.36452366
2.79100,-19.53335722
2.79150,-15.87102433
2.79200,-7.935969726
2.79250,-0.0009151256603
2.79300,3.356223359
2.79350,2.745834544
2.79400,3.966612174
2.79450,5.492584213
2.79500,0.9146680974
2.79550,-9.461941764
2.79600,-17.70219077
2.79650,-17.39699636
2.79700,-13.73466347
2.79750,-14.6502467
2.79800,-21.66971807
2.79850,-28.07880063
2.79900,-28.99438386
2.79950,-24.41646774
2.80000,-18.31257959
2.80050,-13.12427466
2.80100,-9.156747357
2.80150,-5.494414464
2.80200,-1.832081572
2.80250,-1.526887164
2.80300,-3.35805361
2.80350,-0.3061095334
2.80400,12.81725
2.80450,29.29774801
2.80500,36.01202498
2.80550,31.73930328
2.80600,26.55099834
2.80650,27.77177598
2.80700,32.34969209
2.80750,35.09644176
2.80800,34.79124735
2.80850,32.96008091
2.80900,27.16138716
2.80950,18.00555493
2.81000,9.460111513
2.81050,3.051028951
2.81100,-4.273636833
2.81150,-16.17621873
2.81200,-25.94243978
2.81250,-27.16321741
2.81300,-21.66971807
2.81350,-16.78660755
2.81400,-15.87102433
2.81450,-17.39699636
2.81500,-19.83855163
2.81550,-23.50088452
2.81600,-24.72166215
2.81650,-19.53335722
2.81700,-7.630775318
2.81750,3.966612174
2.81800,10.98608355
2.81850,12.81725
2.81900,14.64841644
2.81950,19.22633256
2.82000,26.85619275
2.82050,32.34969209
2.82100,30.82372005
2.82150,20.44711019
2.82200,6.713361844
2.82250,-3.35805361
2.82300,-8.851552949
2.82350,-11.90349703
2.82400,-14.34505229
2.82450,-14.9554411
2.82500,-11.29310821
2.82550,-3.35805361
2.82600,6.408167436
2.82650,15.25880526
2.82700,22.27827664
2.82750,31.12891446
2.82800,44.5574684
2.82850,56.4600503
2.82900,56.15485589
2.82950,42.72630195
2.83000,30.21333124
2.83050,28.07697038
2.83100,30.21333124
2.83150,25.02502631
2.83200,13.42763881
2.83250,5.187389805
2.83300,1.219862505
2.83350,-4.273636833
2.83400,-12.51388584
2.83450,-14.9554411
2.83500,-11.29310821
2.83550,-10.37752499
2.83600,-15.26063551
2.83650,-17.70219077
2.83700,-12.51388584
2.83750,-8.851552949
2.83800,-17.39699636
2.83850,-34.7930776
2.83900,-49.74760358
2.83950,-55.85149174
2.84000,-53.10474207
2.84050,-43.64371543
2.84100,-32.96191116
2.84150,-27.77360623
2.84200,-28.07880063
2.84250,-25.63724537
2.84300,-16.17621873
2.84350,-7.935969726
2.84400,-9.156747357
2.84450,-15.56582992
2.84500,-17.39699636
2.84550,-14.03985788
2.84600,-13.42946906
2.84650,-17.70219077
2.84700,-19.83855163
2.84750,-16.48141314
2.84800,-12.81908025
2.84850,-12.81908025
2.84900,-13.12427466
2.84950,-8.546358541
2.85000,-0.0009151256603
2.85050,7.934139475
2.85100,11.29127796
2.85150,12.20686118
2.85200,14.64841644
2.85250,20.44711019
2.85300,26.85619275
2.85350,30.21333124
2.85400,28.99255361
2.85450,24.7198319
2.85500,19.22633256
2.85550,14.64841644
2.85600,12.51205559
2.85650,12.81725
2.85700,13.12244441
2.85750,11.29127796
2.85800,7.934139475
2.85850,4.271806582
2.85900,0.6094736897
2.85950,-1.526887164
2.86000,-0.3061095334
2.86050,5.187389805
2.86100,10.37569474
2.86150,10.98608355
2.86200,8.54452829
2.86250,8.239333882
2.86300,11.59647237
2.86350,14.95361085
2.86400,16.47958289
2.86450,18.31074934
2.86500,20.7523046
2.86550,23.49905427
2.86600,25.33022071
2.86650,23.49905427
2.86700,16.47958289
2.86750,6.102973028
2.86800,-2.442470387
2.86850,-7.630775318
2.86900,-13.12427466
2.86950,-21.05932926
2.87000,-26.858023
2.87050,-27.46841182
2.87100,-26.858023
2.87150,-28.99438386
2.87200,-28.68918945
2.87250,-19.83855163
2.87300,-7.020386503
2.87350,0.9146680974
2.87400,3.661417767
2.87450,7.018556251
2.87500,10.68088914
2.87550,7.628945067
2.87600,-3.052859203
2.87650,-14.03985788
2.87700,-17.39699636
2.87750,-13.12427466
2.87800,-4.884025649
2.87850,0.9146680974
2.87900,2.135445728
2.87950,1.525056913
2.88000,6.102973028
2.88050,18.92113815
2.88100,31.43410887
2.88150,33.57046972
2.88200,25.33022071
2.88250,14.95361085
2.88300,6.713361844
2.88350,-0.3061095334
2.88400,-5.494414464
2.88450,-4.578831241
2.88500,-0.6113039411
2.88550,-0.6113039411
2.88600,-7.630775318
2.88650,-14.03985788
2.88700,-14.34505229
2.88750,-12.51388584
2.88800,-15.26063551
2.88850,-21.05932926
2.88900,-22.8904957
2.88950,-21.05932926
2.89000,-23.19569011
2.89050,-28.99438386
2.89100,-28.99438386
2.89150,-17.39699636
2.89200,-1.221692756
2.89250,7.018556251
2.89300,8.54452829
2.89350,11.59647237
2.89400,19.53152697
2.89450,25.94060953
2.89500,27.77177598
2.89550,28.6873592
2.89600,28.6873592
2.89650,21.66788782
2.89700,7.323750659
2.89750,-4.578831241
2.89800,-7.630775318
2.89850,-4.884025649
2.89900,-3.663248018
2.89950,-3.968442426
2.90000,-3.968442426
2.90050,-5.189220057
