type,name,time_units,begin_time,frequency,count,units
signal,"Noraxon Ultium-RT BRACHIORAD.","s",0.00000,2000,50920,"uV"

time,value
0.00000,-0.6108463782
0.00050,-0.3056519705
0.00100,-0.3056519705
0.00150,-0.6108463782
0.00200,-0.3056519705
0.00250,-0.0004575628301
0.00300,0.3047368449
0.00350,0.3047368449
0.00400,-0.0004575628301
0.00450,-0.6108463782
0.00500,-0.0004575628301
0.00550,0.6099312526
0.00600,1.525514476
0.00650,1.830708883
0.00700,1.525514476
0.00750,0.9151256603
0.00800,0.3047368449
0.00850,-0.0004575628301
0.00900,-0.0004575628301
0.00950,0.3047368449
0.01000,-0.6108463782
0.01050,-2.136818417
0.01100,-3.05240164
0.01150,-2.136818417
0.01200,-0.6108463782
0.01250,-0.6108463782
0.01300,-1.831624009
0.01350,-3.05240164
0.01400,-2.747207232
0.01450,-1.831624009
0.01500,-1.526429601
0.01550,-2.136818417
0.01600,-2.747207232
0.01650,-2.136818417
0.01700,-0.0004575628301
0.01750,1.220320068
0.01800,1.830708883
0.01850,1.830708883
0.01900,1.525514476
0.01950,1.220320068
0.02000,0.9151256603
0.02050,1.525514476
0.02100,2.135903291
0.02150,1.830708883
0.02200,0.6099312526
0.02250,-0.3056519705
0.02300,-1.221235194
0.02350,-1.831624009
0.02400,-2.747207232
0.02450,-3.357596048
0.02500,-3.05240164
0.02550,-3.662790455
0.02600,-4.883568086
0.02650,-5.799151309
0.02700,-6.104345717
0.02750,-7.01992894
0.02800,-7.935512163
0.02850,-5.493956901
0.02900,-0.0004575628301
0.02950,4.577458553
0.03000,4.577458553
0.03050,3.66187533
0.03100,6.103430591
0.03150,9.155374668
0.03200,7.62940263
0.03250,2.135903291
0.03300,-0.3056519705
0.03350,1.830708883
0.03400,4.88265296
0.03450,5.187847368
0.03500,3.66187533
0.03550,2.746292106
0.03600,3.051486514
0.03650,3.051486514
0.03700,3.66187533
0.03750,4.88265296
0.03800,3.967069737
0.03850,0.9151256603
0.03900,-2.136818417
0.03950,-2.442012824
0.04000,-0.6108463782
0.04050,1.220320068
0.04100,2.746292106
0.04150,4.272264145
0.04200,5.187847368
0.04250,4.88265296
0.04300,3.967069737
0.04350,3.356680922
0.04400,3.051486514
0.04450,2.746292106
0.04500,3.051486514
0.04550,3.66187533
0.04600,3.66187533
0.04650,2.746292106
0.04700,2.441097699
0.04750,3.967069737
0.04800,5.493041776
0.04850,5.493041776
0.04900,3.967069737
0.04950,3.356680922
0.05000,3.66187533
0.05050,3.66187533
0.05100,2.441097699
0.05150,0.9151256603
0.05200,0.6099312526
0.05250,1.830708883
0.05300,2.746292106
0.05350,1.830708883
0.05400,-0.0004575628301
0.05450,-1.526429601
0.05500,-2.442012824
0.05550,-3.05240164
0.05600,-4.578373678
0.05650,-6.104345717
0.05700,-6.104345717
0.05750,-6.104345717
0.05800,-6.409540125
0.05850,-7.01992894
0.05900,-6.104345717
0.05950,-2.747207232
0.06000,-0.0004575628301
0.06050,-0.0004575628301
0.06100,-1.221235194
0.06150,-3.05240164
0.06200,-4.578373678
0.06250,-5.493956901
0.06300,-4.883568086
0.06350,-3.05240164
0.06400,-1.831624009
0.06450,-1.526429601
0.06500,-1.831624009
0.06550,-2.136818417
0.06600,-2.136818417
0.06650,-2.136818417
0.06700,-2.136818417
0.06750,-1.831624009
0.06800,-1.831624009
0.06850,-1.831624009
0.06900,-2.136818417
0.06950,-2.136818417
0.07000,-2.747207232
0.07050,-3.662790455
0.07100,-3.357596048
0.07150,-2.136818417
0.07200,-1.221235194
0.07250,-0.9160407859
0.07300,-0.3056519705
0.07350,-0.0004575628301
0.07400,-0.0004575628301
0.07450,-0.9160407859
0.07500,-1.221235194
0.07550,-0.3056519705
0.07600,-0.0004575628301
0.07650,-0.9160407859
0.07700,-1.221235194
0.07750,-0.0004575628301
0.07800,1.525514476
0.07850,0.3047368449
0.07900,-2.442012824
0.07950,-3.662790455
0.08000,-1.831624009
0.08050,0.6099312526
0.08100,1.220320068
0.08150,0.6099312526
0.08200,-0.0004575628301
0.08250,-0.9160407859
0.08300,-1.221235194
0.08350,-0.9160407859
0.08400,-0.3056519705
0.08450,0.3047368449
0.08500,0.3047368449
0.08550,-0.0004575628301
0.08600,-0.3056519705
0.08650,-0.3056519705
0.08700,-0.6108463782
0.08750,-0.9160407859
0.08800,-0.3056519705
0.08850,0.6099312526
0.08900,1.525514476
0.08950,1.525514476
0.09000,0.9151256603
0.09050,1.525514476
0.09100,2.441097699
0.09150,3.051486514
0.09200,2.135903291
0.09250,0.9151256603
0.09300,-0.0004575628301
0.09350,-0.6108463782
0.09400,-0.3056519705
0.09450,-0.0004575628301
0.09500,-0.0004575628301
0.09550,-0.6108463782
0.09600,-1.221235194
0.09650,-0.0004575628301
0.09700,1.830708883
0.09750,2.746292106
0.09800,2.135903291
0.09850,1.220320068
0.09900,0.9151256603
0.09950,0.6099312526
0.10000,-0.0004575628301
0.10050,-0.0004575628301
0.10100,1.220320068
0.10150,3.356680922
0.10200,4.577458553
0.10250,4.577458553
0.10300,3.66187533
0.10350,2.441097699
0.10400,1.830708883
0.10450,2.441097699
0.10500,3.66187533
0.10550,3.66187533
0.10600,2.441097699
0.10650,1.220320068
0.10700,0.9151256603
0.10750,0.6099312526
0.10800,-0.0004575628301
0.10850,-0.9160407859
0.10900,-0.9160407859
0.10950,-0.6108463782
0.11000,-1.221235194
0.11050,-1.526429601
0.11100,-0.0004575628301
0.11150,1.220320068
0.11200,1.220320068
0.11250,0.3047368449
0.11300,0.9151256603
0.11350,2.441097699
0.11400,2.441097699
0.11450,0.3047368449
0.11500,-0.9160407859
0.11550,-0.3056519705
0.11600,0.6099312526
0.11650,0.9151256603
0.11700,0.3047368449
0.11750,0.6099312526
0.11800,0.3047368449
0.11850,-0.6108463782
0.11900,-2.136818417
0.11950,-2.442012824
0.12000,-1.526429601
0.12050,-0.6108463782
0.12100,-1.526429601
0.12150,-2.442012824
0.12200,-1.221235194
0.12250,0.9151256603
0.12300,1.220320068
0.12350,-0.6108463782
0.12400,-3.05240164
0.12450,-3.05240164
0.12500,-1.526429601
0.12550,-2.136818417
0.12600,-4.578373678
0.12650,-5.799151309
0.12700,-3.967984863
0.12750,-0.3056519705
0.12800,2.135903291
0.12850,2.746292106
0.12900,2.135903291
0.12950,0.9151256603
0.13000,-1.221235194
0.13050,-3.05240164
0.13100,-2.442012824
0.13150,-0.3056519705
0.13200,0.9151256603
0.13250,0.9151256603
0.13300,0.6099312526
0.13350,1.830708883
0.13400,3.051486514
0.13450,3.356680922
0.13500,2.746292106
0.13550,2.441097699
0.13600,2.441097699
0.13650,1.830708883
0.13700,1.220320068
0.13750,1.830708883
0.13800,3.356680922
0.13850,3.356680922
0.13900,1.525514476
0.13950,-0.0004575628301
0.14000,-0.0004575628301
0.14050,0.6099312526
0.14100,1.220320068
0.14150,0.6099312526
0.14200,-0.0004575628301
0.14250,0.3047368449
0.14300,0.6099312526
0.14350,0.6099312526
0.14400,-0.0004575628301
0.14450,-0.9160407859
0.14500,-2.136818417
0.14550,-1.831624009
0.14600,-1.526429601
0.14650,-1.831624009
0.14700,-3.357596048
0.14750,-3.662790455
0.14800,-2.747207232
0.14850,-1.221235194
0.14900,-1.221235194
0.14950,-1.221235194
0.15000,-0.6108463782
0.15050,0.6099312526
0.15100,0.6099312526
0.15150,-0.3056519705
0.15200,-1.221235194
0.15250,-1.221235194
0.15300,-0.9160407859
0.15350,-0.6108463782
0.15400,-0.0004575628301
0.15450,2.135903291
0.15500,3.967069737
0.15550,5.187847368
0.15600,4.88265296
0.15650,4.272264145
0.15700,3.356680922
0.15750,3.356680922
0.15800,4.272264145
0.15850,4.272264145
0.15900,2.441097699
0.15950,0.3047368449
0.16000,-0.0004575628301
0.16050,0.6099312526
0.16100,0.6099312526
0.16150,-0.0004575628301
0.16200,-0.3056519705
0.16250,0.6099312526
0.16300,1.220320068
0.16350,-0.0004575628301
0.16400,-1.831624009
0.16450,-2.747207232
0.16500,-2.136818417
0.16550,-0.6108463782
0.16600,1.525514476
0.16650,3.66187533
0.16700,3.66187533
0.16750,1.525514476
0.16800,0.3047368449
0.16850,0.3047368449
0.16900,0.3047368449
0.16950,-0.3056519705
0.17000,-1.221235194
0.17050,-0.3056519705
0.17100,0.9151256603
0.17150,0.6099312526
0.17200,-0.9160407859
0.17250,-1.831624009
0.17300,-1.221235194
0.17350,-0.0004575628301
0.17400,0.6099312526
0.17450,0.6099312526
0.17500,-0.3056519705
0.17550,-0.6108463782
0.17600,0.9151256603
0.17650,3.66187533
0.17700,3.967069737
0.17750,1.525514476
0.17800,-1.526429601
0.17850,-2.747207232
0.17900,-3.357596048
0.17950,-3.662790455
0.18000,-3.967984863
0.18050,-3.357596048
0.18100,-2.747207232
0.18150,-3.357596048
0.18200,-3.662790455
0.18250,-2.747207232
0.18300,-1.831624009
0.18350,-1.831624009
0.18400,-1.831624009
0.18450,-0.9160407859
0.18500,-0.3056519705
0.18550,-0.6108463782
0.18600,-0.6108463782
0.18650,-0.0004575628301
0.18700,0.9151256603
0.18750,1.220320068
0.18800,1.220320068
0.18850,1.220320068
0.18900,0.3047368449
0.18950,-0.6108463782
0.19000,-1.221235194
0.19050,-0.6108463782
0.19100,-0.0004575628301
0.19150,-0.0004575628301
0.19200,-0.3056519705
0.19250,-0.3056519705
0.19300,-0.0004575628301
0.19350,0.6099312526
0.19400,1.525514476
0.19450,2.441097699
0.19500,2.135903291
0.19550,0.9151256603
0.19600,0.6099312526
0.19650,0.9151256603
0.19700,0.6099312526
0.19750,-0.3056519705
0.19800,-1.221235194
0.19850,-1.221235194
0.19900,-2.136818417
0.19950,-4.273179271
0.20000,-5.188762494
0.20050,-3.357596048
0.20100,-0.9160407859
0.20150,-0.6108463782
0.20200,-0.9160407859
0.20250,-0.0004575628301
0.20300,1.220320068
0.20350,1.830708883
0.20400,2.441097699
0.20450,3.967069737
0.20500,5.187847368
0.20550,4.577458553
0.20600,2.135903291
0.20650,1.525514476
0.20700,2.135903291
0.20750,2.441097699
0.20800,1.220320068
0.20850,1.525514476
0.20900,3.66187533
0.20950,5.493041776
0.21000,4.577458553
0.21050,2.441097699
0.21100,1.525514476
0.21150,2.441097699
0.21200,2.746292106
0.21250,0.9151256603
0.21300,-0.9160407859
0.21350,-2.136818417
0.21400,-1.831624009
0.21450,-1.831624009
0.21500,-2.442012824
0.21550,-3.357596048
0.21600,-2.442012824
0.21650,-0.3056519705
0.21700,1.220320068
0.21750,2.135903291
0.21800,2.441097699
0.21850,2.441097699
0.21900,1.830708883
0.21950,-0.0004575628301
0.22000,-1.221235194
0.22050,-0.9160407859
0.22100,-0.0004575628301
0.22150,-0.3056519705
0.22200,-0.3056519705
0.22250,0.6099312526
0.22300,2.135903291
0.22350,1.830708883
0.22400,0.3047368449
0.22450,-0.9160407859
0.22500,-0.9160407859
0.22550,-1.526429601
0.22600,-2.747207232
0.22650,-3.357596048
0.22700,-2.442012824
0.22750,-1.831624009
0.22800,-1.221235194
0.22850,-0.6108463782
0.22900,-0.6108463782
0.22950,-1.221235194
0.23000,-1.831624009
0.23050,-1.831624009
0.23100,-0.9160407859
0.23150,-1.221235194
0.23200,-2.442012824
0.23250,-2.747207232
0.23300,-2.136818417
0.23350,-1.526429601
0.23400,-2.747207232
0.23450,-3.967984863
0.23500,-3.967984863
0.23550,-3.967984863
0.23600,-4.578373678
0.23650,-5.493956901
0.23700,-4.273179271
0.23750,-2.136818417
0.23800,-0.0004575628301
0.23850,1.220320068
0.23900,2.135903291
0.23950,1.830708883
0.24000,0.9151256603
0.24050,-0.0004575628301
0.24100,-0.6108463782
0.24150,-0.3056519705
0.24200,-0.3056519705
0.24250,-0.6108463782
0.24300,-0.9160407859
0.24350,-1.526429601
0.24400,-1.831624009
0.24450,-0.6108463782
0.24500,0.9151256603
0.24550,1.220320068
0.24600,-0.0004575628301
0.24650,-1.221235194
0.24700,-0.6108463782
0.24750,-0.0004575628301
0.24800,-0.0004575628301
0.24850,-0.6108463782
0.24900,-0.0004575628301
0.24950,0.6099312526
0.25000,-0.0004575628301
0.25050,-1.221235194
0.25100,-1.831624009
0.25150,-0.3056519705
0.25200,1.525514476
0.25250,3.051486514
0.25300,3.66187533
0.25350,3.051486514
0.25400,1.830708883
0.25450,0.6099312526
0.25500,0.6099312526
0.25550,0.9151256603
0.25600,0.6099312526
0.25650,-0.0004575628301
0.25700,-0.9160407859
0.25750,-0.9160407859
0.25800,-0.3056519705
0.25850,-0.0004575628301
0.25900,0.3047368449
0.25950,1.220320068
0.26000,1.525514476
0.26050,0.9151256603
0.26100,-0.0004575628301
0.26150,-0.6108463782
0.26200,-0.3056519705
0.26250,-0.0004575628301
0.26300,-0.6108463782
0.26350,-1.831624009
0.26400,-2.747207232
0.26450,-1.221235194
0.26500,1.220320068
0.26550,3.051486514
0.26600,3.051486514
0.26650,1.830708883
0.26700,0.9151256603
0.26750,0.3047368449
0.26800,-0.0004575628301
0.26850,-0.0004575628301
0.26900,0.6099312526
0.26950,2.441097699
0.27000,3.66187533
0.27050,3.051486514
0.27100,2.441097699
0.27150,2.746292106
0.27200,3.967069737
0.27250,5.187847368
0.27300,5.187847368
0.27350,4.88265296
0.27400,4.272264145
0.27450,3.967069737
0.27500,4.272264145
0.27550,4.88265296
0.27600,4.88265296
0.27650,4.272264145
0.27700,3.66187533
0.27750,3.967069737
0.27800,3.66187533
0.27850,1.830708883
0.27900,-0.0004575628301
0.27950,-0.0004575628301
0.28000,0.6099312526
0.28050,-0.3056519705
0.28100,-2.747207232
0.28150,-3.662790455
0.28200,-1.831624009
0.28250,0.9151256603
0.28300,3.356680922
0.28350,5.187847368
0.28400,6.408624999
0.28450,5.187847368
0.28500,2.135903291
0.28550,-0.3056519705
0.28600,-0.3056519705
0.28650,-0.0004575628301
0.28700,-0.6108463782
0.28750,-3.967984863
0.28800,-6.714734532
0.28850,-7.630317755
0.28900,-7.325123348
0.28950,-7.325123348
0.29000,-7.325123348
0.29050,-7.01992894
0.29100,-6.104345717
0.29150,-6.409540125
0.29200,-7.935512163
0.29250,-9.461484202
0.29300,-8.851095386
0.29350,-6.714734532
0.29400,-5.188762494
0.29450,-5.493956901
0.29500,-4.883568086
0.29550,-1.221235194
0.29600,3.356680922
0.29650,5.187847368
0.29700,3.051486514
0.29750,-0.0004575628301
0.29800,-1.221235194
0.29850,-0.9160407859
0.29900,-1.221235194
0.29950,-2.442012824
0.30000,-3.662790455
0.30050,-3.662790455
0.30100,-2.442012824
0.30150,-0.3056519705
0.30200,2.135903291
0.30250,3.967069737
0.30300,3.356680922
0.30350,1.830708883
0.30400,0.9151256603
0.30450,1.220320068
0.30500,2.135903291
0.30550,2.441097699
0.30600,2.746292106
0.30650,2.746292106
0.30700,3.051486514
0.30750,3.66187533
0.30800,4.577458553
0.30850,5.798236183
0.30900,6.103430591
0.30950,5.493041776
0.31000,4.272264145
0.31050,3.66187533
0.31100,3.356680922
0.31150,3.051486514
0.31200,2.441097699
0.31250,1.525514476
0.31300,-0.0004575628301
0.31350,-1.526429601
0.31400,-2.747207232
0.31450,-2.442012824
0.31500,-2.136818417
0.31550,-2.136818417
0.31600,-2.747207232
0.31650,-2.442012824
0.31700,-0.3056519705
0.31750,1.220320068
0.31800,0.9151256603
0.31850,-0.9160407859
0.31900,-2.442012824
0.31950,-2.136818417
0.32000,-1.221235194
0.32050,-0.0004575628301
0.32100,0.6099312526
0.32150,0.9151256603
0.32200,0.3047368449
0.32250,-0.0004575628301
0.32300,0.3047368449
0.32350,0.6099312526
0.32400,-0.6108463782
0.32450,-2.442012824
0.32500,-1.831624009
0.32550,0.9151256603
0.32600,3.356680922
0.32650,2.746292106
0.32700,1.525514476
0.32750,2.441097699
0.32800,4.272264145
0.32850,5.187847368
0.32900,3.66187533
0.32950,1.830708883
0.33000,-0.0004575628301
0.33050,-1.526429601
0.33100,-2.442012824
0.33150,-2.442012824
0.33200,-1.526429601
0.33250,-0.3056519705
0.33300,0.3047368449
0.33350,0.6099312526
0.33400,0.6099312526
0.33450,1.220320068
0.33500,3.051486514
0.33550,4.272264145
0.33600,3.967069737
0.33650,3.051486514
0.33700,2.746292106
0.33750,3.66187533
0.33800,3.051486514
0.33850,1.220320068
0.33900,-0.0004575628301
0.33950,-0.0004575628301
0.34000,0.3047368449
0.34050,-0.0004575628301
0.34100,-0.3056519705
0.34150,0.9151256603
0.34200,3.051486514
0.34250,3.66187533
0.34300,3.356680922
0.34350,3.051486514
0.34400,2.135903291
0.34450,0.9151256603
0.34500,-0.3056519705
0.34550,-0.9160407859
0.34600,-0.3056519705
0.34650,-0.0004575628301
0.34700,-0.0004575628301
0.34750,1.220320068
0.34800,2.441097699
0.34850,3.66187533
0.34900,5.187847368
0.34950,7.324208222
0.35000,8.850180261
0.35050,9.155374668
0.35100,8.239791445
0.35150,7.62940263
0.35200,7.934597037
0.35250,7.934597037
0.35300,7.62940263
0.35350,7.62940263
0.35400,8.239791445
0.35450,10.3761523
0.35500,13.12290197
0.35550,14.95406841
0.35600,14.95406841
0.35650,14.03848519
0.35700,11.90212434
0.35750,8.850180261
0.35800,5.187847368
0.35850,1.830708883
0.35900,0.3047368449
0.35950,-1.221235194
0.36000,-4.578373678
0.36050,-9.461484202
0.36100,-13.4290115
0.36150,-14.95498354
0.36200,-16.17576117
0.36250,-18.00692762
0.36300,-19.83809406
0.36350,-19.53289966
0.36400,-18.00692762
0.36450,-17.09134439
0.36500,-17.70173321
0.36550,-18.31212202
0.36600,-16.78614999
0.36650,-13.4290115
0.36700,-10.07187302
0.36750,-7.935512163
0.36800,-7.325123348
0.36850,-8.545900978
0.36900,-10.68226183
0.36950,-11.29265065
0.37000,-10.07187302
0.37050,-7.630317755
0.37100,-6.409540125
0.37150,-6.714734532
0.37200,-6.714734532
0.37250,-4.883568086
0.37300,-2.442012824
0.37350,-0.3056519705
0.37400,1.220320068
0.37450,4.577458553
0.37500,7.62940263
0.37550,8.544985853
0.37600,6.713819407
0.37650,4.88265296
0.37700,4.272264145
0.37750,4.272264145
0.37800,3.967069737
0.37850,4.577458553
0.37900,5.798236183
0.37950,6.713819407
0.38000,7.019013814
0.38050,8.239791445
0.38100,12.20731875
0.38150,16.17484605
0.38200,16.78523486
0.38250,12.81770756
0.38300,8.544985853
0.38350,7.324208222
0.38400,8.850180261
0.38450,9.765763484
0.38500,8.544985853
0.38550,5.493041776
0.38600,2.135903291
0.38650,-0.9160407859
0.38700,-4.273179271
0.38750,-6.104345717
0.38800,-4.883568086
0.38850,-0.6108463782
0.38900,3.66187533
0.38950,7.934597037
0.39000,12.81770756
0.39050,19.22679012
0.39100,25.02548387
0.39150,28.68781676
0.39200,30.2137888
0.39250,30.82417762
0.39300,29.29820558
0.39350,25.33067828
0.39400,19.22679012
0.39450,11.59692993
0.39500,2.746292106
0.39550,-5.188762494
0.39600,-8.545900978
0.39650,-6.104345717
0.39700,-2.136818417
0.39750,-0.6108463782
0.39800,-1.831624009
0.39850,-5.493956901
0.39900,-11.59784506
0.39950,-21.05887169
0.40000,-29.60431511
0.40050,-32.04587037
0.40100,-29.60431511
0.40150,-28.07834307
0.40200,-28.38353748
0.40250,-26.55237103
0.40300,-20.75367729
0.40350,-16.48095558
0.40400,-19.22770525
0.40450,-26.55237103
0.40500,-31.43548156
0.40550,-30.82509274
0.40600,-27.16275985
0.40650,-25.63678781
0.40700,-28.99392629
0.40750,-37.84456412
0.40800,-50.66272924
0.40850,-63.48089436
0.40900,-68.9743937
0.40950,-64.39647759
0.41000,-54.32506213
0.41050,-44.86403549
0.41100,-39.06534175
0.41150,-34.48742563
0.41200,-28.99392629
0.41250,-23.80562136
0.41300,-20.14328847
0.41350,-17.70173321
0.41400,-12.81862269
0.41450,-4.883568086
0.41500,4.88265296
0.41550,13.12290197
0.41600,16.17484605
0.41650,14.03848519
0.41700,9.765763484
0.41750,7.934597037
0.41800,9.460569076
0.41850,11.59692993
0.41900,12.51251315
0.41950,12.20731875
0.42000,10.98654111
0.42050,9.765763484
0.42100,8.544985853
0.42150,7.324208222
0.42200,6.713819407
0.42250,6.713819407
0.42300,7.019013814
0.42350,5.493041776
0.42400,2.746292106
0.42450,0.9151256603
0.42500,2.135903291
0.42550,3.66187533
0.42600,3.356680922
0.42650,0.3047368449
0.42700,-0.9160407859
0.42750,1.220320068
0.42800,5.493041776
0.42850,8.850180261
0.42900,10.07095789
0.42950,9.460569076
0.43000,7.934597037
0.43050,6.408624999
0.43100,5.798236183
0.43150,7.019013814
0.43200,9.155374668
0.43250,10.68134671
0.43300,10.68134671
0.43350,8.850180261
0.43400,6.103430591
0.43450,3.051486514
0.43500,1.220320068
0.43550,1.525514476
0.43600,3.051486514
0.43650,4.272264145
0.43700,5.493041776
0.43750,5.798236183
0.43800,4.577458553
0.43850,2.441097699
0.43900,2.135903291
0.43950,4.577458553
0.44000,8.544985853
0.44050,11.29173552
0.44100,11.59692993
0.44150,11.90212434
0.44200,13.12290197
0.44250,14.64887401
0.44300,13.73329078
0.44350,10.68134671
0.44400,6.713819407
0.44450,3.66187533
0.44500,0.3047368449
0.44550,-3.05240164
0.44600,-5.799151309
0.44650,-7.01992894
0.44700,-8.240706571
0.44750,-10.07187302
0.44800,-7.935512163
0.44850,-0.0004575628301
0.44900,9.765763484
0.44950,12.20731875
0.45000,7.324208222
0.45050,3.051486514
0.45100,5.493041776
0.45150,10.98654111
0.45200,14.95406841
0.45250,19.53198453
0.45300,26.85665031
0.45350,34.79170492
0.45400,36.62287136
0.45450,30.51898321
0.45500,19.53198453
0.45550,9.155374668
0.45600,2.441097699
0.45650,0.9151256603
0.45700,3.356680922
0.45750,5.493041776
0.45800,4.272264145
0.45850,1.220320068
0.45900,-0.3056519705
0.45950,-0.3056519705
0.46000,-0.9160407859
0.46050,-2.747207232
0.46100,-4.578373678
0.46150,-5.188762494
0.46200,-4.578373678
0.46250,-3.357596048
0.46300,-1.221235194
0.46350,-0.0004575628301
0.46400,-0.3056519705
0.46450,-0.9160407859
0.46500,1.830708883
0.46550,8.850180261
0.46600,16.17484605
0.46650,18.3112069
0.46700,14.03848519
0.46750,7.934597037
0.46800,3.356680922
0.46850,0.9151256603
0.46900,-1.221235194
0.46950,-4.883568086
0.47000,-7.325123348
0.47050,-7.01992894
0.47100,-3.357596048
0.47150,-0.0004575628301
0.47200,1.220320068
0.47250,1.525514476
0.47300,5.187847368
0.47350,15.25926282
0.47400,28.68781676
0.47450,36.92806577
0.47500,35.70728814
0.47550,28.38262235
0.47600,21.36315098
0.47650,16.17484605
0.47700,11.29173552
0.47750,5.798236183
0.47800,1.830708883
0.47850,-0.0004575628301
0.47900,-3.662790455
0.47950,-9.156289794
0.48000,-11.90303946
0.48050,-6.714734532
0.48100,3.051486514
0.48150,10.07095789
0.48200,10.07095789
0.48250,5.798236183
0.48300,3.66187533
0.48350,7.019013814
0.48400,13.73329078
0.48450,18.92159571
0.48500,18.92159571
0.48550,14.03848519
0.48600,7.62940263
0.48650,5.187847368
0.48700,8.850180261
0.48750,16.78523486
0.48800,24.10990065
0.48850,26.2462615
0.48900,23.19431742
0.48950,17.70081808
0.49000,13.73329078
0.49050,12.81770756
0.49100,13.73329078
0.49150,14.03848519
0.49200,12.20731875
0.49250,8.544985853
0.49300,4.88265296
0.49350,1.830708883
0.49400,-1.831624009
0.49450,-8.240706571
0.49500,-14.03940032
0.49550,-16.78614999
0.49600,-16.48095558
0.49650,-14.95498354
0.49700,-13.12381709
0.49750,-11.90303946
0.49800,-12.81862269
0.49850,-14.34459472
0.49900,-10.98745624
0.49950,-0.0004575628301
0.50000,11.90212434
0.50050,13.12290197
0.50100,2.746292106
0.50150,-9.766678609
0.50200,-18.31212202
0.50250,-24.41601018
0.50300,-28.99392629
0.50350,-27.46795426
0.50400,-17.09134439
0.50450,-4.883568086
0.50500,1.220320068
0.50550,1.220320068
0.50600,0.6099312526
0.50650,1.830708883
0.50700,1.525514476
0.50750,-0.9160407859
0.50800,-4.273179271
0.50850,-5.188762494
0.50900,-2.136818417
0.50950,2.746292106
0.51000,7.934597037
0.51050,8.850180261
0.51100,5.187847368
0.51150,0.3047368449
0.51200,-1.831624009
0.51250,-2.442012824
0.51300,-3.967984863
0.51350,-5.799151309
0.51400,-4.273179271
0.51450,1.525514476
0.51500,8.544985853
0.51550,11.90212434
0.51600,9.460569076
0.51650,3.967069737
0.51700,-1.221235194
0.51750,-3.357596048
0.51800,-2.442012824
0.51850,0.6099312526
0.51900,6.103430591
0.51950,10.3761523
0.52000,8.544985853
0.52050,-0.9160407859
0.52100,-11.29265065
0.52150,-14.34459472
0.52200,-11.90303946
0.52250,-12.51342828
0.52300,-18.61731643
0.52350,-23.50042696
0.52400,-20.75367729
0.52450,-13.4290115
0.52500,-7.630317755
0.52550,-3.967984863
0.52600,-0.3056519705
0.52650,2.135903291
0.52700,1.830708883
0.52750,-0.3056519705
0.52800,-1.526429601
0.52850,-0.9160407859
0.52900,-0.6108463782
0.52950,-2.442012824
0.53000,-5.799151309
0.53050,-8.851095386
0.53100,-8.851095386
0.53150,-4.883568086
0.53200,0.3047368449
0.53250,4.577458553
0.53300,7.934597037
0.53350,10.98654111
0.53400,10.07095789
0.53450,3.051486514
0.53500,-5.799151309
0.53550,-10.37706742
0.53600,-8.851095386
0.53650,-6.409540125
0.53700,-3.662790455
0.53750,2.746292106
0.53800,11.90212434
0.53850,14.03848519
0.53900,5.493041776
0.53950,-4.273179271
0.54000,-5.493956901
0.54050,0.9151256603
0.54100,7.324208222
0.54150,10.98654111
0.54200,14.3436796
0.54250,17.70081808
0.54300,16.17484605
0.54350,8.239791445
0.54400,-1.526429601
0.54450,-9.461484202
0.54500,-14.03940032
0.54550,-16.48095558
0.54600,-16.17576117
0.54650,-12.51342828
0.54700,-5.188762494
0.54750,2.746292106
0.54800,7.019013814
0.54850,4.577458553
0.54900,-0.3056519705
0.54950,-0.0004575628301
0.55000,5.493041776
0.55050,8.239791445
0.55100,3.051486514
0.55150,-4.578373678
0.55200,-7.325123348
0.55250,-4.578373678
0.55300,-0.9160407859
0.55350,1.525514476
0.55400,4.577458553
0.55450,6.408624999
0.55500,4.577458553
0.55550,0.6099312526
0.55600,-1.526429601
0.55650,-2.747207232
0.55700,-5.799151309
0.55750,-7.935512163
0.55800,-4.273179271
0.55850,4.272264145
0.55900,10.98654111
0.55950,10.68134671
0.56000,6.103430591
0.56050,2.135903291
0.56100,0.6099312526
0.56150,-0.0004575628301
0.56200,-0.0004575628301
0.56250,0.9151256603
0.56300,2.135903291
0.56350,2.441097699
0.56400,2.135903291
0.56450,2.746292106
0.56500,2.135903291
0.56550,-1.526429601
0.56600,-7.935512163
0.56650,-12.51342828
0.56700,-13.73420591
0.56750,-12.51342828
0.56800,-11.59784506
0.56850,-7.935512163
0.56900,0.3047368449
0.56950,10.98654111
0.57000,15.86965164
0.57050,12.81770756
0.57100,5.187847368
0.57150,-1.526429601
0.57200,-8.545900978
0.57250,-16.17576117
0.57300,-21.3640661
0.57350,-20.14328847
0.57400,-15.56537236
0.57450,-14.03940032
0.57500,-16.17576117
0.57550,-16.78614999
0.57600,-13.12381709
0.57650,-7.01992894
0.57700,-0.9160407859
0.57750,5.187847368
0.57800,10.68134671
0.57850,13.73329078
0.57900,13.42809638
0.57950,11.90212434
0.58000,9.460569076
0.58050,3.967069737
0.58100,-4.578373678
0.58150,-12.51342828
0.58200,-16.48095558
0.58250,-17.09134439
0.58300,-17.09134439
0.58350,-16.17576117
0.58400,-14.64978913
0.58450,-13.12381709
0.58500,-12.51342828
0.58550,-12.20823387
0.58600,-12.20823387
0.58650,-11.59784506
0.58700,-9.461484202
0.58750,-5.188762494
0.58800,-1.526429601
0.58850,-1.831624009
0.58900,-5.188762494
0.58950,-8.545900978
0.59000,-9.766678609
0.59050,-8.851095386
0.59100,-4.273179271
0.59150,4.577458553
0.59200,14.95406841
0.59250,18.92159571
0.59300,15.25926282
0.59350,10.3761523
0.59400,8.239791445
0.59450,7.019013814
0.59500,3.356680922
0.59550,-0.3056519705
0.59600,-1.221235194
0.59650,-0.0004575628301
0.59700,-0.3056519705
0.59750,-2.136818417
0.59800,-3.05240164
0.59850,-1.831624009
0.59900,-0.0004575628301
0.59950,1.830708883
0.60000,3.051486514
0.60050,1.830708883
0.60100,-0.6108463782
0.60150,-0.6108463782
0.60200,3.66187533
0.60250,9.460569076
0.60300,10.98654111
0.60350,9.460569076
0.60400,7.934597037
0.60450,5.187847368
0.60500,-1.831624009
0.60550,-12.81862269
0.60600,-19.83809406
0.60650,-18.00692762
0.60700,-8.545900978
0.60750,0.9151256603
0.60800,7.324208222
0.60850,9.765763484
0.60900,10.07095789
0.60950,8.544985853
0.61000,4.577458553
0.61050,-0.9160407859
0.61100,-6.104345717
0.61150,-7.630317755
0.61200,-5.188762494
0.61250,-2.442012824
0.61300,-1.526429601
0.61350,-0.9160407859
0.61400,0.3047368449
0.61450,2.135903291
0.61500,2.135903291
0.61550,1.220320068
0.61600,1.830708883
0.61650,2.746292106
0.61700,-0.0004575628301
0.61750,-5.493956901
0.61800,-10.07187302
0.61850,-10.98745624
0.61900,-9.156289794
0.61950,-7.630317755
0.62000,-6.714734532
0.62050,-5.493956901
0.62100,-5.188762494
0.62150,-6.409540125
0.62200,-9.156289794
0.62250,-12.20823387
0.62300,-15.56537236
0.62350,-19.83809406
0.62400,-25.94198222
0.62450,-33.266648
0.62500,-39.06534175
0.62550,-41.2017026
0.62600,-38.76014734
0.62650,-35.70820326
0.62700,-36.62378649
0.62750,-41.81209142
0.62800,-47.00039635
0.62850,-46.69520194
0.62900,-38.45495293
0.62950,-25.63678781
0.63000,-13.12381709
0.63050,-4.273179271
0.63100,1.525514476
0.63150,7.324208222
0.63200,11.90212434
0.63250,13.12290197
0.63300,13.12290197
0.63350,17.09042927
0.63400,25.94106709
0.63450,32.96053847
0.63500,31.12937202
0.63550,23.19431742
0.63600,18.61640131
0.63650,21.36315098
0.63700,24.72028946
0.63750,22.88912301
0.63800,16.17484605
0.63850,10.68134671
0.63900,8.850180261
0.63950,6.713819407
0.64000,-1.526429601
0.64050,-17.3965388
0.64100,-32.65625919
0.64150,-39.06534175
0.64200,-36.62378649
0.64250,-34.18223123
0.64300,-36.92898089
0.64350,-40.59131379
0.64400,-38.45495293
0.64450,-31.13028715
0.64500,-24.72120459
0.64550,-19.83809406
0.64600,-12.20823387
0.64650,-1.526429601
0.64700,6.408624999
0.64750,9.765763484
0.64800,13.12290197
0.64850,20.44756775
0.64900,29.90859439
0.64950,36.62287136
0.65000,41.20078748
0.65050,44.55792596
0.65100,46.38909241
0.65150,46.083898
0.65200,46.083898
0.65250,49.74623089
0.65300,54.32414701
0.65350,52.49298056
0.65400,42.42156511
0.65450,30.2137888
0.65500,21.36315098
0.65550,16.48004045
0.65600,12.51251315
0.65650,10.07095789
0.65700,10.07095789
0.65750,11.59692993
0.65800,12.20731875
0.65850,11.29173552
0.65900,9.765763484
0.65950,7.324208222
0.66000,3.967069737
0.66050,0.3047368449
0.66100,-0.6108463782
0.66150,0.3047368449
0.66200,2.135903291
0.66250,2.441097699
0.66300,1.220320068
0.66350,-0.3056519705
0.66400,-2.136818417
0.66450,-2.747207232
0.66500,-2.136818417
0.66550,-0.6108463782
0.66600,-0.6108463782
0.66650,-2.442012824
0.66700,-4.578373678
0.66750,-5.493956901
0.66800,-5.188762494
0.66850,-5.188762494
0.66900,-5.493956901
0.66950,-6.409540125
0.67000,-7.630317755
0.67050,-8.545900978
0.67100,-8.240706571
0.67150,-7.01992894
0.67200,-5.493956901
0.67250,-4.578373678
0.67300,-4.578373678
0.67350,-5.799151309
0.67400,-7.630317755
0.67450,-9.156289794
0.67500,-9.461484202
0.67550,-10.37706742
0.67600,-12.81862269
0.67650,-15.87056676
0.67700,-16.17576117
0.67750,-11.90303946
0.67800,-5.188762494
0.67850,-0.3056519705
0.67900,0.6099312526
0.67950,-0.6108463782
0.68000,-2.747207232
0.68050,-3.967984863
0.68100,-4.578373678
0.68150,-5.493956901
0.68200,-7.630317755
0.68250,-10.07187302
0.68300,-11.90303946
0.68350,-13.12381709
0.68400,-13.4290115
0.68450,-11.59784506
0.68500,-7.935512163
0.68550,-4.273179271
0.68600,-3.357596048
0.68650,-4.883568086
0.68700,-6.104345717
0.68750,-6.104345717
0.68800,-6.104345717
0.68850,-5.799151309
0.68900,-3.05240164
0.68950,0.3047368449
0.69000,3.356680922
0.69050,5.187847368
0.69100,7.934597037
0.69150,10.07095789
0.69200,8.850180261
0.69250,5.493041776
0.69300,3.967069737
0.69350,5.798236183
0.69400,7.019013814
0.69450,4.577458553
0.69500,0.9151256603
0.69550,-0.9160407859
0.69600,-1.831624009
0.69650,-2.747207232
0.69700,-3.05240164
0.69750,-2.136818417
0.69800,-1.221235194
0.69850,-1.831624009
0.69900,-2.136818417
0.69950,-0.9160407859
0.70000,0.6099312526
0.70050,0.6099312526
0.70100,-1.526429601
0.70150,-3.967984863
0.70200,-4.273179271
0.70250,-1.831624009
0.70300,1.830708883
0.70350,5.187847368
0.70400,6.103430591
0.70450,5.493041776
0.70500,4.577458553
0.70550,4.272264145
0.70600,4.272264145
0.70650,4.577458553
0.70700,5.798236183
0.70750,6.408624999
0.70800,4.88265296
0.70850,3.051486514
0.70900,2.441097699
0.70950,2.135903291
0.71000,-0.3056519705
0.71050,-5.493956901
0.71100,-9.156289794
0.71150,-9.766678609
0.71200,-7.325123348
0.71250,-3.05240164
0.71300,2.441097699
0.71350,6.103430591
0.71400,5.187847368
0.71450,-0.0004575628301
0.71500,-5.493956901
0.71550,-9.461484202
0.71600,-13.12381709
0.71650,-18.00692762
0.71700,-19.83809406
0.71750,-16.17576117
0.71800,-8.851095386
0.71850,-3.05240164
0.71900,-0.9160407859
0.71950,-1.831624009
0.72000,-3.967984863
0.72050,-6.409540125
0.72100,-6.104345717
0.72150,-0.6108463782
0.72200,6.103430591
0.72250,9.765763484
0.72300,7.62940263
0.72350,3.356680922
0.72400,2.441097699
0.72450,5.493041776
0.72500,8.239791445
0.72550,5.798236183
0.72600,-1.221235194
0.72650,-9.461484202
0.72700,-12.81862269
0.72750,-10.68226183
0.72800,-6.714734532
0.72850,-5.799151309
0.72900,-7.01992894
0.72950,-5.188762494
0.73000,1.830708883
0.73050,11.29173552
0.73100,18.3112069
0.73150,20.44756775
0.73200,18.61640131
0.73250,15.25926282
0.73300,12.20731875
0.73350,10.3761523
0.73400,10.3761523
0.73450,11.29173552
0.73500,12.20731875
0.73550,12.81770756
0.73600,11.90212434
0.73650,10.07095789
0.73700,7.019013814
0.73750,5.187847368
0.73800,4.272264145
0.73850,3.967069737
0.73900,3.66187533
0.73950,3.356680922
0.74000,4.272264145
0.74050,6.408624999
0.74100,8.544985853
0.74150,8.850180261
0.74200,6.408624999
0.74250,2.441097699
0.74300,-0.3056519705
0.74350,-0.3056519705
0.74400,1.830708883
0.74450,4.577458553
0.74500,6.713819407
0.74550,6.713819407
0.74600,5.798236183
0.74650,4.577458553
0.74700,3.66187533
0.74750,2.441097699
0.74800,0.6099312526
0.74850,-0.0004575628301
0.74900,2.135903291
0.74950,6.103430591
0.75000,8.239791445
0.75050,7.019013814
0.75100,4.577458553
0.75150,3.66187533
0.75200,3.967069737
0.75250,3.66187533
0.75300,1.525514476
0.75350,-3.357596048
0.75400,-11.29265065
0.75450,-18.31212202
0.75500,-17.3965388
0.75550,-6.409540125
0.75600,6.408624999
0.75650,13.73329078
0.75700,13.42809638
0.75750,9.460569076
0.75800,5.493041776
0.75850,1.220320068
0.75900,-3.662790455
0.75950,-9.156289794
0.76000,-13.4290115
0.76050,-12.81862269
0.76100,-8.240706571
0.76150,-4.578373678
0.76200,-6.409540125
0.76250,-10.37706742
0.76300,-7.935512163
0.76350,-1.221235194
0.76400,-0.6108463782
0.76450,-7.935512163
0.76500,-10.98745624
0.76550,-0.3056519705
0.76600,14.95406841
0.76650,21.66834538
0.76700,19.22679012
0.76750,17.39562368
0.76800,18.92159571
0.76850,17.70081808
0.76900,12.20731875
0.76950,8.239791445
0.77000,7.934597037
0.77050,6.103430591
0.77100,0.9151256603
0.77150,-2.442012824
0.77200,-0.3056519705
0.77250,4.272264145
0.77300,7.019013814
0.77350,7.934597037
0.77400,9.460569076
0.77450,10.98654111
0.77500,10.07095789
0.77550,7.019013814
0.77600,4.272264145
0.77650,3.967069737
0.77700,3.66187533
0.77750,3.051486514
0.77800,2.441097699
0.77850,3.051486514
0.77900,3.967069737
0.77950,3.356680922
0.78000,1.220320068
0.78050,-0.0004575628301
0.78100,1.525514476
0.78150,6.103430591
0.78200,9.765763484
0.78250,9.460569076
0.78300,6.408624999
0.78350,3.051486514
0.78400,1.220320068
0.78450,-0.0004575628301
0.78500,-0.3056519705
0.78550,-1.221235194
0.78600,-1.526429601
0.78650,-1.831624009
0.78700,-2.442012824
0.78750,-3.967984863
0.78800,-5.493956901
0.78850,-6.104345717
0.78900,-5.799151309
0.78950,-4.578373678
0.79000,-3.357596048
0.79050,-1.526429601
0.79100,-0.0004575628301
0.79150,0.9151256603
0.79200,0.6099312526
0.79250,0.9151256603
0.79300,2.746292106
0.79350,5.798236183
0.79400,7.62940263
0.79450,7.324208222
0.79500,5.798236183
0.79550,3.967069737
0.79600,3.051486514
0.79650,2.441097699
0.79700,1.830708883
0.79750,0.9151256603
0.79800,0.9151256603
0.79850,2.135903291
0.79900,3.66187533
0.79950,3.356680922
0.80000,3.051486514
0.80050,3.356680922
0.80100,3.66187533
0.80150,0.3047368449
0.80200,-4.578373678
0.80250,-7.630317755
0.80300,-6.714734532
0.80350,-2.747207232
0.80400,2.441097699
0.80450,7.934597037
0.80500,10.07095789
0.80550,5.798236183
0.80600,-1.526429601
0.80650,-6.409540125
0.80700,-5.799151309
0.80750,-3.662790455
0.80800,-0.9160407859
0.80850,2.441097699
0.80900,6.103430591
0.80950,7.934597037
0.81000,9.460569076
0.81050,15.56445723
0.81100,25.63587268
0.81150,34.48651051
0.81200,40.59039866
0.81250,47.60987004
0.81300,55.54492464
0.81350,60.42803516
0.81400,62.56439602
0.81450,67.75270095
0.81500,77.21372759
0.81550,85.14878219
0.81600,88.81111508
0.81650,92.77864238
0.81700,94.91500323
0.81750,87.28514304
0.81800,68.36308976
0.81850,50.0514253
0.81900,39.67481544
0.81950,31.43456643
0.82000,18.00601249
0.82050,1.220320068
0.82100,-14.95498354
0.82150,-35.70820326
0.82200,-63.17569996
0.82250,-87.89644698
0.82300,-98.88344566
0.82350,-98.57825125
0.82400,-99.79902888
0.82450,-106.2081114
0.82500,-108.9548611
0.82550,-103.1561674
0.82600,-94.30552954
0.82650,-89.11722461
0.82700,-82.70814205
0.82750,-65.31206081
0.82800,-37.2341753
0.82850,-12.81862269
0.82900,-4.578373678
0.82950,-8.851095386
0.83000,-9.156289794
0.83050,3.051486514
0.83100,20.14237335
0.83150,28.07742795
0.83200,23.19431742
0.83250,14.03848519
0.83300,6.408624999
0.83350,0.6099312526
0.83400,-4.578373678
0.83450,-10.68226183
0.83500,-19.22770525
0.83550,-30.21470393
0.83600,-39.98092497
0.83650,-43.64325786
0.83700,-41.81209142
0.83750,-39.67573056
0.83800,-39.06534175
0.83850,-37.53936971
0.83900,-34.79262004
0.83950,-32.96145359
0.84000,-32.35106478
0.84050,-29.90950952
0.84100,-23.80562136
0.84150,-15.26017795
0.84200,-7.01992894
0.84250,1.525514476
0.84300,9.155374668
0.84350,12.81770756
0.84400,11.90212434
0.84450,9.460569076
0.84500,8.850180261
0.84550,9.155374668
0.84600,8.850180261
0.84650,7.019013814
0.84700,6.713819407
0.84750,8.850180261
0.84800,12.51251315
0.84850,15.86965164
0.84900,16.78523486
0.84950,15.25926282
0.85000,14.03848519
0.85050,14.95406841
0.85100,16.78523486
0.85150,15.56445723
0.85200,9.460569076
0.85250,0.6099312526
0.85300,-6.409540125
0.85350,-10.68226183
0.85400,-13.73420591
0.85450,-16.48095558
0.85500,-18.92251084
0.85550,-20.75367729
0.85600,-22.27964933
0.85650,-25.63678781
0.85700,-28.68873189
0.85750,-27.77314866
0.85800,-20.14328847
0.85850,-10.07187302
0.85900,-4.883568086
0.85950,-6.104345717
0.86000,-7.325123348
0.86050,-4.578373678
0.86100,-0.0004575628301
0.86150,1.525514476
0.86200,0.9151256603
0.86250,0.9151256603
0.86300,0.3047368449
0.86350,-1.221235194
0.86400,-1.221235194
0.86450,2.441097699
0.86500,7.019013814
0.86550,8.239791445
0.86600,8.239791445
0.86650,10.98654111
0.86700,15.25926282
0.86750,15.56445723
0.86800,11.59692993
0.86850,6.408624999
0.86900,2.135903291
0.86950,-0.3056519705
0.87000,1.220320068
0.87050,7.934597037
0.87100,14.3436796
0.87150,14.03848519
0.87200,10.68134671
0.87250,10.07095789
0.87300,11.29173552
0.87350,8.544985853
0.87400,3.66187533
0.87450,2.441097699
0.87500,5.187847368
0.87550,7.324208222
0.87600,8.239791445
0.87650,11.90212434
0.87700,18.00601249
0.87750,21.97353979
0.87800,21.66834538
0.87850,18.61640131
0.87900,12.20731875
0.87950,3.051486514
0.88000,-3.967984863
0.88050,-3.05240164
0.88100,3.967069737
0.88150,9.155374668
0.88200,8.239791445
0.88250,4.88265296
0.88300,0.9151256603
0.88350,-3.967984863
0.88400,-8.545900978
0.88450,-9.461484202
0.88500,-8.545900978
0.88550,-9.461484202
0.88600,-9.156289794
0.88650,-1.221235194
0.88700,11.59692993
0.88750,18.92159571
0.88800,17.39562368
0.88850,14.64887401
0.88900,17.39562368
0.88950,20.44756775
0.89000,18.92159571
0.89050,13.73329078
0.89100,9.460569076
0.89150,6.103430591
0.89200,2.135903291
0.89250,-0.0004575628301
0.89300,1.830708883
0.89350,6.103430591
0.89400,8.850180261
0.89450,10.3761523
0.89500,12.20731875
0.89550,14.3436796
0.89600,14.3436796
0.89650,11.90212434
0.89700,9.155374668
0.89750,7.934597037
0.89800,9.155374668
0.89850,13.73329078
0.89900,21.66834538
0.89950,29.90859439
0.90000,34.79170492
0.90050,35.09689932
0.90100,31.43456643
0.90150,25.33067828
0.90200,18.61640131
0.90250,14.3436796
0.90300,14.64887401
0.90350,18.61640131
0.90400,23.49951183
0.90450,27.16184472
0.90500,30.2137888
0.90550,32.65534406
0.90600,32.65534406
0.90650,28.07742795
0.90700,19.53198453
0.90750,12.20731875
0.90800,8.239791445
0.90850,6.103430591
0.90900,3.356680922
0.90950,0.6099312526
0.91000,-0.6108463782
0.91050,-1.221235194
0.91100,-3.662790455
0.91150,-7.935512163
0.91200,-10.37706742
0.91250,-10.07187302
0.91300,-8.240706571
0.91350,-8.545900978
0.91400,-11.29265065
0.91450,-14.64978913
0.91500,-18.61731643
0.91550,-23.80562136
0.91600,-31.13028715
0.91650,-40.89650819
0.91700,-51.88350687
0.91750,-62.87050555
0.91800,-72.33153219
0.91850,-80.8769756
0.91900,-88.20164139
0.91950,-92.16916869
0.92000,-91.25358547
0.92050,-85.45489172
0.92100,-78.13022593
0.92150,-71.41594896
0.92200,-64.701672
0.92250,-55.85103417
0.92300,-44.86403549
0.92350,-34.18223123
0.92400,-25.02639899
0.92450,-16.78614999
0.92500,-6.409540125
0.92550,5.798236183
0.92600,17.09042927
0.92650,24.10990065
0.92700,28.99301117
0.92750,35.09689932
0.92800,40.89559307
0.92850,41.81117629
0.92900,38.45403781
0.92950,36.31767695
0.93000,38.1488434
0.93050,39.67481544
0.93100,37.23326018
0.93150,33.57092728
0.93200,32.35014965
0.93250,31.43456643
0.93300,28.68781676
0.93350,25.63587268
0.93400,24.72028946
0.93450,24.10990065
0.93500,20.75276216
0.93550,17.09042927
0.93600,14.03848519
0.93650,7.019013814
0.93700,-5.799151309
0.93750,-16.78614999
0.93800,-15.56537236
0.93850,-5.799151309
0.93900,-0.0004575628301
0.93950,-0.0004575628301
0.94000,3.66187533
0.94050,15.25926282
0.94100,25.94106709
0.94150,26.55145591
0.94200,18.92159571
0.94250,10.07095789
0.94300,1.525514476
0.94350,-8.240706571
0.94400,-16.78614999
0.94450,-18.92251084
0.94500,-15.26017795
0.94550,-10.68226183
0.94600,-9.156289794
0.94650,-10.98745624
0.94700,-13.73420591
0.94750,-15.56537236
0.94800,-15.56537236
0.94850,-14.64978913
0.94900,-14.34459472
0.94950,-15.87056676
0.95000,-20.75367729
0.95050,-28.07834307
0.95100,-35.09781445
0.95150,-37.53936971
0.95200,-33.57184241
0.95250,-27.77314866
0.95300,-26.85756544
0.95350,-32.35106478
0.95400,-38.14975853
0.95450,-39.06534175
0.95500,-35.09781445
0.95550,-31.43548156
0.95600,-30.51989833
0.95650,-30.21470393
0.95700,-29.2991207
0.95750,-25.63678781
0.95800,-18.61731643
0.95850,-8.545900978
0.95900,-0.0004575628301
0.95950,1.220320068
0.96000,-4.578373678
0.96050,-11.29265065
0.96100,-12.20823387
0.96150,-8.545900978
0.96200,-3.967984863
0.96250,-0.6108463782
0.96300,3.356680922
0.96350,6.103430591
0.96400,4.88265296
0.96450,1.220320068
0.96500,0.3047368449
0.96550,3.356680922
0.96600,5.493041776
0.96650,3.356680922
0.96700,-0.3056519705
0.96750,-4.273179271
0.96800,-7.630317755
0.96850,-9.766678609
0.96900,-8.240706571
0.96950,-2.136818417
0.97000,5.798236183
0.97050,11.29173552
0.97100,12.81770756
0.97150,11.90212434
0.97200,13.42809638
0.97250,22.88912301
0.97300,39.67481544
0.97350,54.93453582
0.97400,61.34361839
0.97450,58.59686872
0.97500,51.57739734
0.97550,43.03195392
0.97600,33.26573288
0.97650,24.10990065
0.97700,16.48004045
0.97750,9.155374668
0.97800,2.135903291
0.97850,1.830708883
0.97900,11.90212434
0.97950,26.85665031
0.98000,36.01248255
0.98050,36.31767695
0.98100,32.35014965
0.98150,26.55145591
0.98200,16.78523486
0.98250,5.493041776
0.98300,-0.6108463782
0.98350,-0.3056519705
0.98400,0.6099312526
0.98450,0.3047368449
0.98500,1.220320068
0.98550,3.66187533
0.98600,3.051486514
0.98650,-3.05240164
0.98700,-10.07187302
0.98750,-14.64978913
0.98800,-19.53289966
0.98850,-25.94198222
0.98900,-26.55237103
0.98950,-17.70173321
0.99000,-10.07187302
0.99050,-17.09134439
0.99100,-34.79262004
0.99150,-40.59131379
0.99200,-21.66926051
0.99250,13.73329078
0.99300,47.91506445
0.99350,72.33061706
0.99400,88.81111508
0.99450,97.96694731
0.99500,99.18772494
0.99550,95.83058646
0.99600,94.30461442
0.99650,92.77864238
0.99700,82.09683811
0.99750,55.54492464
0.99800,17.09042927
0.99850,-25.3315934
0.99900,-68.05881048
0.99950,-110.1756387
1.00000,-146.1885789
1.00050,-169.3833538
1.00100,-177.3184084
1.00150,-174.8768532
1.00200,-170.2989371
1.00250,-170.6041315
1.00300,-173.96127
1.00350,-172.4352979
1.00400,-156.2599943
1.00450,-124.5197759
1.00500,-83.01333646
1.00550,-38.76014734
1.00600,1.830708883
1.00650,31.43456643
1.00700,43.33714833
1.00750,45.16831478
1.00800,50.66181412
1.00850,62.86959042
1.00900,68.36308976
1.00950,57.07089668
1.01000,37.53845458
1.01050,24.41509505
1.01100,18.00601249
1.01150,8.544985853
1.01200,-6.714734532
1.01250,-21.3640661
1.01300,-31.43548156
1.01350,-41.2017026
1.01400,-51.57831246
1.01450,-56.46142299
1.01500,-50.96792365
1.01550,-38.45495293
1.01600,-24.41601018
1.01650,-11.29265065
1.01700,-0.9160407859
1.01750,4.88265296
1.01800,7.324208222
1.01850,9.460569076
1.01900,12.51251315
1.01950,14.95406841
1.02000,17.09042927
1.02050,19.83717894
1.02100,21.36315098
1.02150,19.22679012
1.02200,16.78523486
1.02250,18.61640131
1.02300,22.88912301
1.02350,23.49951183
1.02400,19.22679012
1.02450,16.17484605
1.02500,17.09042927
1.02550,18.61640131
1.02600,17.39562368
1.02650,15.56445723
1.02700,16.17484605
1.02750,17.70081808
1.02800,18.00601249
1.02850,18.3112069
1.02900,20.75276216
1.02950,24.41509505
1.03000,25.63587268
1.03050,23.19431742
1.03100,18.92159571
1.03150,15.25926282
1.03200,13.73329078
1.03250,14.64887401
1.03300,17.39562368
1.03350,20.14237335
1.03400,21.66834538
1.03450,21.66834538
1.03500,21.05795657
1.03550,20.14237335
1.03600,19.83717894
1.03650,19.53198453
1.03700,19.53198453
1.03750,19.53198453
1.03800,19.53198453
1.03850,19.53198453
1.03900,18.92159571
1.03950,17.70081808
1.04000,16.78523486
1.04050,16.78523486
1.04100,17.09042927
1.04150,17.09042927
1.04200,16.78523486
1.04250,16.78523486
1.04300,16.78523486
1.04350,16.48004045
1.04400,16.17484605
1.04450,15.56445723
1.04500,15.25926282
1.04550,14.95406841
1.04600,15.86965164
1.04650,17.09042927
1.04700,17.70081808
1.04750,18.00601249
1.04800,19.22679012
1.04850,20.14237335
1.04900,18.61640131
1.04950,15.25926282
1.05000,12.20731875
1.05050,10.68134671
1.05100,8.544985853
1.05150,6.103430591
1.05200,4.88265296
1.05250,5.798236183
1.05300,7.324208222
1.05350,7.324208222
1.05400,6.408624999
1.05450,6.713819407
1.05500,8.239791445
1.05550,9.765763484
1.05600,10.3761523
1.05650,9.460569076
1.05700,7.324208222
1.05750,5.187847368
1.05800,4.88265296
1.05850,5.187847368
1.05900,5.187847368
1.05950,5.187847368
1.06000,7.019013814
1.06050,9.765763484
1.06100,10.3761523
1.06150,9.155374668
1.06200,10.68134671
1.06250,15.56445723
1.06300,18.3112069
1.06350,14.03848519
1.06400,7.019013814
1.06450,3.66187533
1.06500,4.577458553
1.06550,6.408624999
1.06600,9.765763484
1.06650,17.09042927
1.06700,26.2462615
1.06750,28.99301117
1.06800,22.58392861
1.06850,12.81770756
1.06900,6.408624999
1.06950,2.441097699
1.07000,-2.136818417
1.07050,-5.799151309
1.07100,-4.273179271
1.07150,1.525514476
1.07200,6.103430591
1.07250,5.798236183
1.07300,4.88265296
1.07350,7.324208222
1.07400,11.59692993
1.07450,12.81770756
1.07500,9.460569076
1.07550,6.408624999
1.07600,7.324208222
1.07650,11.29173552
1.07700,13.73329078
1.07750,12.51251315
1.07800,10.98654111
1.07850,12.51251315
1.07900,14.64887401
1.07950,12.20731875
1.08000,4.88265296
1.08050,-0.6108463782
1.08100,-0.9160407859
1.08150,-0.0004575628301
1.08200,-3.967984863
1.08250,-10.37706742
1.08300,-11.59784506
1.08350,-6.714734532
1.08400,-3.05240164
1.08450,-6.104345717
1.08500,-10.68226183
1.08550,-9.766678609
1.08600,-4.273179271
1.08650,-1.221235194
1.08700,-3.357596048
1.08750,-5.799151309
1.08800,-5.799151309
1.08850,-4.883568086
1.08900,-6.714734532
1.08950,-9.461484202
1.09000,-10.37706742
1.09050,-8.851095386
1.09100,-6.714734532
1.09150,-5.493956901
1.09200,-5.188762494
1.09250,-5.188762494
1.09300,-5.493956901
1.09350,-5.799151309
1.09400,-4.883568086
1.09450,-2.442012824
1.09500,-0.3056519705
1.09550,1.220320068
1.09600,1.525514476
1.09650,0.6099312526
1.09700,-1.831624009
1.09750,-5.799151309
1.09800,-9.156289794
1.09850,-10.98745624
1.09900,-11.29265065
1.09950,-10.37706742
1.10000,-8.851095386
1.10050,-7.630317755
1.10100,-8.240706571
1.10150,-10.37706742
1.10200,-12.20823387
1.10250,-12.20823387
1.10300,-10.07187302
1.10350,-7.630317755
1.10400,-6.104345717
1.10450,-4.883568086
1.10500,-3.05240164
1.10550,-0.0004575628301
1.10600,3.051486514
1.10650,4.272264145
1.10700,4.577458553
1.10750,3.66187533
1.10800,1.220320068
1.10850,-2.747207232
1.10900,-6.409540125
1.10950,-8.545900978
1.11000,-9.766678609
1.11050,-13.12381709
1.11100,-17.3965388
1.11150,-18.92251084
1.11200,-16.48095558
1.11250,-13.12381709
1.11300,-11.90303946
1.11350,-11.90303946
1.11400,-10.07187302
1.11450,-8.545900978
1.11500,-9.766678609
1.11550,-13.12381709
1.11600,-14.64978913
1.11650,-14.03940032
1.11700,-13.4290115
1.11750,-14.34459472
1.11800,-13.73420591
1.11850,-11.29265065
1.11900,-8.851095386
1.11950,-8.545900978
1.12000,-9.156289794
1.12050,-9.461484202
1.12100,-8.851095386
1.12150,-7.935512163
1.12200,-5.493956901
1.12250,-0.9160407859
1.12300,4.272264145
1.12350,9.460569076
1.12400,14.3436796
1.12450,19.22679012
1.12500,21.05795657
1.12550,18.00601249
1.12600,12.81770756
1.12650,9.155374668
1.12700,6.713819407
1.12750,3.66187533
1.12800,-0.3056519705
1.12850,-2.442012824
1.12900,-0.0004575628301
1.12950,6.103430591
1.13000,13.73329078
1.13050,21.36315098
1.13100,27.16184472
1.13150,28.99301117
1.13200,24.72028946
1.13250,16.48004045
1.13300,9.460569076
1.13350,6.713819407
1.13400,6.713819407
1.13450,7.019013814
1.13500,7.934597037
1.13550,10.68134671
1.13600,14.95406841
1.13650,18.3112069
1.13700,19.83717894
1.13750,20.75276216
1.13800,21.97353979
1.13850,21.05795657
1.13900,17.09042927
1.13950,13.42809638
1.14000,12.81770756
1.14050,14.3436796
1.14100,13.12290197
1.14150,5.798236183
1.14200,-6.104345717
1.14250,-19.22770525
1.14300,-30.21470393
1.14350,-38.45495293
1.14400,-45.47442431
1.14450,-53.1042845
1.14500,-59.81856147
1.14550,-62.26011673
1.14600,-60.7341447
1.14650,-58.90297825
1.14700,-59.20817266
1.14750,-60.42895029
1.14800,-59.81856147
1.14850,-55.24064536
1.14900,-45.1692299
1.14950,-31.43548156
1.15000,-18.61731643
1.15050,-10.98745624
1.15100,-9.156289794
1.15150,-9.156289794
1.15200,-8.545900978
1.15250,-6.409540125
1.15300,-3.05240164
1.15350,0.9151256603
1.15400,3.051486514
1.15450,1.525514476
1.15500,1.830708883
1.15550,7.934597037
1.15600,14.64887401
1.15650,12.51251315
1.15700,4.272264145
1.15750,2.746292106
1.15800,11.59692993
1.15850,21.97353979
1.15900,26.2462615
1.15950,28.99301117
1.16000,33.87612169
1.16050,36.31767695
1.16100,30.51898321
1.16150,21.05795657
1.16200,16.48004045
1.16250,17.09042927
1.16300,18.61640131
1.16350,18.92159571
1.16400,17.39562368
1.16450,13.73329078
1.16500,10.3761523
1.16550,12.81770756
1.16600,20.75276216
1.16650,24.72028946
1.16700,20.44756775
1.16750,13.73329078
1.16800,10.07095789
1.16850,4.88265296
1.16900,-6.714734532
1.16950,-21.05887169
1.17000,-28.07834307
1.17050,-26.85756544
1.17100,-23.80562136
1.17150,-19.53289966
1.17200,-10.37706742
1.17250,3.051486514
1.17300,13.12290197
1.17350,13.42809638
1.17400,7.324208222
1.17450,1.220320068
1.17500,-2.442012824
1.17550,-5.799151309
1.17600,-9.461484202
1.17650,-11.90303946
1.17700,-12.81862269
1.17750,-12.81862269
1.17800,-12.20823387
1.17850,-9.461484202
1.17900,-4.883568086
1.17950,-2.747207232
1.18000,-6.409540125
1.18050,-14.03940032
1.18100,-19.83809406
1.18150,-19.83809406
1.18200,-15.56537236
1.18250,-11.59784506
1.18300,-9.156289794
1.18350,-8.240706571
1.18400,-8.240706571
1.18450,-9.156289794
1.18500,-9.766678609
1.18550,-8.851095386
1.18600,-6.714734532
1.18650,-4.578373678
1.18700,-2.747207232
1.18750,-0.0004575628301
1.18800,4.272264145
1.18850,7.019013814
1.18900,5.187847368
1.18950,1.220320068
1.19000,0.3047368449
1.19050,5.493041776
1.19100,13.42809638
1.19150,19.83717894
1.19200,25.94106709
1.19250,33.57092728
1.19300,40.28520425
1.19350,41.81117629
1.19400,40.28520425
1.19450,41.50598188
1.19500,45.47350918
1.19550,45.47350918
1.19600,39.36962103
1.19650,33.87612169
1.19700,36.62287136
1.19750,45.16831478
1.19800,51.88259175
1.19850,53.10336938
1.19900,48.83064767
1.19950,40.28520425
1.20000,28.99301117
1.20050,18.00601249
1.20100,11.59692993
1.20150,10.07095789
1.20200,10.3761523
1.20250,9.155374668
1.20300,5.493041776
1.20350,1.830708883
1.20400,0.9151256603
1.20450,2.135903291
1.20500,1.525514476
1.20550,-2.442012824
1.20600,-8.240706571
1.20650,-14.64978913
1.20700,-23.50042696
1.20750,-35.09781445
1.20800,-45.77961872
1.20850,-53.40947891
1.20900,-59.81856147
1.20950,-65.31206081
1.21000,-65.61725522
1.21050,-61.0393391
1.21100,-56.15622858
1.21150,-50.05234043
1.21200,-31.43548156
1.21250,3.051486514
1.21300,39.98000985
1.21350,60.12284075
1.21400,63.17478483
1.21450,62.86959042
1.21500,65.9215345
1.21550,66.83711772
1.21600,58.59686872
1.21650,43.33714833
1.21700,24.72028946
1.21750,4.272264145
1.21800,-15.87056676
1.21850,-34.18223123
1.21900,-52.7990901
1.21950,-75.07828186
1.22000,-99.18864007
1.22050,-117.5003045
1.22100,-127.2665256
1.22150,-133.0652193
1.22200,-137.337941
1.22250,-137.337941
1.22300,-127.57172
1.22350,-109.2600555
1.22400,-89.72761343
1.22450,-75.99386508
1.22500,-69.27958811
1.22550,-64.701672
1.22600,-58.29258943
1.22650,-49.1367572
1.22700,-38.45495293
1.22750,-27.77314866
1.22800,-18.61731643
1.22850,-11.90303946
1.22900,-7.01992894
1.22950,-0.9160407859
1.23000,6.713819407
1.23050,11.29173552
1.23100,9.765763484
1.23150,4.88265296
1.23200,0.6099312526
1.23250,-3.662790455
1.23300,-10.98745624
1.23350,-18.61731643
1.23400,-23.80562136
1.23450,-27.46795426
1.23500,-31.74067596
1.23550,-31.74067596
1.23600,-23.19523255
1.23650,-10.07187302
1.23700,-2.747207232
1.23750,-3.05240164
1.23800,-5.493956901
1.23850,-7.325123348
1.23900,-11.90303946
1.23950,-18.92251084
1.24000,-20.44848288
1.24050,-11.59784506
1.24100,3.051486514
1.24150,18.3112069
1.24200,32.04495525
1.24250,40.59039866
1.24300,40.59039866
1.24350,34.1813161
1.24400,31.12937202
1.24450,37.53845458
1.24500,49.74623089
1.24550,62.86959042
1.24600,78.73969962
1.24650,97.6617529
1.24700,113.8370565
1.24750,119.6357503
1.24800,117.8045838
1.24850,116.5838062
1.24900,121.7721111
1.24950,132.148721
1.25000,145.2720805
1.25050,157.4798568
1.25100,165.7201058
1.25150,171.823994
1.25200,178.5382709
1.25250,184.3369647
1.25300,182.5057982
1.25350,173.6551604
1.25400,168.1616611
1.25450,172.7395772
1.25500,174.8759381
1.25550,155.9538848
1.25600,114.7526397
1.25650,70.49945062
1.25700,39.06442662
1.25750,18.3112069
1.25800,-3.05240164
1.25850,-32.65625919
1.25900,-66.83803285
1.25950,-100.7146121
1.26000,-129.097692
1.26050,-149.2405229
1.26100,-163.5846601
1.26150,-176.4028252
1.26200,-187.3898239
1.26250,-190.7469624
1.26300,-185.5586574
1.26350,-181.5911301
1.26400,-190.1365736
1.26450,-207.2274604
1.26500,-218.8248479
1.26550,-217.6040703
1.26600,-209.0586268
1.26650,-197.4612393
1.26700,-180.0651581
1.26750,-156.5651887
1.26800,-134.5911914
1.26850,-118.1106933
1.26900,-98.88344566
1.26950,-69.88997693
1.27000,-36.62378649
1.27050,-10.98745624
1.27100,5.798236183
1.27150,21.97353979
1.27200,34.1813161
1.27250,31.43456643
1.27300,14.95406841
1.27350,1.525514476
1.27400,4.88265296
1.27450,17.70081808
1.27500,23.49951183
1.27550,17.39562368
1.27600,9.765763484
1.27650,6.408624999
1.27700,0.9151256603
1.27750,-15.26017795
1.27800,-38.76014734
1.27850,-53.40947891
1.27900,-49.44195161
1.27950,-34.79262004
1.28000,-24.41601018
1.28050,-24.11081577
1.28100,-26.24717663
1.28150,-24.41601018
1.28200,-20.44848288
1.28250,-17.09134439
1.28300,-11.29265065
1.28350,4.272264145
1.28400,32.04495525
1.28450,66.53192332
1.28500,97.05136409
1.28550,113.2266677
1.28600,109.5643348
1.28650,89.7266983
1.28700,62.56439602
1.28750,34.48651051
1.28800,7.019013814
1.28850,-18.61731643
1.28900,-40.89650819
1.28950,-61.0393391
1.29000,-78.13022593
1.29050,-84.5393085
1.29100,-73.85750423
1.29150,-53.71467332
1.29200,-41.81209142
1.29250,-43.64325786
1.29300,-47.30559076
1.29350,-40.28611938
1.29400,-25.63678781
1.29450,-12.51342828
1.29500,-4.273179271
1.29550,-1.221235194
1.29600,-7.630317755
1.29650,-24.72120459
1.29700,-42.72767464
1.29750,-49.74714602
1.29800,-46.08481313
1.29850,-40.89650819
1.29900,-37.53936971
1.29950,-29.90950952
1.30000,-14.34459472
1.30050,4.272264145
1.30100,22.2787342
1.30150,42.1163707
1.30200,68.66828417
1.30250,99.18772494
1.30300,128.7915825
1.30350,159.6162177
1.30400,199.9018795
1.30450,243.8498742
1.30500,266.7394548
1.30550,251.17454
1.30600,211.499267
1.30650,179.7590486
1.30700,164.4993282
1.30750,146.1876637
1.30800,111.7006957
1.30850,73.24620029
1.30900,45.47350918
1.30950,23.80470624
1.31000,-0.0004575628301
1.31050,-17.3965388
1.31100,-15.87056676
1.31150,-5.493956901
1.31200,-7.935512163
1.31250,-27.46795426
1.31300,-49.74714602
1.31350,-65.61725522
1.31400,-76.29905949
1.31450,-78.13022593
1.31500,-64.701672
1.31550,-43.03286905
1.31600,-29.60431511
1.31650,-27.16275985
1.31700,-22.27964933
1.31750,-9.156289794
1.31800,3.356680922
1.31850,9.765763484
1.31900,18.3112069
1.31950,31.43456643
1.32000,36.62287136
1.32050,24.72028946
1.32100,8.239791445
1.32150,7.934597037
1.32200,24.72028946
1.32250,40.59039866
1.32300,43.33714833
1.32350,35.70728814
1.32400,26.2462615
1.32450,18.61640131
1.32500,13.42809638
1.32550,12.51251315
1.32600,15.56445723
1.32650,21.05795657
1.32700,31.43456643
1.32750,50.96700852
1.32800,76.29814436
1.32850,92.77864238
1.32900,91.86305916
1.32950,83.62281015
1.33000,83.62281015
1.33050,91.86305916
1.33100,95.22019764
1.33150,88.81111508
1.33200,82.09683811
1.33250,81.7916437
1.33300,80.26567166
1.33350,71.10983943
1.33400,60.12284075
1.33450,53.71375819
1.33500,46.69428682
1.33550,34.79170492
1.33600,27.16184472
1.33650,33.57092728
1.33700,45.16831478
1.33750,43.03195392
1.33800,25.02548387
1.33850,5.187847368
1.33900,-9.156289794
1.33950,-24.72120459
1.34000,-42.72767464
1.34050,-52.7990901
1.34100,-49.44195161
1.34150,-40.59131379
1.34200,-31.43548156
1.34250,-16.17576117
1.34300,8.544985853
1.34350,31.73976084
1.34400,40.89559307
1.34450,43.03195392
1.34500,53.40856378
1.34550,71.10983943
1.34600,82.70722692
1.34650,83.31761574
1.34700,85.759171
1.34750,97.05136409
1.34800,107.7331684
1.34850,107.1227795
1.34900,99.49291935
1.34950,93.99942001
1.35000,85.14878219
1.35050,61.03842398
1.35100,25.02548387
1.35150,-5.188762494
1.35200,-24.72120459
1.35250,-46.69520194
1.35300,-82.09775323
1.35350,-123.9093871
1.35400,-159.3119384
1.35450,-184.9482686
1.35500,-202.0391555
1.35550,-205.3962939
1.35600,-191.6625456
1.35650,-171.5197147
1.35700,-159.3119384
1.35750,-155.0392167
1.35800,-147.7145509
1.35850,-131.5392473
1.35900,-112.617194
1.35950,-98.88344566
1.36000,-91.86397428
1.36050,-89.42241902
1.36100,-89.11722461
1.36150,-87.28605817
1.36200,-80.8769756
1.36250,-71.41594896
1.36300,-64.39647759
1.36350,-63.17569996
1.36400,-63.78608877
1.36450,-61.34453351
1.36500,-55.54583976
1.36550,-50.66272924
1.36600,-49.44195161
1.36650,-51.57831246
1.36700,-54.63025654
1.36750,-57.98739503
1.36800,-60.12375588
1.36850,-59.81856147
1.36900,-55.85103417
1.36950,-50.35753483
1.37000,-45.47442431
1.37050,-39.37053616
1.37100,-26.85756544
1.37150,-9.156289794
1.37200,5.187847368
1.37250,11.59692993
1.37300,14.3436796
1.37350,22.2787342
1.37400,37.84364899
1.37450,56.15531345
1.37500,73.24620029
1.37550,90.33708712
1.37600,108.0383628
1.37650,120.8565279
1.37700,119.6357503
1.37750,103.7656411
1.37800,83.62281015
1.37850,71.41503384
1.37900,67.75270095
1.37950,62.86959042
1.38000,51.27220293
1.38050,41.50598188
1.38100,43.33714833
1.38150,54.0189526
1.38200,62.86959042
1.38250,66.22672891
1.38300,68.05789535
1.38350,70.19425621
1.38400,69.8890618
1.38450,68.05789535
1.38500,69.8890618
1.38550,73.55139469
1.38600,68.66828417
1.38650,51.27220293
1.38700,29.29820558
1.38750,8.239791445
1.38800,-14.03940032
1.38850,-38.45495293
1.38900,-57.37700621
1.38950,-68.9743937
1.39000,-84.23411409
1.39050,-109.2600555
1.39100,-131.5392473
1.39150,-136.4223578
1.39200,-125.7405535
1.39250,-113.2275828
1.39300,-104.376945
1.39350,-93.38994632
1.39400,-76.29905949
1.39450,-53.71467332
1.39500,-25.63678781
1.39550,4.577458553
1.39600,28.68781676
1.39650,43.33714833
1.39700,58.90206312
1.39750,85.759171
1.39800,113.5318621
1.39850,122.9928887
1.39900,113.2266677
1.39950,103.1552522
1.40000,104.0708355
1.40050,105.9020019
1.40100,100.4085026
1.40150,95.83058646
1.40200,101.3240858
1.40250,111.3955012
1.40300,114.4474453
1.40350,110.7851124
1.40400,106.5123907
1.40450,99.79811376
1.40500,84.53839337
1.40550,62.56439602
1.40600,39.98000985
1.40650,14.3436796
1.40700,-23.50042696
1.40750,-72.6367266
1.40800,-118.4158878
1.40850,-151.9872726
1.40900,-178.5391861
1.40950,-206.922266
1.41000,-236.8313179
1.41050,-260.3312873
1.41100,-271.318286
1.41150,-271.0130916
1.41200,-264.604009
1.41250,-252.3962327
1.41300,-231.3378186
1.41350,-201.7339611
1.41400,-168.772965
1.41450,-139.7794963
1.41500,-113.8379716
1.41550,-84.8445029
1.41600,-50.66272924
1.41650,-17.09134439
1.41700,11.90212434
1.41750,39.06442662
1.41800,66.53192332
1.41850,90.03189271
1.41900,102.239669
1.41950,103.7656411
1.42000,100.4085026
1.42050,95.52539205
1.42100,87.28514304
1.42150,72.94100588
1.42200,50.96700852
1.42250,20.44756775
1.42300,-12.81862269
1.42350,-40.89650819
1.42400,-59.51336706
1.42450,-73.55230982
1.42500,-85.14969731
1.42550,-87.59125257
1.42600,-75.68867067
1.42650,-60.42895029
1.42700,-54.93545095
1.42750,-55.85103417
1.42800,-47.00039635
1.42850,-24.72120459
1.42900,-0.0004575628301
1.42950,20.14237335
1.43000,42.72675952
1.43050,71.72022825
1.43100,99.49291935
1.43150,117.194195
1.43200,126.3500272
1.43250,131.2331377
1.43300,128.4863881
1.43350,115.668223
1.43400,95.83058646
1.43450,73.24620029
1.43500,47.30467563
1.43550,19.22679012
1.43600,-0.0004575628301
1.43650,-3.05240164
1.43700,3.66187533
1.43750,5.798236183
1.43800,-2.747207232
1.43850,-14.95498354
1.43900,-20.75367729
1.43950,-20.44848288
1.44000,-22.58484373
1.44050,-35.09781445
1.44100,-57.98739503
1.44150,-80.5717812
1.44200,-90.03280783
1.44250,-86.06528053
1.44300,-81.48736442
1.44350,-85.76008613
1.44400,-95.83150158
1.44450,-102.850973
1.44500,-105.5977226
1.44550,-108.3444723
1.44600,-110.7860276
1.44650,-107.4288891
1.44700,-93.08475191
1.44750,-70.80556015
1.44800,-47.61078516
1.44850,-30.21470393
1.44900,-20.14328847
1.44950,-11.90303946
1.45000,-0.3056519705
1.45050,12.51251315
1.45100,21.05795657
1.45150,25.02548387
1.45200,33.26573288
1.45250,50.96700852
1.45300,70.19425621
1.45350,79.35008844
1.45400,76.29814436
1.45450,69.58386739
1.45500,62.86959042
1.45550,54.93453582
1.45600,45.16831478
1.45650,38.75923222
1.45700,39.06442662
1.45750,43.33714833
1.45800,46.99948122
1.45850,48.83064767
1.45900,48.83064767
1.45950,44.86312037
1.46000,36.92806577
1.46050,28.07742795
1.46100,22.58392861
1.46150,21.97353979
1.46200,29.29820558
1.46250,44.25273155
1.46300,63.17478483
1.46350,80.87606048
1.46400,96.44097527
1.46450,111.3955012
1.46500,124.8240552
1.46550,132.148721
1.46600,133.3694986
1.46650,133.0643042
1.46700,130.6227489
1.46750,119.0253614
1.46800,95.52539205
1.46850,67.44750654
1.46900,44.86312037
1.46950,28.99301117
1.47000,17.39562368
1.47050,9.765763484
1.47100,7.324208222
1.47150,6.713819407
1.47200,1.830708883
1.47250,-7.325123348
1.47300,-18.92251084
1.47350,-29.60431511
1.47400,-38.45495293
1.47450,-43.64325786
1.47500,-44.86403549
1.47550,-45.77961872
1.47600,-49.74714602
1.47650,-54.63025654
1.47700,-55.85103417
1.47750,-52.7990901
1.47800,-50.35753483
1.47850,-53.71467332
1.47900,-63.17569996
1.47950,-73.55230982
1.48000,-77.82503153
1.48050,-72.941921
1.48100,-62.26011673
1.48150,-53.40947891
1.48200,-46.08481313
1.48250,-35.09781445
1.48300,-17.70173321
1.48350,-1.831624009
1.48400,6.713819407
1.48450,12.51251315
1.48500,21.05795657
1.48550,30.82417762
1.48600,37.84364899
1.48650,46.083898
1.48700,59.81764635
1.48750,70.49945062
1.48800,65.31114569
1.48850,49.44103648
1.48900,41.20078748
1.48950,46.99948122
1.49000,54.32414701
1.49050,54.93453582
1.49100,56.46050786
1.49150,63.47997924
1.49200,65.31114569
1.49250,56.76570227
1.49300,52.49298056
1.49350,63.78517365
1.49400,75.68775555
1.49450,66.53192332
1.49500,40.89559307
1.49550,19.53198453
1.49600,4.577458553
1.49650,-17.09134439
1.49700,-43.94845227
1.49750,-58.90297825
1.49800,-59.20817266
1.49850,-64.701672
1.49900,-83.92891968
1.49950,-106.2081114
1.50000,-124.2145815
1.50050,-144.9678012
1.50100,-167.246993
1.50150,-169.0781594
1.50200,-139.7794963
1.50250,-98.27305684
1.50300,-72.6367266
1.50350,-65.92244963
1.50400,-61.95492233
1.50450,-50.66272924
1.50500,-35.09781445
1.50550,-20.14328847
1.50600,-7.630317755
1.50650,-0.3056519705
1.50700,2.441097699
1.50750,6.713819407
1.50800,14.95406841
1.50850,19.83717894
1.50900,15.56445723
1.50950,5.493041776
1.51000,-2.442012824
1.51050,-6.104345717
1.51100,-8.240706571
1.51150,-10.68226183
1.51200,-14.64978913
1.51250,-23.80562136
1.51300,-38.14975853
1.51350,-51.57831246
1.51400,-57.0718118
1.51450,-52.7990901
1.51500,-43.64325786
1.51550,-36.31859208
1.51600,-35.40300886
1.51650,-38.14975853
1.51700,-36.62378649
1.51750,-24.72120459
1.51800,-6.409540125
1.51850,8.850180261
1.51900,17.70081808
1.51950,24.10990065
1.52000,30.51898321
1.52050,36.92806577
1.52100,41.50598188
1.52150,44.86312037
1.52200,48.52545326
1.52250,54.32414701
1.52300,64.39556246
1.52350,77.8241164
1.52400,89.42150389
1.52450,96.74616968
1.52500,102.8500578
1.52550,108.0383628
1.52600,101.9344746
1.52650,78.73969962
1.52700,52.18778615
1.52750,42.42156511
1.52800,50.0514253
1.52850,50.35661971
1.52900,25.33067828
1.52950,-15.87056676
1.53000,-50.96792365
1.53050,-70.50036574
1.53100,-82.40294764
1.53150,-92.7795575
1.53200,-97.35747362
1.53250,-90.64319665
1.53300,-77.21464271
1.53350,-64.701672
1.53400,-50.96792365
1.53450,-27.16275985
1.53500,4.272264145
1.53550,29.60339998
1.53600,37.23326018
1.53650,37.23326018
1.53700,47.91506445
1.53750,74.46697792
1.53800,105.2916131
1.53850,129.4019713
1.53900,145.2720805
1.53950,151.0707742
1.54000,140.6941644
1.54050,116.2786118
1.54100,91.55786475
1.54150,75.07736673
1.54200,61.64881279
1.54250,43.33714833
1.54300,25.94106709
1.54350,17.70081808
1.54400,13.42809638
1.54450,2.746292106
1.54500,-9.461484202
1.54550,-9.461484202
1.54600,7.019013814
1.54650,28.38262235
1.54700,45.47350918
1.54750,61.34361839
1.54800,81.48644929
1.54850,99.79811376
1.54900,108.3435572
1.54950,110.1747236
1.55000,113.8370565
1.55050,119.3305558
1.55100,118.4149726
1.55150,105.9020019
1.55200,86.67475422
1.55250,69.58386739
1.55300,56.46050786
1.55350,41.81117629
1.55400,18.61640131
1.55450,-11.90303946
1.55500,-43.03286905
1.55550,-68.36400489
1.55600,-87.28605817
1.55650,-102.2405841
1.55700,-112.9223884
1.55750,-118.1106933
1.55800,-119.331471
1.55850,-118.4158878
1.55900,-117.1951101
1.55950,-115.9743325
1.56000,-114.143166
1.56050,-112.3119996
1.56100,-113.2275828
1.56150,-120.5522486
1.56200,-134.5911914
1.56250,-150.4613006
1.56300,-159.3119384
1.56350,-157.7859663
1.56400,-149.2405229
1.56450,-137.6431354
1.56500,-122.3834151
1.56550,-101.6301953
1.56600,-76.9094483
1.56650,-53.1042845
1.56700,-33.87703682
1.56750,-18.92251084
1.56800,-6.409540125
1.56850,4.272264145
1.56900,12.51251315
1.56950,17.70081808
1.57000,21.36315098
1.57050,24.72028946
1.57100,25.63587268
1.57150,20.14237335
1.57200,10.07095789
1.57250,2.746292106
1.57300,4.272264145
1.57350,13.42809638
1.57400,24.10990065
1.57450,33.26573288
1.57500,38.45403781
1.57550,36.62287136
1.57600,28.68781676
1.57650,22.58392861
1.57700,25.33067828
1.57750,35.40209373
1.57800,43.33714833
1.57850,44.86312037
1.57900,39.98000985
1.57950,30.2137888
1.58000,17.70081808
1.58050,7.019013814
1.58100,0.6099312526
1.58150,-5.188762494
1.58200,-15.56537236
1.58250,-27.46795426
1.58300,-34.18223123
1.58350,-34.79262004
1.58400,-33.266648
1.58450,-32.96145359
1.58500,-33.57184241
1.58550,-32.65625919
1.58600,-28.07834307
1.58650,-18.61731643
1.58700,-7.325123348
1.58750,-0.9160407859
1.58800,-2.442012824
1.58850,-5.493956901
1.58900,-4.883568086
1.58950,-3.967984863
1.59000,-7.935512163
1.59050,-12.51342828
1.59100,-10.07187302
1.59150,-2.442012824
1.59200,1.830708883
1.59250,4.577458553
1.59300,12.51251315
1.59350,25.63587268
1.59400,34.79170492
1.59450,36.92806577
1.59500,40.89559307
1.59550,54.32414701
1.59600,73.8565891
1.59650,90.94747593
1.59700,101.3240858
1.59750,104.0708355
1.59800,99.18772494
1.59850,88.81111508
1.59900,79.65528285
1.59950,74.46697792
1.60000,71.10983943
1.60050,66.83711772
1.60100,63.47997924
1.60150,60.42803516
1.60200,53.10336938
1.60250,40.28520425
1.60300,26.2462615
1.60350,13.42809638
1.60400,-3.357596048
1.60450,-25.94198222
1.60500,-46.08481313
1.60550,-57.0718118
1.60600,-65.92244963
1.60650,-81.48736442
1.60700,-99.49383447
1.60750,-107.1236947
1.60800,-102.2405841
1.60850,-94.91591836
1.60900,-92.16916869
1.60950,-89.42241902
1.61000,-82.70814205
1.61050,-73.24711541
1.61100,-62.87050555
1.61150,-50.66272924
1.61200,-36.92898089
1.61250,-27.46795426
1.61300,-26.24717663
1.61350,-31.74067596
1.61400,-39.06534175
1.61450,-45.1692299
1.61500,-46.39000753
1.61550,-39.37053616
1.61600,-26.85756544
1.61650,-16.17576117
1.61700,-10.07187302
1.61750,-3.662790455
1.61800,9.460569076
1.61850,29.29820558
1.61900,50.96700852
1.61950,72.33061706
1.62000,91.55786475
1.62050,103.4604466
1.62100,103.4604466
1.62150,97.6617529
1.62200,98.88253053
1.62250,113.2266677
1.62300,133.0643042
1.62350,150.7655798
1.62400,167.5512723
1.62450,188.6096864
1.62500,211.499267
1.62550,224.0122377
1.62600,217.6031551
1.62650,193.4927969
1.62700,162.0577729
1.62750,135.5058595
1.62800,119.6357503
1.62850,108.953946
1.62900,92.16825356
1.62950,64.39556246
1.63000,32.96053847
1.63050,2.746292106
1.63100,-32.35106478
1.63150,-79.96139238
1.63200,-132.4548305
1.63250,-172.7404923
1.63300,-195.6300729
1.63350,-210.2794045
1.63400,-222.4871808
1.63450,-226.1495137
1.63500,-214.5521262
1.63550,-192.8833232
1.63600,-167.8573818
1.63650,-139.4743019
1.63700,-107.1236947
1.63750,-76.9094483
1.63800,-58.29258943
1.63850,-52.7990901
1.63900,-51.88350687
1.63950,-47.91597957
1.64000,-39.98092497
1.64050,-31.43548156
1.64100,-23.50042696
1.64150,-16.48095558
1.64200,-9.156289794
1.64250,-3.662790455
1.64300,-1.831624009
1.64350,-4.578373678
1.64400,-13.73420591
1.64450,-31.43548156
1.64500,-54.63025654
1.64550,-72.6367266
1.64600,-76.29905949
1.64650,-68.36400489
1.64700,-63.17569996
1.64750,-68.36400489
1.64800,-75.38347627
1.64850,-74.16269863
1.64900,-66.22764403
1.64950,-60.12375588
1.65000,-57.0718118
1.65050,-48.8315628
1.65100,-32.96145359
1.65150,-15.56537236
1.65200,-3.05240164
1.65250,5.493041776
1.65300,14.95406841
1.65350,24.10990065
1.65400,28.38262235
1.65450,27.46703913
1.65500,24.72028946
1.65550,21.36315098
1.65600,14.64887401
1.65650,6.103430591
1.65700,3.66187533
1.65750,13.73329078
1.65800,32.04495525
1.65850,46.69428682
1.65900,50.35661971
1.65950,45.16831478
1.66000,38.1488434
1.66050,34.48651051
1.66100,32.65534406
1.66150,28.99301117
1.66200,20.44756775
1.66250,10.07095789
1.66300,3.356680922
1.66350,1.220320068
1.66400,-0.9160407859
1.66450,-4.578373678
1.66500,-2.747207232
1.66550,9.155374668
1.66600,27.16184472
1.66650,38.75923222
1.66700,37.84364899
1.66750,29.90859439
1.66800,25.63587268
1.66850,32.35014965
1.66900,46.38909241
1.66950,58.29167431
1.67000,60.12284075
1.67050,53.71375819
1.67100,46.69428682
1.67150,43.94753715
1.67200,42.42156511
1.67250,38.75923222
1.67300,34.79170492
1.67350,32.96053847
1.67400,31.73976084
1.67450,29.60339998
1.67500,25.94106709
1.67550,21.66834538
1.67600,15.86965164
1.67650,10.3761523
1.67700,8.239791445
1.67750,8.544985853
1.67800,8.544985853
1.67850,9.155374668
1.67900,15.25926282
1.67950,25.94106709
1.68000,33.87612169
1.68050,34.1813161
1.68100,32.04495525
1.68150,31.12937202
1.68200,30.2137888
1.68250,28.07742795
1.68300,29.29820558
1.68350,36.31767695
1.68400,43.33714833
1.68450,43.64234274
1.68500,37.84364899
1.68550,29.90859439
1.68600,20.44756775
1.68650,10.07095789
1.68700,1.830708883
1.68750,-3.967984863
1.68800,-10.68226183
1.68850,-17.70173321
1.68900,-19.53289966
1.68950,-14.95498354
1.69000,-10.98745624
1.69050,-13.73420591
1.69100,-19.53289966
1.69150,-21.97445492
1.69200,-22.27964933
1.69250,-24.41601018
1.69300,-28.68873189
1.69350,-31.13028715
1.69400,-30.82509274
1.69450,-29.2991207
1.69500,-26.85756544
1.69550,-21.3640661
1.69600,-14.34459472
1.69650,-10.37706742
1.69700,-14.34459472
1.69750,-23.80562136
1.69800,-31.43548156
1.69850,-29.90950952
1.69900,-19.83809406
1.69950,-8.240706571
1.70000,-2.747207232
1.70050,-4.273179271
1.70100,-9.461484202
1.70150,-13.73420591
1.70200,-15.56537236
1.70250,-14.64978913
1.70300,-10.98745624
1.70350,-7.935512163
1.70400,-7.630317755
1.70450,-8.545900978
1.70500,-7.630317755
1.70550,-4.883568086
1.70600,-3.662790455
1.70650,-4.578373678
1.70700,-6.104345717
1.70750,-6.104345717
1.70800,-3.967984863
1.70850,0.3047368449
1.70900,5.798236183
1.70950,8.850180261
1.71000,7.324208222
1.71050,4.88265296
1.71100,6.408624999
1.71150,12.20731875
1.71200,19.53198453
1.71250,28.99301117
1.71300,39.67481544
1.71350,47.60987004
1.71400,49.44103648
1.71450,51.27220293
1.71500,61.9540072
1.71550,78.73969962
1.71600,88.50592067
1.71650,83.31761574
1.71700,69.8890618
1.71750,57.9864799
1.71800,47.91506445
1.71850,37.23326018
1.71900,29.60339998
1.71950,31.12937202
1.72000,39.67481544
1.72050,43.03195392
1.72100,29.29820558
1.72150,-0.6108463782
1.72200,-36.62378649
1.72250,-64.39647759
1.72300,-77.21464271
1.72350,-75.99386508
1.72400,-68.6691993
1.72450,-65.0068664
1.72500,-72.02633778
1.72550,-87.28605817
1.72600,-101.9353897
1.72650,-107.7340835
1.72700,-102.850973
1.72750,-92.4743631
1.72800,-79.04580916
1.72850,-62.87050555
1.72900,-46.69520194
1.72950,-36.31859208
1.73000,-34.48742563
1.73050,-36.31859208
1.73100,-36.92898089
1.73150,-36.31859208
1.73200,-34.79262004
1.73250,-28.07834307
1.73300,-14.64978913
1.73350,-1.526429601
1.73400,1.830708883
1.73450,-3.967984863
1.73500,-12.20823387
1.73550,-17.70173321
1.73600,-20.75367729
1.73650,-19.22770525
1.73700,-9.461484202
1.73750,5.493041776
1.73800,20.14237335
1.73850,30.51898321
1.73900,37.84364899
1.73950,42.72675952
1.74000,43.94753715
1.74050,42.72675952
1.74100,46.083898
1.74150,58.59686872
1.74200,74.16178351
1.74250,84.84358778
1.74300,86.67475422
1.74350,81.7916437
1.74400,72.94100588
1.74450,62.25920161
1.74500,52.49298056
1.74550,42.72675952
1.74600,28.99301117
1.74650,9.460569076
1.74700,-8.545900978
1.74750,-17.3965388
1.74800,-21.05887169
1.74850,-32.35106478
1.74900,-54.93545095
1.74950,-77.82503153
1.75000,-89.72761343
1.75050,-94.30552954
1.75100,-101.9353897
1.75150,-112.3119996
1.75200,-113.5327772
1.75250,-101.0198065
1.75300,-85.45489172
1.75350,-75.38347627
1.75400,-67.14322726
1.75450,-52.49389569
1.75500,-32.65625919
1.75550,-17.70173321
1.75600,-13.4290115
1.75650,-18.00692762
1.75700,-22.89003814
1.75750,-20.14328847
1.75800,-6.714734532
1.75850,8.850180261
1.75900,15.25926282
1.75950,8.239791445
1.76000,-1.221235194
1.76050,-1.831624009
1.76100,5.798236183
1.76150,12.81770756
1.76200,14.95406841
1.76250,15.25926282
1.76300,15.86965164
1.76350,14.95406841
1.76400,12.51251315
1.76450,10.3761523
1.76500,11.59692993
1.76550,14.64887401
1.76600,16.78523486
1.76650,15.86965164
1.76700,11.59692993
1.76750,6.408624999
1.76800,3.967069737
1.76850,7.019013814
1.76900,13.12290197
1.76950,19.22679012
1.77000,23.49951183
1.77050,26.85665031
1.77100,28.38262235
1.77150,25.63587268
1.77200,16.78523486
1.77250,6.103430591
1.77300,0.9151256603
1.77350,3.967069737
1.77400,11.59692993
1.77450,16.78523486
1.77500,17.09042927
1.77550,16.17484605
1.77600,17.39562368
1.77650,20.44756775
1.77700,21.36315098
1.77750,17.09042927
1.77800,7.62940263
1.77850,-3.05240164
1.77900,-6.409540125
1.77950,3.967069737
1.78000,23.19431742
1.78050,36.62287136
1.78100,36.31767695
1.78150,27.77223354
1.78200,20.44756775
1.78250,18.00601249
1.78300,16.78523486
1.78350,13.42809638
1.78400,7.324208222
1.78450,-0.0004575628301
1.78500,-3.967984863
1.78550,-3.967984863
1.78600,-3.662790455
1.78650,-7.935512163
1.78700,-13.73420591
1.78750,-13.4290115
1.78800,-5.493956901
1.78850,0.9151256603
1.78900,-0.0004575628301
1.78950,-0.9160407859
1.79000,5.493041776
1.79050,16.48004045
1.79100,21.97353979
1.79150,19.53198453
1.79200,16.48004045
1.79250,16.48004045
1.79300,17.09042927
1.79350,17.39562368
1.79400,20.75276216
1.79450,28.07742795
1.79500,34.1813161
1.79550,34.1813161
1.79600,30.51898321
1.79650,27.77223354
1.79700,26.2462615
1.79750,23.49951183
1.79800,18.00601249
1.79850,11.90212434
1.79900,5.187847368
1.79950,-2.136818417
1.80000,-10.37706742
1.80050,-16.17576117
1.80100,-18.61731643
1.80150,-18.61731643
1.80200,-16.78614999
1.80250,-13.12381709
1.80300,-8.240706571
1.80350,-4.883568086
1.80400,-2.442012824
1.80450,1.525514476
1.80500,9.460569076
1.80550,17.70081808
1.80600,24.72028946
1.80650,34.48651051
1.80700,50.66181412
1.80750,70.80464502
1.80800,86.36955982
1.80850,92.77864238
1.80900,91.25267034
1.80950,86.06436541
1.81000,80.26567166
1.81050,76.60333877
1.81100,73.55139469
1.81150,67.44750654
1.81200,56.46050786
1.81250,42.72675952
1.81300,29.60339998
1.81350,12.81770756
1.81400,-10.98745624
1.81450,-39.98092497
1.81500,-65.0068664
1.81550,-80.5717812
1.81600,-86.37047494
1.81650,-85.76008613
1.81700,-83.31853087
1.81750,-83.31853087
1.81800,-83.62372527
1.81850,-77.82503153
1.81900,-61.95492233
1.81950,-42.42248023
1.82000,-25.94198222
1.82050,-10.68226183
1.82100,7.62940263
1.82150,25.63587268
1.82200,37.23326018
1.82250,44.86312037
1.82300,56.76570227
1.82350,71.41503384
1.82400,76.90853318
1.82450,68.66828417
1.82500,54.93453582
1.82550,43.33714833
1.82600,29.60339998
1.82650,5.493041776
1.82700,-29.2991207
1.82750,-67.14322726
1.82800,-99.49383447
1.82850,-124.8249703
1.82900,-147.1041621
1.82950,-172.1301035
1.83000,-200.5131834
1.83050,-222.1819864
1.83100,-227.3702913
1.83150,-217.2988758
1.83200,-202.9547387
1.83250,-191.0521568
1.83300,-174.8768532
1.83350,-148.0197453
1.83400,-115.0587493
1.83450,-86.67566935
1.83500,-68.36400489
1.83550,-56.15622858
1.83600,-43.33806346
1.83650,-27.77314866
1.83700,-10.68226183
1.83750,2.746292106
1.83800,10.3761523
1.83850,13.12290197
1.83900,15.25926282
1.83950,18.00601249
1.84000,21.36315098
1.84050,25.33067828
1.84100,32.65534406
1.84150,42.42156511
1.84200,50.66181412
1.84250,53.40856378
1.84300,53.10336938
1.84350,53.40856378
1.84400,55.85011905
1.84450,59.51245194
1.84500,63.78517365
1.84550,67.44750654
1.84600,69.58386739
1.84650,69.58386739
1.84700,68.36308976
1.84750,66.83711772
1.84800,64.09036805
1.84850,59.81764635
1.84900,54.62934142
1.84950,51.57739734
1.85000,51.88259175
1.85050,53.71375819
1.85100,54.93453582
1.85150,55.23973023
1.85200,56.46050786
1.85250,60.73322957
1.85300,68.66828417
1.85350,78.43450522
1.85400,86.97994863
1.85450,89.7266983
1.85500,85.14878219
1.85550,77.51892199
1.85600,71.10983943
1.85650,65.9215345
1.85700,57.07089668
1.85750,43.94753715
1.85800,32.65534406
1.85850,27.16184472
1.85900,21.66834538
1.85950,7.62940263
1.86000,-15.26017795
1.86050,-39.06534175
1.86100,-57.37700621
1.86150,-70.50036574
1.86200,-79.04580916
1.86250,-80.8769756
1.86300,-76.9094483
1.86350,-72.33153219
1.86400,-71.41594896
1.86450,-68.6691993
1.86500,-58.59778384
1.86550,-44.86403549
1.86600,-36.01339767
1.86650,-33.57184241
1.86700,-28.68873189
1.86750,-15.26017795
1.86800,2.746292106
1.86850,14.64887401
1.86900,12.51251315
1.86950,-0.0004575628301
1.87000,-13.4290115
1.87050,-21.05887169
1.87100,-24.72120459
1.87150,-31.13028715
1.87200,-42.42248023
1.87250,-52.7990901
1.87300,-57.98739503
1.87350,-57.68220062
1.87400,-53.40947891
1.87450,-45.77961872
1.87500,-36.01339767
1.87550,-27.77314866
1.87600,-21.97445492
1.87650,-14.95498354
1.87700,-3.967984863
1.87750,6.713819407
1.87800,11.59692993
1.87850,10.98654111
1.87900,10.68134671
1.87950,13.42809638
1.88000,16.48004045
1.88050,17.39562368
1.88100,17.70081808
1.88150,19.83717894
1.88200,25.02548387
1.88250,29.90859439
1.88300,30.51898321
1.88350,27.16184472
1.88400,25.63587268
1.88450,32.65534406
1.88500,47.30467563
1.88550,60.12284075
1.88600,65.61634009
1.88650,67.44750654
1.88700,72.33061706
1.88750,81.48644929
1.88800,91.25267034
1.88850,99.18772494
1.88900,106.5123907
1.88950,113.2266677
1.89000,116.8890006
1.89050,117.8045838
1.89100,116.5838062
1.89150,113.8370565
1.89200,106.8175851
1.89250,95.52539205
1.89300,81.7916437
1.89350,69.27867299
1.89400,59.81764635
1.89450,50.35661971
1.89500,33.87612169
1.89550,7.019013814
1.89600,-21.66926051
1.89650,-36.62378649
1.89700,-30.82509274
1.89750,-15.26017795
1.89800,-7.630317755
1.89850,-13.12381709
1.89900,-23.19523255
1.89950,-30.82509274
1.90000,-39.67573056
1.90050,-57.68220062
1.90100,-86.37047494
1.90150,-117.8054989
1.90200,-142.2210516
1.90250,-156.8703831
1.90300,-167.5521874
1.90350,-179.4547693
1.90400,-188.0002127
1.90450,-180.9807413
1.90500,-154.4288279
1.90550,-121.7730262
1.90600,-99.18864007
1.90650,-88.5068358
1.90700,-77.82503153
1.90750,-61.64972792
1.90800,-46.39000753
1.90850,-36.92898089
1.90900,-28.07834307
1.90950,-17.3965388
1.91000,-11.29265065
1.91050,-12.20823387
1.91100,-9.766678609
1.91150,4.272264145
1.91200,21.05795657
1.91250,24.72028946
1.91300,16.48004045
1.91350,14.03848519
1.91400,25.02548387
1.91450,38.75923222
1.91500,43.03195392
1.91550,39.67481544
1.91600,35.70728814
1.91650,31.73976084
1.91700,25.94106709
1.91750,22.2787342
1.91800,24.10990065
1.91850,28.99301117
1.91900,31.73976084
1.91950,32.04495525
1.92000,32.35014965
1.92050,30.82417762
1.92100,25.94106709
1.92150,20.75276216
1.92200,19.83717894
1.92250,21.66834538
1.92300,23.19431742
1.92350,26.2462615
1.92400,32.04495525
1.92450,35.70728814
1.92500,34.48651051
1.92550,32.65534406
1.92600,34.48651051
1.92650,33.57092728
1.92700,22.88912301
1.92750,9.765763484
1.92800,9.460569076
1.92850,25.33067828
1.92900,45.16831478
1.92950,57.9864799
1.93000,64.39556246
1.93050,66.83711772
1.93100,64.09036805
1.93150,59.51245194
1.93200,59.81764635
1.93250,65.61634009
1.93300,68.66828417
1.93350,68.05789535
1.93400,73.24620029
1.93450,89.11630949
1.93500,104.6812243
1.93550,109.2591404
1.93600,106.8175851
1.93650,104.3760299
1.93700,99.18772494
1.93750,84.23319896
1.93800,63.47997924
1.93850,46.99948122
1.93900,37.23326018
1.93950,28.38262235
1.94000,16.78523486
1.94050,3.051486514
1.94100,-13.12381709
1.94150,-34.79262004
1.94200,-60.42895029
1.94250,-84.8445029
1.94300,-102.5457786
1.94350,-111.3964164
1.94400,-113.5327772
1.94450,-114.143166
1.94500,-118.1106933
1.94550,-124.2145815
1.94600,-126.9613312
1.94650,-125.7405535
1.94700,-123.9093871
1.94750,-124.2145815
1.94800,-124.8249703
1.94850,-122.9938039
1.94900,-118.7210822
1.94950,-111.7016108
1.95000,-99.49383447
1.95050,-84.23411409
1.95100,-70.19517133
1.95150,-58.29258943
1.95200,-43.94845227
1.95250,-27.46795426
1.95300,-14.64978913
1.95350,-9.461484202
1.95400,-7.325123348
1.95450,-6.104345717
1.95500,-9.461484202
1.95550,-17.70173321
1.95600,-22.27964933
1.95650,-17.09134439
1.95700,-7.935512163
1.95750,-2.442012824
1.95800,2.135903291
1.95850,13.12290197
1.95900,25.63587268
1.95950,27.46703913
1.96000,19.22679012
1.96050,14.95406841
1.96100,21.66834538
1.96150,33.87612169
1.96200,42.1163707
1.96250,45.77870359
1.96300,48.22025885
1.96350,48.83064767
1.96400,47.60987004
1.96450,47.91506445
1.96500,51.57739734
1.96550,50.66181412
1.96600,37.23326018
1.96650,14.03848519
1.96700,-7.325123348
1.96750,-21.97445492
1.96800,-31.74067596
1.96850,-36.92898089
1.96900,-33.57184241
1.96950,-21.66926051
1.97000,-9.766678609
1.97050,-2.747207232
1.97100,9.155374668
1.97150,36.31767695
1.97200,69.27867299
1.97250,86.06436541
1.97300,78.73969962
1.97350,62.86959042
1.97400,55.23973023
1.97450,58.90206312
1.97500,66.22672891
1.97550,74.77217232
1.97600,85.759171
1.97650,93.08383679
1.97700,90.64228152
1.97750,82.70722692
1.97800,79.65528285
1.97850,83.92800456
1.97900,86.97994863
1.97950,82.70722692
1.98000,73.8565891
1.98050,65.31114569
1.98100,57.68128549
1.98150,51.57739734
1.98200,51.27220293
1.98250,59.20725753
1.98300,69.58386739
1.98350,71.72022825
1.98400,61.03842398
1.98450,42.42156511
1.98500,24.10990065
1.98550,9.460569076
1.98600,-5.799151309
1.98650,-27.46795426
1.98700,-52.7990901
1.98750,-72.33153219
1.98800,-80.8769756
1.98850,-82.40294764
1.98900,-86.37047494
1.98950,-98.27305684
1.99000,-112.617194
1.99050,-120.5522486
1.99100,-116.8899157
1.99150,-104.0717506
1.99200,-88.5068358
1.99250,-74.16269863
1.99300,-61.34453351
1.99350,-47.91597957
1.99400,-33.57184241
1.99450,-18.31212202
1.99500,-0.6108463782
1.99550,16.48004045
1.99600,27.46703913
1.99650,28.68781676
1.99700,25.33067828
1.99750,25.02548387
1.99800,26.2462615
1.99850,18.61640131
1.99900,-0.6108463782
1.99950,-19.83809406
2.00000,-28.38353748
2.00050,-28.07834307
2.00100,-28.99392629
2.00150,-33.87703682
2.00200,-37.53936971
2.00250,-38.45495293
2.00300,-40.28611938
2.00350,-46.39000753
2.00400,-56.46142299
2.00450,-71.72114337
2.00500,-92.4743631
2.00550,-116.8899157
2.00600,-139.1691075
2.00650,-155.0392167
2.00700,-162.6690769
2.00750,-160.8379104
2.00800,-151.3768838
2.00850,-140.0846907
2.00900,-132.1496361
2.00950,-126.9613312
2.01000,-122.0782206
2.01050,-117.1951101
2.01100,-109.5652499
2.01150,-92.16916869
2.01200,-63.48089436
2.01250,-35.70820326
2.01300,-23.80562136
2.01350,-25.3315934
2.01400,-26.55237103
2.01450,-23.50042696
2.01500,-21.66926051
2.01550,-19.22770525
2.01600,-3.662790455
2.01650,25.94106709
2.01700,53.10336938
2.01750,64.09036805
2.01800,65.00595128
2.01850,66.53192332
2.01900,63.47997924
2.01950,47.91506445
2.02000,30.82417762
2.02050,31.43456643
2.02100,52.18778615
2.02150,75.38256114
2.02200,85.45397659
2.02250,82.09683811
2.02300,70.80464502
2.02350,55.23973023
2.02400,41.81117629
2.02450,36.92806577
2.02500,39.06442662
2.02550,41.50598188
2.02600,40.89559307
2.02650,40.28520425
2.02700,38.45403781
2.02750,31.73976084
2.02800,21.05795657
2.02850,14.3436796
2.02900,13.12290197
2.02950,12.51251315
2.03000,9.155374668
2.03050,5.798236183
2.03100,5.493041776
2.03150,7.62940263
2.03200,14.3436796
2.03250,29.60339998
2.03300,49.74623089
2.03350,62.25920161
2.03400,61.34361839
2.03450,54.93453582
2.03500,53.40856378
2.03550,57.37609109
2.03600,59.20725753
2.03650,57.37609109
2.03700,56.46050786
2.03750,58.29167431
2.03800,58.29167431
2.03850,54.62934142
2.03900,50.66181412
2.03950,50.35661971
2.04000,52.18778615
2.04050,53.71375819
2.04100,55.85011905
2.04150,58.59686872
2.04200,59.81764635
2.04250,56.46050786
2.04300,50.0514253
2.04350,46.38909241
2.04400,50.0514253
2.04450,60.73322957
2.04500,70.19425621
2.04550,71.10983943
2.04600,62.56439602
2.04650,53.71375819
2.04700,52.49298056
2.04750,57.07089668
2.04800,58.59686872
2.04850,54.93453582
2.04900,51.57739734
2.04950,52.18778615
2.05000,52.79817497
2.05050,49.13584208
2.05100,41.81117629
2.05150,35.40209373
2.05200,31.73976084
2.05250,30.51898321
2.05300,30.51898321
2.05350,29.60339998
2.05400,25.33067828
2.05450,17.09042927
2.05500,5.493041776
2.05550,-11.29265065
2.05600,-35.40300886
2.05650,-61.64972792
2.05700,-81.48736442
2.05750,-94.61072395
2.05800,-109.5652499
2.05850,-131.2340529
2.05900,-151.6820782
2.05950,-157.7859663
2.06000,-148.0197453
2.06050,-131.5392473
2.06100,-117.8054989
2.06150,-103.4613618
2.06200,-77.51983712
2.06250,-36.01339767
2.06300,8.544985853
2.06350,38.45403781
2.06400,51.57739734
2.06450,62.25920161
2.06500,83.62281015
2.06550,111.3955012
2.06600,133.3694986
2.06650,144.9668861
2.06700,148.9344134
2.06750,142.5253308
2.06800,123.2980831
2.06850,95.83058646
2.06900,69.58386739
2.06950,45.47350918
2.07000,19.22679012
2.07050,-10.68226183
2.07100,-40.59131379
2.07150,-67.44842166
2.07200,-86.67566935
2.07250,-89.42241902
2.07300,-74.46789304
2.07350,-56.46142299
2.07400,-53.1042845
2.07450,-64.09128318
2.07500,-74.46789304
2.07550,-76.29905949
2.07600,-75.07828186
2.07650,-76.9094483
2.07700,-78.74061475
2.07750,-79.35100357
2.07800,-82.70814205
2.07850,-90.03280783
2.07900,-95.52630717
2.07950,-94.61072395
2.08000,-90.64319665
2.08050,-89.72761343
2.08100,-93.08475191
2.08150,-97.96786244
2.08200,-101.9353897
2.08250,-101.3250009
2.08300,-93.69514073
2.08350,-80.8769756
2.08400,-68.36400489
2.08450,-57.98739503
2.08500,-47.30559076
2.08550,-39.06534175
2.08600,-38.14975853
2.08650,-41.50689701
2.08700,-37.53936971
2.08750,-21.66926051
2.08800,-4.273179271
2.08850,3.66187533
2.08900,6.713819407
2.08950,13.42809638
2.09000,22.2787342
2.09050,23.19431742
2.09100,15.86965164
2.09150,9.765763484
2.09200,8.850180261
2.09250,7.324208222
2.09300,1.830708883
2.09350,-0.6108463782
2.09400,3.967069737
2.09450,10.07095789
2.09500,10.68134671
2.09550,9.460569076
2.09600,12.81770756
2.09650,18.3112069
2.09700,18.3112069
2.09750,14.95406841
2.09800,18.00601249
2.09850,28.99301117
2.09900,40.89559307
2.09950,47.60987004
2.10000,51.57739734
2.10050,54.62934142
2.10100,51.88259175
2.10150,43.33714833
2.10200,35.70728814
2.10250,33.57092728
2.10300,32.35014965
2.10350,28.68781676
2.10400,25.63587268
2.10450,28.68781676
2.10500,33.87612169
2.10550,35.09689932
2.10600,32.96053847
2.10650,33.26573288
2.10700,35.70728814
2.10750,35.09689932
2.10800,32.04495525
2.10850,31.12937202
2.10900,33.57092728
2.10950,32.96053847
2.11000,25.63587268
2.11050,15.86965164
2.11100,9.460569076
2.11150,7.62940263
2.11200,8.850180261
2.11250,12.81770756
2.11300,17.39562368
2.11350,19.53198453
2.11400,19.83717894
2.11450,21.05795657
2.11500,24.72028946
2.11550,27.46703913
2.11600,25.33067828
2.11650,19.53198453
2.11700,13.73329078
2.11750,10.68134671
2.11800,7.62940263
2.11850,1.830708883
2.11900,-3.967984863
2.11950,-5.188762494
2.12000,-0.0004575628301
2.12050,4.88265296
2.12100,2.746292106
2.12150,-2.747207232
2.12200,-1.526429601
2.12250,9.155374668
2.12300,20.75276216
2.12350,25.02548387
2.12400,25.33067828
2.12450,28.68781676
2.12500,35.09689932
2.12550,38.1488434
2.12600,40.28520425
2.12650,50.35661971
2.12700,70.80464502
2.12750,91.86305916
2.12800,101.0188914
2.12850,100.4085026
2.12900,99.49291935
2.12950,102.239669
2.13000,102.239669
2.13050,94.60980882
2.13100,83.92800456
2.13150,75.99294995
2.13200,68.05789535
2.13250,55.23973023
2.13300,40.28520425
2.13350,29.29820558
2.13400,20.44756775
2.13450,1.830708883
2.13500,-30.82509274
2.13550,-68.05881048
2.13600,-97.96786244
2.13650,-120.2470542
2.13700,-139.7794963
2.13750,-155.9547999
2.13800,-160.532716
2.13850,-150.766495
2.13900,-134.285997
2.13950,-121.1626374
2.14000,-114.143166
2.14050,-107.7340835
2.14100,-95.52630717
2.14150,-74.46789304
2.14200,-47.00039635
2.14250,-16.48095558
2.14300,11.90212434
2.14350,32.96053847
2.14400,41.81117629
2.14450,41.81117629
2.14500,40.59039866
2.14550,42.42156511
2.14600,42.42156511
2.14650,36.92806577
2.14700,32.96053847
2.14750,40.89559307
2.14800,59.51245194
2.14850,80.57086607
2.14900,98.57733612
2.14950,111.7006957
2.15000,112.6162789
2.15050,92.16825356
2.15100,56.76570227
2.15150,27.16184472
2.15200,12.81770756
2.15250,-0.0004575628301
2.15300,-28.07834307
2.15350,-65.92244963
2.15400,-98.57825125
2.15450,-125.7405535
2.15500,-158.0911608
2.15550,-191.6625456
2.15600,-205.0910995
2.15650,-190.7469624
2.15700,-167.246993
2.15750,-155.9547999
2.15800,-153.5132446
2.15850,-142.8314404
2.15900,-120.857443
2.15950,-99.18864007
2.16000,-84.23411409
2.16050,-69.88997693
2.16100,-50.96792365
2.16150,-32.04587037
2.16200,-16.48095558
2.16250,-3.967984863
2.16300,5.798236183
2.16350,11.90212434
2.16400,14.64887401
2.16450,18.92159571
2.16500,24.72028946
2.16550,28.68781676
2.16600,29.60339998
2.16650,29.90859439
2.16700,28.68781676
2.16750,25.02548387
2.16800,23.80470624
2.16850,30.82417762
2.16900,41.81117629
2.16950,43.94753715
2.17000,33.87612169
2.17050,23.80470624
2.17100,21.97353979
2.17150,23.49951183
2.17200,19.53198453
2.17250,12.51251315
2.17300,10.68134671
2.17350,14.95406841
2.17400,19.22679012
2.17450,19.53198453
2.17500,15.86965164
2.17550,10.3761523
2.17600,7.62940263
2.17650,10.3761523
2.17700,14.95406841
2.17750,14.64887401
2.17800,11.59692993
2.17850,15.25926282
2.17900,26.2462615
2.17950,32.96053847
2.18000,31.43456643
2.18050,31.73976084
2.18100,42.1163707
2.18150,54.62934142
2.18200,56.15531345
2.18250,49.44103648
2.18300,43.33714833
2.18350,37.84364899
2.18400,28.07742795
2.18450,18.61640131
2.18500,17.39562368
2.18550,22.58392861
2.18600,25.02548387
2.18650,24.41509505
2.18700,29.60339998
2.18750,43.33714833
2.18800,62.25920161
2.18850,85.759171
2.18900,115.668223
2.18950,144.9668861
2.19000,161.7525785
2.19050,166.635689
2.19100,171.2136052
2.19150,180.9798262
2.19200,187.6941032
2.19250,184.0317703
2.19300,172.7395772
2.19350,159.0058288
2.19400,142.5253308
2.19450,123.6032776
2.19500,107.7331684
2.19550,95.83058646
2.19600,81.7916437
2.19650,59.51245194
2.19700,30.82417762
2.19750,2.441097699
2.19800,-19.83809406
2.19850,-35.70820326
2.19900,-46.69520194
2.19950,-57.0718118
2.20000,-71.72114337
2.20050,-90.64319665
2.20100,-109.5652499
2.20150,-125.7405535
2.20200,-138.5587187
2.20250,-147.7145509
2.20300,-152.292467
2.20350,-153.5132446
2.20400,-154.7340223
2.20450,-158.3963552
2.20500,-162.3638825
2.20550,-161.7534936
2.20600,-148.9353285
2.20650,-123.6041927
2.20700,-94.00033513
2.20750,-73.24711541
2.20800,-64.39647759
2.20850,-57.0718118
2.20900,-41.81209142
2.20950,-18.92251084
2.21000,7.934597037
2.21050,41.50598188
2.21100,81.18125489
2.21150,116.2786118
2.21200,134.5902762
2.21250,135.8110539
2.21300,130.3175545
2.21350,121.4669167
2.21400,105.5968075
2.21450,83.62281015
2.21500,61.34361839
2.21550,37.23326018
2.21600,2.746292106
2.21650,-43.33806346
2.21700,-90.94839106
2.21750,-129.7080808
2.21800,-164.8054377
2.21850,-200.8183778
2.21900,-230.117041
2.21950,-241.7144285
2.22000,-241.7144285
2.22050,-245.6819558
2.22100,-256.9741488
2.22150,-264.9092034
2.22200,-267.6559531
2.22250,-274.6754245
2.22300,-284.4416455
2.22350,-277.1169798
2.22400,-244.1559837
2.22450,-204.7859051
2.22500,-181.5911301
2.22550,-165.1106321
2.22600,-128.7924976
2.22650,-70.50036574
2.22700,-18.00692762
2.22750,9.460569076
2.22800,20.14237335
2.22850,28.99301117
2.22900,36.01248255
2.22950,38.1488434
2.23000,45.77870359
2.23050,68.66828417
2.23100,98.57733612
2.23150,119.0253614
2.23200,124.5188608
2.23250,122.3824999
2.23300,115.9734174
2.23350,105.2916131
2.23400,95.22019764
2.23450,96.74616968
2.23500,112.6162789
2.23550,132.7591098
2.23600,145.5772749
2.23650,146.1876637
2.23700,139.7785812
2.23750,135.5058595
2.23800,137.9474147
2.23850,142.8305252
2.23900,143.7461085
2.23950,144.3564973
2.24000,156.2590792
2.24050,179.1486598
2.24100,194.7135746
2.24150,187.3889088
2.24200,166.9408834
2.24250,154.7331071
2.24300,158.0902456
2.24350,166.0253002
2.24400,173.0447716
2.24450,185.8629367
2.24500,207.2265453
2.24550,230.4213203
2.24600,251.17454
2.24650,276.5056758
2.24700,307.9406998
2.24750,329.6095028
2.24800,322.284837
2.24850,286.2718969
2.24900,237.745986
2.24950,191.3564361
2.25000,150.4603854
2.25050,115.9734174
2.25100,90.64228152
2.25150,72.02542265
2.25200,53.10336938
2.25250,28.99301117
2.25300,1.830708883
2.25350,-25.3315934
2.25400,-59.20817266
2.25450,-108.0392779
2.25500,-174.8768532
2.25550,-251.4806495
2.25600,-325.948085
2.25650,-391.2596882
2.25700,-448.3310425
2.25750,-501.7400638
2.25800,-549.9607802
2.25850,-585.9737203
2.25900,-602.7594128
2.25950,-595.7399414
2.26000,-565.2205006
2.26050,-517.610173
2.26100,-461.1492076
2.26150,-401.6362981
2.26200,-337.2402781
2.26250,-266.4351755
2.26300,-195.3248785
2.26350,-131.8444417
2.26400,-74.77308745
2.26450,-16.17576117
2.26500,46.083898
2.26550,107.7331684
2.26600,161.7525785
2.26650,203.259018
2.26700,224.9278209
2.26750,224.6226265
2.26800,215.4667943
2.26850,215.1615999
2.26900,226.453793
2.26950,236.8304028
2.27000,238.9667637
2.27050,237.745986
2.27100,234.694042
2.27150,220.6550992
2.27200,190.4408528
2.27250,154.4279127
2.27300,126.0448328
2.27350,106.2071963
2.27400,92.16825356
2.27450,83.31761574
2.27500,74.77217232
2.27550,53.71375819
2.27600,15.25926282
2.27650,-27.46795426
2.27700,-59.20817266
2.27750,-83.01333646
2.27800,-114.143166
2.27850,-155.3444111
2.27900,-194.1041009
2.27950,-220.0456255
2.28000,-234.3897627
2.28050,-238.6624844
2.28100,-229.5066522
2.28150,-203.8703219
2.28200,-166.6366042
2.28250,-122.3834151
2.28300,-70.50036574
2.28350,-16.17576117
2.28400,24.41509505
2.28450,39.67481544
2.28500,41.20078748
2.28550,56.76570227
2.28600,98.88253053
2.28650,147.1032469
2.28700,172.7395772
2.28750,173.349966
2.28800,175.7915213
2.28850,204.4797956
2.28900,256.9732337
2.28950,313.7393936
2.29000,365.9276373
2.29050,420.2522418
2.29100,481.9015122
2.29150,542.0248105
2.29200,582.9208611
2.29250,590.8559157
2.29300,566.4403631
2.29350,518.8300355
2.29400,455.3495987
2.29450,375.3886639
2.29500,275.5900926
2.29550,162.3629673
2.29600,50.35661971
2.29650,-52.7990901
2.29700,-153.2080502
2.29750,-256.36376
2.29800,-352.1948041
2.29850,-426.3570451
2.29900,-476.1037336
2.29950,-508.7595352
2.30000,-522.4932835
2.30050,-509.9803128
2.30100,-475.4933448
2.30150,-436.733655
2.30200,-403.772659
2.30250,-371.1168573
2.30300,-332.9675564
2.30350,-298.4805883
2.30400,-278.6429518
2.30450,-274.3702301
2.30500,-280.4741182
2.30550,-296.039033
2.30600,-317.707836
2.30650,-336.9350837
2.30700,-345.4805271
2.30750,-342.7337774
2.30800,-330.2208067
2.30850,-306.4156429
2.30900,-275.8962021
2.30950,-250.2598719
2.31000,-236.8313179
2.31050,-227.9806801
2.31100,-210.8897933
2.31150,-181.5911301
2.31200,-143.7470236
2.31250,-97.96786244
2.31300,-46.39000753
2.31350,-0.0004575628301
2.31400,27.16184472
2.31450,32.65534406
2.31500,29.29820558
2.31550,34.1813161
2.31600,54.62934142
2.31650,86.06436541
2.31700,115.3630285
2.31750,131.5383322
2.31800,137.3370259
2.31850,146.1876637
2.31900,166.3304946
2.31950,190.7460473
2.32000,203.5642124
2.32050,195.9343522
2.32100,174.2655492
2.32150,155.343496
2.32200,151.9863575
2.32250,162.9733561
2.32300,176.0967157
2.32350,182.5057982
2.32400,185.5577423
2.32450,194.4083801
2.32500,215.7719887
2.32550,250.2589568
2.32600,294.8173403
2.32650,338.4601406
2.32700,363.486082
2.32750,360.4341379
2.32800,339.0705294
2.32850,312.2134215
2.32900,277.7264534
2.32950,226.1485985
2.33000,163.583745
2.33050,105.5968075
2.33100,50.66181412
2.33150,-17.09134439
2.33200,-94.91591836
2.33250,-149.8509117
2.33300,-154.1236335
2.33350,-119.0262766
2.33400,-78.43542034
2.33450,-51.27311806
2.33500,-29.2991207
2.33550,4.272264145
2.33600,54.62934142
2.33650,113.8370565
2.33700,167.8564667
2.33750,207.5317397
2.33800,231.3369035
2.33850,241.1031245
2.33900,230.7265147
2.33950,192.5772137
2.34000,131.8435266
2.34050,63.78517365
2.34100,-5.493956901
2.34150,-86.98086376
2.34200,-184.3378798
2.34250,-279.8637294
2.34300,-352.1948041
2.34350,-394.3116323
2.34400,-406.2142142
2.34450,-383.3246336
2.34500,-325.6428906
2.34550,-250.5650663
2.34600,-180.3703525
2.34650,-115.3639437
2.34700,-39.37053616
2.34750,60.42803516
2.34800,188.9148808
2.34850,340.291307
2.34900,492.8885109
2.34950,614.0506907
2.35000,688.2129318
2.35050,733.6868986
2.35100,776.4141156
2.35150,815.7841942
2.35200,831.9594978
2.35250,813.6478334
2.35300,762.0699785
2.35350,679.0570996
2.35400,577.7325562
2.35450,494.1092885
2.35500,456.5703764
2.35550,444.6677945
2.35600,411.0964096
2.35650,341.8172791
2.35700,267.3498436
2.35750,212.4148502
2.35800,169.6876331
2.35850,123.6032776
2.35900,70.19425621
2.35950,4.88265296
2.36000,-87.89644698
2.36050,-212.1105709
2.36100,-351.2792208
2.36150,-495.9413701
2.36200,-651.2853236
2.36250,-811.817582
2.36300,-949.1550655
2.36350,-1048.953637
2.36400,-1132.27171
2.36450,-1218.336533
2.36500,-1283.953331
2.36550,-1294.635135
2.36600,-1256.791028
2.36650,-1207.654729
2.36700,-1157.602846
2.36750,-1079.778272
2.36800,-961.6680362
2.36850,-828.6032745
2.36900,-704.3891505
2.36950,-581.3958042
2.37000,-451.9933754
2.37050,-344.2597495
2.37100,-290.5455337
2.37150,-278.9481462
2.37200,-263.3832314
2.37250,-223.0975696
2.37300,-180.0651581
2.37350,-157.1755775
2.37400,-144.052218
2.37450,-114.4483605
2.37500,-58.90297825
2.37550,10.68134671
2.37600,82.09683811
2.37650,148.9344134
2.37700,207.8369341
2.37750,254.8368729
2.37800,282.9147584
2.37850,289.3238409
2.37900,284.4407304
2.37950,285.9667025
2.38000,299.3952564
2.38050,313.1290047
2.38100,317.7069209
2.38150,319.2328929
2.38200,325.6419755
2.38250,332.6614468
2.38300,337.8497518
2.38350,352.1938889
2.38400,376.6094415
2.38450,379.6613856
2.38500,328.6939195
2.38550,233.4732643
2.38600,133.674693
2.38650,48.52545326
2.38700,-33.57184241
2.38750,-116.5847213
2.38800,-182.8119078
2.38850,-224.6235416
2.38900,-256.9741488
2.38950,-289.3247561
2.39000,-310.0779758
2.39050,-306.7208373
2.39100,-285.9676176
2.39150,-260.9416761
2.39200,-230.7274298
2.39250,-191.3573512
2.39300,-149.8509117
2.39350,-115.3639437
2.39400,-86.98086376
2.39450,-58.29258943
2.39500,-28.68873189
2.39550,-2.442012824
2.39600,19.83717894
2.39650,44.86312037
2.39700,74.46697792
2.39750,105.2916131
2.39800,129.4019713
2.39850,140.6941644
2.39900,140.6941644
2.39950,138.8629979
2.40000,143.4409141
2.40050,154.1227183
2.40100,166.635689
2.40150,180.3694374
2.40200,197.1551298
2.40250,214.2460166
2.40300,223.7070433
2.40350,226.7589874
2.40400,234.0836531
2.40450,255.7524561
2.40500,292.0705906
2.40550,334.1874189
2.40600,372.6419142
2.40650,399.4990221
2.40700,412.0119928
2.40750,410.7912152
2.40800,399.1938277
2.40850,379.6613856
2.40900,357.0769994
2.40950,340.291307
2.41000,334.7978077
2.41050,336.0185853
2.41100,336.0185853
2.41150,337.2393629
2.41200,342.7328623
2.41250,339.6809182
2.41300,303.9731725
2.41350,236.220014
2.41400,173.9603548
2.41450,151.9863575
2.41500,164.4993282
2.41550,180.3694374
2.41600,191.3564361
2.41650,217.6031551
2.41700,265.5186771
2.41750,310.3822551
2.41800,325.336781
2.41850,315.8757544
2.41900,311.9082271
2.41950,335.1030021
2.42000,380.8821632
2.42050,423.6093803
2.42100,437.6483231
2.42150,412.9275761
2.42200,356.771805
2.42250,278.0316479
2.42300,180.064243
2.42350,68.97347858
2.42400,-48.52636839
2.42450,-177.6236028
2.42500,-324.4221129
2.42550,-469.3894566
2.42600,-571.9347776
2.42650,-619.2399108
2.42700,-636.9411864
2.42750,-639.6879361
2.42800,-608.2529121
2.42850,-546.9088362
2.42900,-513.0322569
2.42950,-546.6036418
2.43000,-596.960719
2.43050,-579.2594434
2.43100,-471.8310119
2.43150,-312.519531
2.43200,-126.9613312
2.43250,74.77217232
2.43300,258.4992058
2.43350,388.5120234
2.43400,479.7651513
2.43450,559.1156973
2.43500,592.0766934
2.43550,523.1027572
2.43600,376.6094415
2.43650,242.0187077
2.43700,158.7006344
2.43750,94.60980882
2.43800,37.23326018
2.43850,15.25926282
2.43900,21.97353979
2.43950,-2.136818417
2.44000,-75.38347627
2.44050,-132.1496361
2.44100,-112.0068052
2.44150,-32.04587037
2.44200,61.9540072
2.44250,159.3110233
2.44300,266.4342604
2.44350,373.8626919
2.44400,466.9469862
2.44450,539.8884497
2.44500,572.8494457
2.44550,530.1222286
2.44600,397.9730501
2.44650,199.5966851
2.44700,-39.98092497
2.44750,-306.4156429
2.44800,-569.1880279
2.44850,-780.9929469
2.44900,-915.2784863
2.44950,-972.6550349
2.45000,-958.6160922
2.45050,-885.6746287
2.45100,-796.2526673
2.45150,-730.6358696
2.45200,-671.7333489
2.45250,-567.0516671
2.45300,-414.4544632
2.45350,-274.9806189
2.45400,-191.96774
2.45450,-143.1366348
2.45500,-92.16916869
2.45550,-36.92898089
2.45600,11.59692993
2.45650,57.07089668
2.45700,98.88253053
2.45750,115.0578341
2.45800,93.99942001
2.45850,55.54492464
2.45900,23.80470624
2.45950,-3.357596048
2.46000,-39.37053616
2.46050,-76.6042539
2.46100,-97.35747362
2.46150,-101.3250009
2.46200,-103.7665562
2.46250,-112.617194
2.46300,-122.0782206
2.46350,-126.9613312
2.46400,-132.1496361
2.46450,-143.4418292
2.46500,-152.9028558
2.46550,-142.2210516
2.46600,-106.5133059
2.46650,-72.33153219
2.46700,-73.24711541
2.46750,-107.1236947
2.46800,-139.7794963
2.46850,-156.8703831
2.46900,-189.8313792
2.46950,-260.3312873
2.47000,-332.0519731
2.47050,-348.2272768
2.47100,-307.6364205
2.47150,-259.7208985
2.47200,-232.5585962
2.47250,-207.5326548
2.47300,-162.3638825
2.47350,-107.1236947
2.47400,-57.37700621
2.47450,-6.409540125
2.47500,48.83064767
2.47550,88.50592067
2.47600,94.60980882
2.47650,86.67475422
2.47700,100.713697
2.47750,146.1876637
2.47800,204.1746012
2.47850,268.5706212
2.47900,357.9925827
2.47950,482.511901
2.48000,617.1026348
2.48050,722.6998999
2.48100,782.5180038
2.48150,801.1348627
2.48200,783.1283926
2.48250,726.0570384
2.48300,637.2454657
2.48350,533.4793671
2.48400,425.7457412
2.48450,314.3497824
2.48500,205.7005732
2.48550,112.3110845
2.48600,33.87612169
2.48650,-46.69520194
2.48700,-140.3898851
2.48750,-231.0326242
2.48800,-289.6299505
2.48850,-302.75331
2.48900,-278.032563
2.48950,-230.117041
2.49000,-173.6560755
2.49050,-122.3834151
2.49100,-82.70814205
2.49150,-50.96792365
2.49200,-19.83809406
2.49250,7.324208222
2.49300,18.00601249
2.49350,3.967069737
2.49400,-27.77314866
2.49450,-59.51336706
2.49500,-80.8769756
2.49550,-100.4094177
2.49600,-131.8444417
2.49650,-173.96127
2.49700,-216.3832926
2.49750,-257.8897321
2.49800,-303.0585044
2.49850,-339.9870277
2.49900,-344.5649439
2.49950,-312.8247255
2.50000,-262.1624538
2.50050,-193.7989065
2.50100,-92.7795575
2.50150,24.10990065
2.50200,102.239669
2.50250,117.194195
2.50300,116.2786118
2.50350,149.2396078
2.50400,188.9148808
2.50450,169.6876331
2.50500,81.48644929
2.50550,-24.72120459
2.50600,-117.5003045
2.50650,-199.5976002
2.50700,-253.6170104
2.50750,-222.1819864
2.50800,-75.68867067
2.50850,142.2201364
2.50900,358.6029715
2.50950,535.3105335
2.51000,674.173989
2.51050,774.8881436
2.51100,818.8361383
2.51150,790.7582528
2.51200,700.7259025
2.51250,585.6676108
2.51300,482.8170954
2.51350,404.0769382
2.51400,336.0185853
2.51450,263.6875107
2.51500,195.018769
2.51550,149.2396078
2.51600,131.8435266
2.51650,132.148721
2.51700,141.914942
2.51750,161.4473841
2.51800,175.1811325
2.51850,143.4409141
2.51900,38.1488434
2.51950,-113.5327772
2.52000,-246.597539
2.52050,-323.8117241
2.52100,-365.9285524
2.52150,-403.1622701
2.52200,-416.5908241
2.52250,-367.14933
2.52300,-260.3312873
2.52350,-151.6820782
2.52400,-83.31853087
2.52450,-50.05234043
2.52500,-37.84456412
2.52550,-51.27311806
2.52600,-92.4743631
2.52650,-141.9158571
2.52700,-185.253463
2.52750,-235.6105403
2.52800,-305.8052541
2.52850,-379.0519119
2.52900,-423.6102955
2.52950,-432.4609333
2.53000,-425.7466563
2.53050,-420.8635458
2.53100,-416.2856297
2.53150,-401.0259093
2.53200,-374.4739958
2.53250,-348.5324712
2.53300,-336.0195004
2.53350,-334.188334
2.53400,-331.4415843
2.53450,-329.6104179
2.53500,-342.7337774
2.53550,-367.14933
2.53600,-372.6428294
2.53650,-341.5129998
2.53700,-288.7143672
2.53750,-231.9482074
2.53800,-165.7210209
2.53850,-92.16916869
2.53900,-46.69520194
2.53950,-50.35753483
2.54000,-61.95492233
2.54050,-18.92251084
2.54100,81.7916437
2.54150,188.304492
2.54200,263.3823163
2.54250,315.57056
2.54300,358.6029715
2.54350,387.2912458
2.54400,396.1418836
2.54450,390.6483843
2.54500,373.5574975
2.54550,344.2588343
2.54600,312.5186159
2.54650,285.3563136
2.54700,250.5641512
2.54750,198.070713
2.54800,144.0513029
2.54850,105.9020019
2.54900,65.9215345
2.54950,-0.0004575628301
2.55000,-68.05881048
2.55050,-85.45489172
2.55100,-46.08481313
2.55150,2.135903291
2.55200,29.60339998
2.55250,53.40856378
2.55300,88.50592067
2.55350,111.0903068
2.55400,93.99942001
2.55450,44.55792596
2.55500,-15.56537236
2.55550,-82.70814205
2.55600,-155.9547999
2.55650,-220.9612087
2.55700,-269.4871196
2.55750,-310.3831702
2.55800,-341.2078054
2.55850,-335.714306
2.55900,-279.2533406
2.55950,-197.7664338
2.56000,-123.6041927
2.56050,-52.18870128
2.56100,39.06442662
2.56150,148.3240246
2.56200,250.5641512
2.56250,332.051058
2.56300,383.6289129
2.56350,381.1873577
2.56400,314.044588
2.56450,229.2005426
2.56500,202.3434347
2.56550,251.17454
2.56600,314.6549768
2.56650,328.3887251
2.56700,292.6809794
2.56750,247.8174015
2.56800,216.0771831
2.56850,189.2200752
2.56900,156.2590792
2.56950,117.4993894
2.57000,74.77217232
2.57050,28.38262235
2.57100,-16.48095558
2.57150,-52.7990901
2.57200,-81.48736442
2.57250,-116.5847213
2.57300,-171.2145203
2.57350,-239.5780676
2.57400,-298.4805883
2.57450,-332.662362
2.57500,-351.8896096
2.57550,-373.2532182
2.57600,-388.5129386
2.57650,-380.577884
2.57700,-361.3506363
2.57750,-367.4545244
2.57800,-406.2142142
2.57850,-435.8180718
2.57900,-419.9479626
2.57950,-370.8116629
2.58000,-318.0130304
2.58050,-264.9092034
2.58100,-205.0910995
2.58150,-156.2599943
2.58200,-139.1691075
2.58250,-132.7600249
2.58300,-97.66266803
2.58350,-30.21470393
2.58400,37.23326018
2.58450,93.38903119
2.58500,160.8369953
2.58550,250.8693456
2.58600,334.1874189
2.58650,382.1029409
2.58700,406.2132991
2.58750,435.5119622
2.58800,466.9469862
2.58850,468.4729583
2.58900,430.9340461
2.58950,389.4276067
2.59000,370.200359
2.59050,345.1744175
2.59100,269.18101
2.59150,152.5967463
2.59200,62.25920161
2.59250,36.01248255
2.59300,40.59039866
2.59350,33.87612169
2.59400,34.48651051
2.59450,91.86305916
2.59500,209.6681005
2.59550,343.0380567
2.59600,460.2327093
2.59650,563.0832246
2.59700,651.5896029
2.59750,709.2713459
2.59800,726.3622328
2.59850,704.083041
2.59900,636.0246881
2.59950,513.946925
2.60000,353.4146666
2.60050,184.0317703
2.60100,11.59692993
2.60150,-176.0976308
2.60200,-368.3701077
2.60250,-525.850422
2.60300,-626.5645766
2.60350,-685.1619029
2.60400,-717.5125101
2.60450,-719.0384821
2.60500,-689.1294302
2.60550,-646.0970187
2.60600,-597.8763023
2.60650,-524.6296444
2.60700,-412.9284912
2.60750,-285.9676176
2.60800,-181.5911301
2.60850,-114.143166
2.60900,-76.29905949
2.60950,-65.31206081
2.61000,-82.40294764
2.61050,-119.0262766
2.61100,-161.4482992
2.61150,-205.7014884
2.61200,-248.4287054
2.61250,-271.0130916
2.61300,-246.9027334
2.61350,-172.7404923
2.61400,-73.55230982
2.61450,19.83717894
2.61500,95.52539205
2.61550,155.343496
2.61600,200.2070739
2.61650,224.6226265
2.61700,221.5706824
2.61750,190.1356584
2.61800,142.2201364
2.61850,98.27214172
2.61900,70.49945062
2.61950,52.18778615
2.62000,28.38262235
2.62050,-3.357596048
2.62100,-29.90950952
2.62150,-34.48742563
2.62200,-8.851095386
2.62250,42.72675952
2.62300,106.8175851
2.62350,165.4149114
2.62400,209.6681005
2.62450,242.934291
2.62500,268.2654268
2.62550,280.7783975
2.62600,281.3887863
2.62650,288.1030633
2.62700,314.3497824
2.62750,344.5640287
2.62800,350.3627225
2.62850,327.1679475
2.62900,295.1225347
2.62950,260.940761
2.63000,208.7525173
2.63050,132.148721
2.63100,58.59686872
2.63150,19.53198453
2.63200,14.95406841
2.63250,21.05795657
2.63300,26.55145591
2.63350,40.59039866
2.63400,71.10983943
2.63450,109.5643348
2.63500,143.4409141
2.63550,165.7201058
2.63600,168.1616611
2.63650,137.9474147
2.63700,71.10983943
2.63750,-18.61731643
2.63800,-113.8379716
2.63850,-212.7209597
2.63900,-324.7273074
2.63950,-444.3635152
2.64000,-545.3828641
2.64050,-606.7269401
2.64100,-633.584048
2.64150,-641.5191026
2.64200,-629.6165207
2.64250,-585.6685259
2.64300,-511.5062849
2.64350,-422.0843234
2.64400,-323.5065297
2.64450,-209.9742101
2.64500,-92.7795575
2.64550,-0.9160407859
2.64600,51.88259175
2.64650,90.03189271
2.64700,137.3370259
2.64750,183.1161871
2.64800,197.4603242
2.64850,171.5187996
2.64900,119.6357503
2.64950,54.0189526
2.65000,-14.64978913
2.65050,-63.48089436
2.65100,-65.0068664
2.65150,-15.87056676
2.65200,62.56439602
2.65250,151.9863575
2.65300,242.3239022
2.65350,319.5380873
2.65400,367.4536093
2.65450,383.6289129
2.65500,378.1354136
2.65550,349.7523337
2.65600,284.4407304
2.65650,181.8954094
2.65700,61.64881279
2.65750,-58.59778384
2.65800,-175.487242
2.65850,-282.9156735
2.65900,-362.5714139
2.65950,-403.1622701
2.66000,-413.53888
2.66050,-409.2661583
2.66100,-396.7531876
2.66150,-376.6103567
2.66200,-350.0584432
2.66250,-315.8766695
2.66300,-265.8247867
2.66350,-200.207989
2.66400,-131.8444417
2.66450,-70.50036574
2.66500,-11.59784506
2.66550,54.62934142
2.66600,129.0967769
2.66650,201.1226571
2.66700,257.8888169
2.66750,291.4602018
2.66800,299.3952564
2.66850,289.0186465
2.66900,269.7913988
2.66950,241.4083189
2.67000,197.4603242
2.67050,140.0837756
2.67100,84.84358778
2.67150,43.33714833
2.67200,9.765763484
2.67250,-25.94198222
2.67300,-64.39647759
2.67350,-95.22111277
2.67400,-111.3964164
2.67450,-111.3964164
2.67500,-94.30552954
2.67550,-59.20817266
2.67600,-6.104345717
2.67650,63.47997924
2.67700,147.4084414
2.67750,234.3888476
2.67800,306.4147278
2.67850,349.4471393
2.67900,365.6224429
2.67950,365.3172485
2.68000,358.2977771
2.68050,345.7848064
2.68100,319.8432817
2.68150,270.0965933
2.68200,195.018769
2.68250,111.3955012
2.68300,40.89559307
2.68350,-14.03940032
2.68400,-74.16269863
2.68450,-150.1561062
2.68500,-222.7923752
2.68550,-265.2143979
2.68600,-275.2858133
2.68650,-275.2858133
2.68700,-273.7598413
2.68750,-249.0390942
2.68800,-173.6560755
2.68850,-51.57831246
2.68900,84.23319896
2.68950,204.78499
2.69000,307.330311
2.69050,397.3626613
2.69100,464.505431
2.69150,491.6677332
2.69200,476.7132073
2.69250,434.9015734
2.69300,375.9990527
2.69350,299.7004508
2.69400,215.4667943
2.69450,143.7461085
2.69500,89.42150389
2.69550,32.96053847
2.69600,-40.59131379
2.69650,-119.331471
2.69700,-183.727491
2.69750,-235.0001515
2.69800,-284.4416455
2.69850,-329.9156123
2.69900,-361.9610251
2.69950,-381.1882728
2.70000,-387.2921609
2.70050,-373.5584126
2.70100,-347.6168879
2.70150,-341.5129998
2.70200,-373.2532182
2.70250,-412.012908
2.70300,-407.7401863
2.70350,-352.1948041
2.70400,-278.9481462
2.70450,-213.0261541
2.70500,-147.1041621
2.70550,-66.53283844
2.70600,27.46703913
2.70650,124.2136664
2.70700,202.6486292
2.70750,237.745986
2.70800,216.6875719
2.70850,157.7850512
2.70900,93.08383679
2.70950,36.62287136
2.71000,-17.09134439
2.71050,-72.6367266
2.71100,-123.6041927
2.71150,-164.8054377
2.71200,-191.3573512
2.71250,-192.5781288
2.71300,-163.8898545
2.71350,-115.6691381
2.71400,-58.59778384
2.71450,7.324208222
2.71500,77.8241164
2.71550,132.148721
2.71600,161.1421897
2.71650,185.2525479
2.71700,217.6031551
2.71750,234.9992364
2.71800,213.9408222
2.71850,177.3174933
2.71900,168.7720499
2.71950,186.4733255
2.72000,190.1356584
2.72050,165.7201058
2.72100,139.1681923
2.72150,125.1292496
2.72200,103.7656411
2.72250,61.9540072
2.72300,16.17484605
2.72350,-20.14328847
2.72400,-62.87050555
2.72450,-124.2145815
2.72500,-183.4222966
2.72550,-211.8053765
2.72600,-211.5001821
2.72650,-199.9027946
2.72700,-176.0976308
2.72750,-122.9938039
2.72800,-43.33806346
2.72850,32.96053847
2.72900,79.65528285
2.72950,98.57733612
2.73000,113.5318621
2.73050,138.2526091
2.73100,159.0058288
2.73150,144.9668861
2.73200,89.11630949
2.73250,27.16184472
2.73300,7.324208222
2.73350,39.67481544
2.73400,90.03189271
2.73450,125.434444
2.73500,148.0188302
2.73550,171.2136052
2.73600,182.5057982
2.73650,158.7006344
2.73700,102.239669
2.73750,42.42156511
2.73800,-3.05240164
2.73850,-43.03286905
2.73900,-86.06528053
2.73950,-124.2145815
2.74000,-151.9872726
2.74050,-184.3378798
2.74100,-235.3053459
2.74150,-291.7663113
2.74200,-325.948085
2.74250,-328.0844458
2.74300,-308.5520037
2.74350,-274.6754245
2.74400,-220.6560143
2.74450,-146.4937733
2.74500,-67.44842166
2.74550,1.220320068
2.74600,61.64881279
2.74650,115.3630285
2.74700,148.0188302
2.74750,140.9993588
2.74800,98.88253053
2.74850,51.27220293
2.74900,23.80470624
2.74950,15.86965164
2.75000,9.155374668
2.75050,-7.01992894
2.75100,-27.16275985
2.75150,-39.06534175
2.75200,-36.31859208
2.75250,-20.75367729
2.75300,3.051486514
2.75350,29.29820558
2.75400,50.66181412
2.75450,65.31114569
2.75500,82.09683811
2.75550,115.3630285
2.75600,170.6032163
2.75650,234.3888476
2.75700,285.661508
2.75750,316.4861432
2.75800,335.7133909
2.75850,355.8562218
2.75900,375.6938583
2.75950,385.7652738
2.76000,382.7133297
2.76050,369.2847758
2.76100,339.0705294
2.76150,277.7264534
2.76200,184.9473535
2.76250,82.09683811
2.76300,-13.12381709
2.76350,-111.3964164
2.76400,-231.3378186
2.76450,-367.4545244
2.76500,-486.175149
2.76550,-560.3373901
2.76600,-589.0256644
2.76650,-585.6685259
2.76700,-560.9477789
2.76750,-519.7465339
2.76800,-464.5063461
2.76850,-397.058382
2.76900,-325.948085
2.76950,-266.7403699
2.77000,-226.1495137
2.77050,-188.0002127
2.77100,-130.3184697
2.77150,-54.32506213
2.77200,16.78523486
2.77250,65.9215345
2.77300,94.60980882
2.77350,111.0903068
2.77400,119.6357503
2.77450,126.3500272
2.77500,132.7591098
2.77550,126.3500272
2.77600,90.64228152
2.77650,29.90859439
2.77700,-36.31859208
2.77750,-99.18864007
2.77800,-160.8379104
2.77850,-213.9417374
2.77900,-242.6300117
2.77950,-251.1754551
2.78000,-267.9611475
2.78050,-300.9221436
2.78100,-317.4026416
2.78150,-285.9676176
2.78200,-219.7404311
2.78250,-154.7340223
2.78300,-101.9353897
2.78350,-46.08481313
2.78400,14.95406841
2.78450,65.31114569
2.78500,99.18772494
2.78550,131.8435266
2.78600,168.4668555
2.78650,191.3564361
2.78700,187.0837144
2.78750,172.4343828
2.78800,176.7071045
2.78850,209.0577117
2.78900,253.9212896
2.78950,290.5446186
2.79000,308.856283
2.79050,310.0770607
2.79100,300.0056452
2.79150,282.3043696
2.79200,253.6160952
2.79250,208.4473229
2.79300,151.3759687
2.79350,95.83058646
2.79400,48.52545326
2.79450,5.187847368
2.79500,-33.87703682
2.79550,-58.90297825
2.79600,-65.92244963
2.79650,-73.24711541
2.79700,-97.35747362
2.79750,-123.6041927
2.79800,-118.4158878
2.79850,-71.41594896
2.79900,-5.493956901
2.79950,53.40856378
2.80000,102.8500578
2.80050,149.8499966
2.80100,191.3564361
2.80150,217.6031551
2.80200,226.7589874
2.80250,224.0122377
2.80300,210.5836838
2.80350,184.3369647
2.80400,148.0188302
2.80450,107.4279739
2.80500,65.61634009
2.80550,20.75276216
2.80600,-27.77314866
2.80650,-74.16269863
2.80700,-107.1236947
2.80750,-121.4678318
2.80800,-123.2989983
2.80850,-121.4678318
2.80900,-112.617194
2.80950,-83.62372527
2.81000,-28.68873189
2.81050,43.33714833
2.81100,118.4149726
2.81150,187.9992976
2.81200,246.2914295
2.81250,290.849813
2.81300,324.7263922
2.81350,351.8886945
2.81400,355.5510274
2.81450,307.0251166
2.81500,202.9538236
2.81550,83.31761574
2.81600,-8.545900978
2.81650,-69.27958811
2.81700,-119.6366654
2.81750,-161.4482992
2.81800,-173.0456867
2.81850,-151.9872726
2.81900,-124.8249703
2.81950,-113.2275828
2.82000,-105.902917
2.82050,-87.28605817
2.82100,-69.58478252
2.82150,-83.62372527
2.82200,-135.5067746
2.82250,-191.96774
2.82300,-213.3313485
2.82350,-194.7144897
2.82400,-166.3314098
2.82450,-156.2599943
2.82500,-160.8379104
2.82550,-158.0911608
2.82600,-139.1691075
2.82650,-114.7535549
2.82700,-92.16916869
2.82750,-67.14322726
2.82800,-39.06534175
2.82850,-17.09134439
2.82900,1.220320068
2.82950,33.26573288
2.83000,80.57086607
2.83050,113.2266677
2.83100,104.3760299
2.83150,70.80464502
2.83200,54.32414701
2.83250,72.63581147
2.83300,112.0058901
2.83350,155.6486904
2.83400,195.018769
2.83450,216.0771831
2.83500,205.7005732
2.83550,173.349966
2.83600,144.3564973
2.83650,119.9409447
2.83700,71.41503384
2.83750,-20.14328847
2.83800,-140.0846907
2.83850,-264.2988146
2.83900,-383.9350225
2.83950,-491.6686484
2.84000,-568.8828335
2.84050,-600.3178575
2.84100,-598.1814967
2.84150,-583.5321651
2.84200,-556.3698628
2.84250,-499.9088974
2.84300,-410.4869359
2.84350,-308.5520037
2.84400,-218.5196535
2.84450,-148.6301341
2.84500,-92.4743631
2.84550,-43.94845227
2.84600,-0.6108463782
2.84650,37.84364899
2.84700,74.16178351
2.84750,105.9020019
2.84800,124.2136664
2.84850,121.1617223
2.84900,104.9864187
2.84950,97.05136409
2.85000,112.6162789
2.85050,145.8824693
2.85100,183.7265759
2.85150,224.9278209
2.85200,277.7264534
2.85250,343.3432511
2.85300,410.7912152
2.85350,467.557375
2.85400,506.6222592
2.85450,523.7131461
2.85500,517.9144523
2.85550,489.226178
2.85600,429.4080741
2.85650,322.8952258
2.85700,169.0772443
2.85750,-0.3056519705
2.85800,-141.3054683
2.85850,-234.3897627
2.85900,-293.9026722
2.85950,-341.2078054
2.86000,-379.6623007
2.86050,-396.4479932
2.86100,-378.4415231
2.86150,-327.474057
2.86200,-261.2468706
2.86250,-206.922266
2.86300,-179.1495749
2.86350,-171.8249091
2.86400,-171.2145203
2.86450,-174.2664644
2.86500,-184.9482686
2.86550,-201.4287666
2.86600,-216.0780982
2.86650,-226.4547081
2.86700,-235.6105403
2.86750,-234.6949571
2.86800,-203.8703219
2.86850,-132.1496361
2.86900,-30.82509274
2.86950,74.46697792
2.87000,166.3304946
2.87050,238.3563749
2.87100,292.6809794
2.87150,329.3043083
2.87200,346.7003896
2.87250,346.0900008
2.87300,333.2718356
2.87350,315.57056
2.87400,292.9861738
2.87450,258.1940114
2.87500,209.3629061
2.87550,158.39544
2.87600,119.6357503
2.87650,93.38903119
2.87700,65.00595128
2.87750,27.77223354
2.87800,-0.0004575628301
2.87850,7.019013814
2.87900,51.27220293
2.87950,102.5448634
2.88000,129.0967769
2.88050,128.7915825
2.88100,122.9928887
2.88150,120.5513335
2.88200,107.1227795
2.88250,66.22672891
2.88300,2.746292106
2.88350,-60.12375588
2.88400,-103.1561674
2.88450,-123.2989983
2.88500,-138.2535243
2.88550,-169.3833538
2.88600,-220.0456255
2.88650,-262.7728426
2.88700,-270.0975084
2.88750,-245.3767614
2.88800,-212.7209597
2.88850,-177.9287973
2.88900,-124.5197759
2.88950,-48.52636839
2.89000,28.99301117
2.89050,97.96694731
2.89100,175.4863269
2.89150,271.6225653
2.89200,362.5704988
2.89250,418.7262698
2.89300,438.2587119
2.89350,433.3756014
2.89400,404.3821326
2.89450,352.1938889
2.89500,298.1744788
2.89550,259.7199834
2.89600,222.4862657
2.89650,165.4149114
2.89700,102.8500578
2.89750,76.60333877
2.89800,100.713697
2.89850,146.1876637
2.89900,174.2655492
2.89950,168.7720499
2.90000,131.5383322
2.90050,72.94100588
2.90100,3.356680922
2.90150,-75.68867067
2.90200,-172.1301035
2.90250,-282.6104791
2.90300,-382.103856
2.90350,-444.973904
2.90400,-477.0193168
2.90450,-502.655647
2.90500,-527.9867829
2.90550,-534.090671
2.90600,-510.2855072
2.90650,-466.0323181
2.90700,-416.2856297
2.90750,-368.0649133
2.90800,-327.474057
2.90850,-301.5325324
2.90900,-282.6104791
2.90950,-250.2598719
2.91000,-196.8508505
2.91050,-137.6431354
2.91100,-83.01333646
2.91150,-22.27964933
2.91200,54.62934142
2.91250,128.1811937
2.91300,166.9408834
2.91350,167.8564667
2.91400,154.1227183
2.91450,136.4214427
2.91500,99.49291935
2.91550,33.57092728
2.91600,-42.72767464
2.91650,-103.7665562
2.91700,-141.3054683
2.91750,-158.0911608
2.91800,-150.766495
2.91850,-117.1951101
2.91900,-73.55230982
2.91950,-39.98092497
2.92000,-17.09134439
2.92050,9.155374668
2.92100,43.33714833
2.92150,74.46697792
2.92200,93.08383679
2.92250,99.49291935
2.92300,98.27214172
2.92350,99.79811376
2.92400,117.194195
