type,name,time_units,begin_time,frequency,count,units
signal,"Noraxon MyoMotion-Joints-Elbow RT-Flexion","s",0.0000,200,5320,"deg"

time,value
0.0000,1.195211009
0.0050,1.190141904
0.0100,1.185074454
0.0150,1.180008659
0.0200,1.174926381
0.0250,1.169915066
0.0300,1.165056049
0.0350,1.160419948
0.0400,1.156063442
0.0450,1.152027841
0.0500,1.14833864
0.0550,1.145005576
0.0600,1.142024322
0.0650,1.13937991
0.0700,1.137050424
0.0750,1.135009985
0.0800,1.133230058
0.0850,1.131678729
0.0900,1.130319736
0.0950,1.129113091
0.1000,1.128017189
0.1050,1.126991293
0.1100,1.125997666
0.1150,1.12500297
0.1200,1.123978671
0.1250,1.122901382
0.1300,1.121754055
0.1350,1.120526854
0.1400,1.119216362
0.1450,1.117823984
0.1500,1.116355213
0.1550,1.108931372
0.1600,1.101584431
0.1650,1.094420949
0.1700,1.087336117
0.1750,1.080315835
0.1800,1.073298499
0.1850,1.066330331
0.1900,1.059539312
0.1950,1.052698505
0.2000,1.0459035
0.2050,1.039182019
0.2100,1.032393233
0.2150,1.025458538
0.2200,1.018493023
0.2250,1.011465598
0.2300,1.004446396
0.2350,0.9974241436
0.2400,0.9902265779
0.2450,0.9827379224
0.2500,0.9748664495
0.2550,0.9667516906
0.2600,0.9582321508
0.2650,0.9495957629
0.2700,0.9407243703
0.2750,0.9315505645
0.2800,0.922179172
0.2850,0.912849434
0.2900,0.9035913157
0.2950,0.8943346053
0.3000,0.8850754128
0.3050,0.8759448854
0.3100,0.8673015084
0.3150,0.858851124
0.3200,0.8506164209
0.3250,0.8425579315
0.3300,0.8347728406
0.3350,0.8273772738
0.3400,0.8204166283
0.3450,0.813606336
0.3500,0.8072538224
0.3550,0.8009661722
0.3600,0.7949855982
0.3650,0.7891490829
0.3700,0.7837475332
0.3750,0.7786482557
0.3800,0.7736240774
0.3850,0.7685833461
0.3900,0.7634781179
0.3950,0.7583867901
0.4000,0.7533854384
0.4050,0.7484859482
0.4100,0.7435456105
0.4150,0.7388735056
0.4200,0.7342024995
0.4250,0.729535156
0.4300,0.7252658827
0.4350,0.7208099024
0.4400,0.7162596725
0.4450,0.7115870555
0.4500,0.7068616173
0.4550,0.7018049281
0.4600,0.6965824827
0.4650,0.6909349785
0.4700,0.684971833
0.4750,0.6785816536
0.4800,0.6718209223
0.4850,0.6647280475
0.4900,0.6572829778
0.4950,0.6493229726
0.5000,0.6410545662
0.5050,0.6324347528
0.5100,0.623443137
0.5150,0.6143801415
0.5200,0.6048413966
0.5250,0.5950197744
0.5300,0.5850592889
0.5350,0.5747516258
0.5400,0.5642369006
0.5450,0.5537390551
0.5500,0.5430300862
0.5550,0.5321971723
0.5600,0.5212341752
0.5650,0.5099179734
0.5700,0.4986200219
0.5750,0.4872723074
0.5800,0.47588604
0.5850,0.4643749541
0.5900,0.4527993332
0.5950,0.4412852121
0.6000,0.4300260411
0.6050,0.4188755713
0.6100,0.4078186277
0.6150,0.397158764
0.6200,0.3868934239
0.6250,0.3770242111
0.6300,0.3675972736
0.6350,0.3584618287
0.6400,0.3496596359
0.6450,0.3415016584
0.6500,0.3338403399
0.6550,0.3267712445
0.6600,0.3201280241
0.6650,0.314104615
0.6700,0.3085743565
0.6750,0.3035772458
0.6800,0.2992310258
0.6850,0.2954197419
0.6900,0.2921545643
0.6950,0.289638096
0.7000,0.2878677668
0.7050,0.2866498016
0.7100,0.2861184069
0.7150,0.2860963075
0.7200,0.2865775816
0.7250,0.2877388652
0.7300,0.289080701
0.7350,0.2909831884
0.7400,0.2932261436
0.7450,0.295693495
0.7500,0.2983357511
0.7550,0.3011799487
0.7600,0.3041976966
0.7650,0.3072852937
0.7700,0.310248388
0.7750,0.3132710328
0.7800,0.3162489399
0.7850,0.3190634678
0.7900,0.3216713015
0.7950,0.3244689624
0.8000,0.3272819962
0.8050,0.3301489492
0.8100,0.3331849183
0.8150,0.3362935439
0.8200,0.3397839273
0.8250,0.3434338482
0.8300,0.3473279762
0.8350,0.3515327319
0.8400,0.3559724565
0.8450,0.3605196238
0.8500,0.365475156
0.8550,0.3707216214
0.8600,0.3760384448
0.8650,0.3818781988
0.8700,0.3878142447
0.8750,0.3939540626
0.8800,0.4000372455
0.8850,0.4064726349
0.8900,0.4130530785
0.8950,0.4197850257
0.9000,0.4264416159
0.9050,0.4330146005
0.9100,0.4397460541
0.9150,0.4463913215
0.9200,0.4532772056
0.9250,0.4602722265
0.9300,0.4673241769
0.9350,0.474597403
0.9400,0.4821733563
0.9450,0.4900052654
0.9500,0.4978026946
0.9550,0.5057526277
0.9600,0.5138223348
0.9650,0.5218714563
0.9700,0.5297196992
0.9750,0.5374069832
0.9800,0.5449161184
0.9850,0.5522254635
0.9900,0.5593459314
0.9950,0.5660795975
1.0000,0.5723449749
1.0050,0.5782813204
1.0100,0.5838615926
1.0150,0.5890720138
1.0200,0.5940950154
1.0250,0.5987001784
1.0300,0.6032487195
1.0350,0.607405095
1.0400,0.6111891701
1.0450,0.6148377916
1.0500,0.6180890848
1.0550,0.6210941244
1.0600,0.6236469653
1.0650,0.6259656717
1.0700,0.6280366645
1.0750,0.6295367183
1.0800,0.6307555535
1.0850,0.6317612709
1.0900,0.6324686116
1.0950,0.6329222275
1.1000,0.6333252429
1.1050,0.6336052067
1.1100,0.6339605216
1.1150,0.6341959927
1.1200,0.6345613032
1.1250,0.6351594269
1.1300,0.6361613216
1.1350,0.6376484576
1.1400,0.6398260831
1.1450,0.6426152526
1.1500,0.6459709076
1.1550,0.650038135
1.1600,0.6551491579
1.1650,0.6608204561
1.1700,0.6673777708
1.1750,0.6747009294
1.1800,0.6827823958
1.1850,0.6912255272
1.1900,0.7001837977
1.1950,0.709549204
1.2000,0.719252697
1.2050,0.729342862
1.2100,0.7395352163
1.2150,0.749749431
1.2200,0.7597628799
1.2250,0.7697170454
1.2300,0.7792905845
1.2350,0.7887195365
1.2400,0.7977870517
1.2450,0.8063033291
1.2500,0.8144712001
1.2550,0.8221685236
1.2600,0.8293874843
1.2650,0.8360519394
1.2700,0.8422683149
1.2750,0.8480541852
1.2800,0.8535765733
1.2850,0.8585975712
1.2900,0.8633750127
1.2950,0.8678031052
1.3000,0.8720887913
1.3050,0.876121163
1.3100,0.8799676873
1.3150,0.8839777482
1.3200,0.8876987537
1.3250,0.891516812
1.3300,0.8950670994
1.3350,0.8986835445
1.3400,0.9022113264
1.3450,0.9058077472
1.3500,0.9093420733
1.3550,0.9130631004
1.3600,0.9166535043
1.3650,0.9202821259
1.3700,0.924019642
1.3750,0.9278516976
1.3800,0.9318198978
1.3850,0.9356186589
1.3900,0.9395565929
1.3950,0.9434715742
1.4000,0.9473271877
1.4050,0.9511269242
1.4100,0.9547232621
1.4150,0.9584510794
1.4200,0.9621331422
1.4250,0.9657997564
1.4300,0.969265839
1.4350,0.9725616298
1.4400,0.9756278189
1.4450,0.9786226806
1.4500,0.9814912051
1.4550,0.9842059466
1.4600,0.9865666052
1.4650,0.9888007385
1.4700,0.9906205755
1.4750,0.9922242176
1.4800,0.9935888375
1.4850,0.9948567213
1.4900,0.9956502969
1.4950,0.9961147862
1.5000,0.996290028
1.5050,0.996123744
1.5100,0.9956668091
1.5150,0.9949438868
1.5200,0.9940632175
1.5250,0.993101334
1.5300,0.9924373667
1.5350,0.9918170236
1.5400,0.9914902676
1.5450,0.9914878469
1.5500,0.9920570396
1.5550,0.9932181198
1.5600,0.9951739073
1.5650,0.9980147654
1.5700,1.001830927
1.5750,1.006656039
1.5800,1.012443628
1.5850,1.019412356
1.5900,1.027633547
1.5950,1.037121048
1.6000,1.047853489
1.6050,1.059938771
1.6100,1.073406895
1.6150,1.088043121
1.6200,1.104122623
1.6250,1.121459212
1.6300,1.140179421
1.6350,1.159906224
1.6400,1.180724402
1.6450,1.202577699
1.6500,1.22508374
1.6550,1.248184238
1.6600,1.271815666
1.6650,1.295806707
1.6700,1.319854196
1.6750,1.344167605
1.6800,1.368430853
1.6850,1.392705309
1.6900,1.416731428
1.6950,1.440460399
1.7000,1.463616997
1.7050,1.486310189
1.7100,1.508510837
1.7150,1.530144952
1.7200,1.55119975
1.7250,1.571692806
1.7300,1.591583292
1.7350,1.6108117
1.7400,1.629338305
1.7450,1.647123075
1.7500,1.664090604
1.7550,1.680314037
1.7600,1.695714776
1.7650,1.710123089
1.7700,1.723856395
1.7750,1.736639308
1.7800,1.748711448
1.7850,1.759999102
1.7900,1.770980894
1.7950,1.781795731
1.8000,1.792474854
1.8050,1.803207295
1.8100,1.814040275
1.8150,1.825620149
1.8200,1.838165156
1.8250,1.85160881
1.8300,1.86596567
1.8350,1.881570106
1.8400,1.898534326
1.8450,1.916947919
1.8500,1.936930255
1.8550,1.958634708
1.8600,1.981836968
1.8650,2.006893407
1.8700,2.033728891
1.8750,2.062383967
1.8800,2.09299873
1.8850,2.125685934
1.8900,2.160304089
1.8950,2.196781326
1.9000,2.235348577
1.9050,2.276170325
1.9100,2.319058463
1.9150,2.364016445
1.9200,2.410868848
1.9250,2.459766712
1.9300,2.510347367
1.9350,2.562715526
1.9400,2.616714709
1.9450,2.672017952
1.9500,2.728867204
1.9550,2.786695599
1.9600,2.845635324
1.9650,2.905249851
1.9700,2.965677633
1.9750,3.026560499
1.9800,3.087775049
1.9850,3.149194403
1.9900,3.210595681
1.9950,3.271779245
2.0000,3.333107427
2.0050,3.394254462
2.0100,3.455293498
2.0150,3.516358083
2.0200,3.577427251
2.0250,3.638723395
2.0300,3.700370954
2.0350,3.762566684
2.0400,3.82545398
2.0450,3.889099745
2.0500,3.953869666
2.0550,4.019777656
2.0600,4.08707982
2.0650,4.15591423
2.0700,4.226250628
2.0750,4.298278335
2.0800,4.37217074
2.0850,4.447877388
2.0900,4.525565806
2.0950,4.60513142
2.1000,4.686932779
2.1050,4.771056933
2.1100,4.857693517
2.1150,4.946718131
2.1200,5.038121767
2.1250,5.132060418
2.1300,5.228755261
2.1350,5.328292861
2.1400,5.430600559
2.1450,5.535884208
2.1500,5.644124641
2.1550,5.755178617
2.1600,5.869178326
2.1650,5.98601027
2.1700,6.105772435
2.1750,6.228343709
2.1800,6.353354796
2.1850,6.480883037
2.1900,6.610778409
2.1950,6.742958499
2.2000,6.877249682
2.2050,7.013147267
2.2100,7.150572262
2.2150,7.289333688
2.2200,7.429637542
2.2250,7.570956303
2.2300,7.713386223
2.2350,7.856837205
2.2400,8.001056293
2.2450,8.146012414
2.2500,8.291405504
2.2550,8.437188321
2.2600,8.583000992
2.2650,8.728785444
2.2700,8.874347274
2.2750,9.019395093
2.2800,9.163789883
2.2850,9.307424533
2.2900,9.450260565
2.2950,9.59230798
2.3000,9.733101276
2.3050,9.872694593
2.3100,10.01088349
2.3150,10.1477001
2.3200,10.28284809
2.3250,10.41657046
2.3300,10.54861684
2.3350,10.67900448
2.3400,10.80799425
2.3450,10.93577022
2.3500,11.06211648
2.3550,11.18729407
2.3600,11.31130689
2.3650,11.4343527
2.3700,11.55676471
2.3750,11.67876101
2.3800,11.80023092
2.3850,11.92177936
2.3900,12.04333378
2.3950,12.16545067
2.4000,12.28803161
2.4050,12.41141149
2.4100,12.53584455
2.4150,12.66162095
2.4200,12.78891861
2.4250,12.91829954
2.4300,13.04992897
2.4350,13.18372601
2.4400,13.32035947
2.4450,13.45990292
2.4500,13.60272964
2.4550,13.74904
2.4600,13.8990765
2.4650,14.05287703
2.4700,14.21076806
2.4750,14.37268029
2.4800,14.53885068
2.4850,14.70917729
2.4900,14.88347448
2.4950,15.06217794
2.5000,15.24529345
2.5050,15.43270373
2.5100,15.62473993
2.5150,15.82148193
2.5200,16.02253546
2.5250,16.22807173
2.5300,16.43820106
2.5350,16.65278365
2.5400,16.87186666
2.5450,17.09538994
2.5500,17.32337635
2.5550,17.55579618
2.5600,17.79272834
2.5650,18.03418061
2.5700,18.28010377
2.5750,18.53036074
2.5800,18.78499155
2.5850,19.04398205
2.5900,19.30726553
2.5950,19.57470019
2.6000,19.84629693
2.6050,20.12213087
2.6100,20.40183883
2.6150,20.68525237
2.6200,20.97219363
2.6250,21.26253214
2.6300,21.55606799
2.6350,21.85274818
2.6400,22.15241333
2.6450,22.45488163
2.6500,22.76042177
2.6550,23.06864062
2.6600,23.37986016
2.6650,23.6937765
2.6700,24.01033286
2.6750,24.32921485
2.6800,24.650657
2.6850,24.97428406
2.6900,25.30010426
2.6950,25.62755418
2.7000,25.95683763
2.7050,26.28765722
2.7100,26.61951261
2.7150,26.95230982
2.7200,27.28585632
2.7250,27.61975425
2.7300,27.95366198
2.7350,28.28721527
2.7400,28.62006557
2.7450,28.95199207
2.7500,29.28263563
2.7550,29.6118098
2.7600,29.93938365
2.7650,30.26505206
2.7700,30.58884765
2.7750,30.91056893
2.7800,31.23001113
2.7850,31.54702667
2.7900,31.86182561
2.7950,32.17420824
2.8000,32.48392332
2.8050,32.79156529
2.8100,33.09679886
2.8150,33.39953598
2.8200,33.69973876
2.8250,33.99750492
2.8300,34.29256027
2.8350,34.58508397
2.8400,34.87510936
2.8450,35.16267124
2.8500,35.44773745
2.8550,35.73070654
2.8600,36.0118974
2.8650,36.29119821
2.8700,36.56875767
2.8750,36.84486992
2.8800,37.11986266
2.8850,37.39368676
2.8900,37.66670805
2.8950,37.93917758
2.9000,38.2111656
2.9050,38.4829524
2.9100,38.75476093
2.9150,39.0267717
2.9200,39.29959731
2.9250,39.57301419
2.9300,39.84739633
2.9350,40.12288591
2.9400,40.39954545
2.9450,40.67753283
2.9500,40.95661243
2.9550,41.23723868
2.9600,41.51924503
2.9650,41.8026898
2.9700,42.08743702
2.9750,42.37386335
2.9800,42.66199778
2.9850,42.95151134
2.9900,43.24240844
2.9950,43.53463558
3.0000,43.82815967
3.0050,44.1230324
3.0100,44.4195395
3.0150,44.71719329
3.0200,45.01602779
3.0250,45.31612321
3.0300,45.6173451
3.0350,45.91977989
3.0400,46.22328381
3.0450,46.52766891
3.0500,46.83271474
3.0550,47.13835101
3.0600,47.44441834
3.0650,47.75101637
3.0700,48.05748378
3.0750,48.3643036
3.0800,48.67129559
3.0850,48.97851078
3.0900,49.28578473
3.0950,49.59278102
3.1000,49.89981424
3.1050,50.20618714
3.1100,50.51203225
3.1150,50.81738055
3.1200,51.12219741
3.1250,51.42668072
3.1300,51.73068378
3.1350,52.03419284
3.1400,52.33724338
3.1450,52.6398762
3.1500,52.94241909
3.1550,53.2445938
3.1600,53.54623669
3.1650,53.84769749
3.1700,54.1491657
3.1750,54.45071825
3.1800,54.75221195
3.1850,55.05412552
3.1900,55.35651814
3.1950,55.65965448
3.2000,55.96356423
3.2050,56.2683892
3.2100,56.57425839
3.2150,56.8812496
3.2200,57.18940373
3.2250,57.49879023
3.2300,57.80981171
3.2350,58.12255514
3.2400,58.43675406
3.2450,58.75246414
3.2500,59.07022606
3.2550,59.38978167
3.2600,59.71108809
3.2650,60.03463016
3.2700,60.36026438
3.2750,60.68762707
3.2800,61.01647908
3.2850,61.34700733
3.2900,61.67909278
3.2950,62.01298195
3.3000,62.34815549
3.3050,62.68468918
3.3100,63.02224837
3.3150,63.36089043
3.3200,63.70046639
3.3250,64.04083542
3.3300,64.38169785
3.3350,64.72312986
3.3400,65.0651869
3.3450,65.40746101
3.3500,65.74979372
3.3550,66.09197243
3.3600,66.43388596
3.3650,66.77520106
3.3700,67.1163307
3.3750,67.45687378
3.3800,67.79679306
3.3850,68.13584427
3.3900,68.47410699
3.3950,68.81154905
3.4000,69.14803952
3.4050,69.48394288
3.4100,69.81907069
3.4150,70.15339489
3.4200,70.48668411
3.4250,70.81891525
3.4300,71.15024209
3.4350,71.48082319
3.4400,71.81067291
3.4450,72.13981269
3.4500,72.46811088
3.4550,72.79601852
3.4600,73.1236316
3.4650,73.45099201
3.4700,73.77800957
3.4750,74.10507767
3.4800,74.43240731
3.4850,74.75999217
3.4900,75.08785207
3.4950,75.4164182
3.5000,75.74606201
3.5050,76.07690286
3.5100,76.40920311
3.5150,76.74308755
3.5200,77.0788905
3.5250,77.41692373
3.5300,77.75720769
3.5350,78.09990593
3.5400,78.44544023
3.5450,78.79408781
3.5500,79.1456799
3.5550,79.50058637
3.5600,79.85863138
3.5650,80.21978911
3.5700,80.58391907
3.5750,80.95133851
3.5800,81.32155693
3.5850,81.69451737
3.5900,82.06996916
3.5950,82.44772452
3.6000,82.82761495
3.6050,83.20928378
3.6100,83.59271971
3.6150,83.97760235
3.6200,84.36392552
3.6250,84.75151345
3.6300,85.14043332
3.6350,85.53037119
3.6400,85.92074123
3.6450,86.3118506
3.6500,86.70339635
3.6550,87.09511307
3.6600,87.48661504
3.6650,87.87751229
3.6700,88.26726013
3.6750,88.65547661
3.6800,89.04212989
3.6850,89.42696052
3.6900,89.8097361
3.6950,90.19023166
3.7000,90.56820253
3.7050,90.94332135
3.7100,91.315469
3.7150,91.68398829
3.7200,92.04911693
3.7250,92.41063936
3.7300,92.7688315
3.7350,93.12358664
3.7400,93.47480107
3.7450,93.82303522
3.7500,94.16837083
3.7550,94.51093773
3.7600,94.85137694
3.7650,95.19000609
3.7700,95.52725686
3.7750,95.86314869
3.7800,96.19813238
3.7850,96.53245012
3.7900,96.86622208
3.7950,97.19922627
3.8000,97.53137939
3.8050,97.86325956
3.8100,98.1948866
3.8150,98.52679865
3.8200,98.85908825
3.8250,99.19232839
3.8300,99.52705929
3.8350,99.86384354
3.8400,100.2028136
3.8450,100.5444136
3.8500,100.8885335
3.8550,101.2356391
3.8600,101.5860367
3.8650,101.9398776
3.8700,102.2973182
3.8750,102.6585492
3.8800,103.0238563
3.8850,103.3931648
3.8900,103.7666544
3.8950,104.1437854
3.9000,104.5242335
3.9050,104.907489
3.9100,105.29338
3.9150,105.6815851
3.9200,106.071175
3.9250,106.4616422
3.9300,106.8524621
3.9350,107.2431498
3.9400,107.6336447
3.9450,108.0231575
3.9500,108.4114299
3.9550,108.7981197
3.9600,109.1827339
3.9650,109.565178
3.9700,109.9451592
3.9750,110.3223575
3.9800,110.6962149
3.9850,111.066077
3.9900,111.4317621
3.9950,111.7925891
4.0000,112.1483108
4.0050,112.4984527
4.0100,112.8428635
4.0150,113.1816757
4.0200,113.5147262
4.0250,113.8417383
4.0300,114.1627816
4.0350,114.4778324
4.0400,114.7870737
4.0450,115.09017
4.0500,115.3875268
4.0550,115.6792492
4.0600,115.9653819
4.0650,116.2463087
4.0700,116.5224476
4.0750,116.7942635
4.0800,117.0620785
4.0850,117.3264322
4.0900,117.5877836
4.0950,117.8464364
4.1000,118.1031951
4.1050,118.3578243
4.1100,118.6108173
4.1150,118.862743
4.1200,119.1133785
4.1250,119.3630434
4.1300,119.6115263
4.1350,119.8588795
4.1400,120.1054614
4.1450,120.3512685
4.1500,120.5966656
4.1550,120.8409517
4.1600,121.0848416
4.1650,121.3280738
4.1700,121.570775
4.1750,121.8128102
4.1800,122.0543214
4.1850,122.295359
4.1900,122.5359494
4.1950,122.7761392
4.2000,123.0160658
4.2050,123.2559085
4.2100,123.4957135
4.2150,123.7354093
4.2200,123.9752814
4.2250,124.2149092
4.2300,124.4541654
4.2350,124.6928071
4.2400,124.9303745
4.2450,125.1668054
4.2500,125.4015236
4.2550,125.6348198
4.2600,125.8663052
4.2650,126.0960923
4.2700,126.3240428
4.2750,126.5502289
4.2800,126.7745268
4.2850,126.9971254
4.2900,127.2180145
4.2950,127.4372042
4.3000,127.6547846
4.3050,127.8703417
4.3100,128.0840116
4.3150,128.295629
4.3200,128.5051689
4.3250,128.7123616
4.3300,128.9170117
4.3350,129.1190261
4.3400,129.318416
4.3450,129.515289
4.3500,129.7095329
4.3550,129.9012471
4.3600,130.0904467
4.3650,130.2768817
4.3700,130.4604802
4.3750,130.6413344
4.3800,130.8193376
4.3850,130.9944415
4.3900,131.1669122
4.3950,131.3364982
4.4000,131.5033063
4.4050,131.6677339
4.4100,131.8300886
4.4150,131.9903894
4.4200,132.1490558
4.4250,132.3058003
4.4300,132.460891
4.4350,132.6141911
4.4400,132.7660721
4.4450,132.9165357
4.4500,133.0649548
4.4550,133.2115717
4.4600,133.3562719
4.4650,133.498861
4.4700,133.6393343
4.4750,133.7775272
4.4800,133.9133991
4.4850,134.0466961
4.4900,134.1776817
4.4950,134.3064118
4.5000,134.4329643
4.5050,134.5575179
4.5100,134.6800347
4.5150,134.8007054
4.5200,134.9192863
4.5250,135.0360534
4.5300,135.1512954
4.5350,135.2650672
4.5400,135.3772732
4.5450,135.4882463
4.5500,135.598207
4.5550,135.7069465
4.5600,135.8150537
4.5650,135.921865
4.5700,136.0277792
4.5750,136.1325705
4.5800,136.2364518
4.5850,136.3393804
4.5900,136.4411135
4.5950,136.5419496
4.6000,136.6416
4.6050,136.7408838
4.6100,136.8392769
4.6150,136.9368768
4.6200,137.0336056
4.6250,137.1299267
4.6300,137.225736
4.6350,137.3208596
4.6400,137.4150174
4.6450,137.5080648
4.6500,137.6000949
4.6550,137.6907444
4.6600,137.7797692
4.6650,137.867341
4.6700,137.9536164
4.6750,138.0384783
4.6800,138.1224161
4.6850,138.2053192
4.6900,138.2873212
4.6950,138.3691159
4.7000,138.4505102
4.7050,138.531815
4.7100,138.613069
4.7150,138.6940247
4.7200,138.7750133
4.7250,138.8558922
4.7300,138.9368017
4.7350,139.0180489
4.7400,139.0992173
4.7450,139.1800072
4.7500,139.2607533
4.7550,139.3415646
4.7600,139.4220742
4.7650,139.5022145
4.7700,139.5818712
4.7750,139.661215
4.7800,139.7400887
4.7850,139.8188381
4.7900,139.8974597
4.7950,139.9761827
4.8000,140.0549979
4.8050,140.1341622
4.8100,140.2138133
4.8150,140.2942563
4.8200,140.3761859
4.8250,140.4594584
4.8300,140.5444465
4.8350,140.6310805
4.8400,140.7195183
4.8450,140.8094395
4.8500,140.9006959
4.8550,140.9927538
4.8600,141.0851642
4.8650,141.1776345
4.8700,141.269352
4.8750,141.3598488
4.8800,141.4480596
4.8850,141.5335208
4.8900,141.6155117
4.8950,141.6930866
4.9000,141.7660431
4.9050,141.8334008
4.9100,141.8947811
4.9150,141.9496286
4.9200,141.9976226
4.9250,142.0381173
4.9300,142.0709621
4.9350,142.0961579
4.9400,142.1134629
4.9450,142.1230274
4.9500,142.1246468
4.9550,142.1185031
4.9600,142.1051289
4.9650,142.0841857
4.9700,142.0557364
4.9750,142.0198741
4.9800,141.9765064
4.9850,141.9257142
4.9900,141.8676484
4.9950,141.8022921
5.0000,141.7300407
5.0050,141.651081
5.0100,141.5656243
5.0150,141.4738088
5.0200,141.3762766
5.0250,141.2734253
5.0300,141.1655342
5.0350,141.0529108
5.0400,140.9358416
5.0450,140.8146837
5.0500,140.689913
5.0550,140.5614597
5.0600,140.4295511
5.0650,140.294681
5.0700,140.1568067
5.0750,140.0161329
5.0800,139.8730074
5.0850,139.7275234
5.0900,139.5795005
5.0950,139.4290559
5.1000,139.2764273
5.1050,139.1218398
5.1100,138.9652706
5.1150,138.8065416
5.1200,138.6455838
5.1250,138.4825839
5.1300,138.3172103
5.1350,138.1497161
5.1400,137.9800539
5.1450,137.808501
5.1500,137.6349025
5.1550,137.4595493
5.1600,137.282265
5.1650,137.1032584
5.1700,136.9221034
5.1750,136.738897
5.1800,136.5537536
