type,name,time_units,begin_time,frequency,count,units
signal,"Noraxon Ultium-RT BICEPS BR.","s",0.00000,2000,61720,"uV"

time,value
0.00000,12.20350572
0.00050,14.33986658
0.00100,14.95025539
0.00150,13.42428335
0.00200,10.67753368
0.00250,6.710006383
0.00300,2.132090267
0.00350,-2.445825848
0.00400,-6.413353148
0.00450,-9.465297225
0.00500,-11.60165808
0.00550,-13.73801893
0.00600,-14.95879656
0.00650,-14.04321334
0.00700,-10.99126926
0.00750,-8.244519594
0.00800,-6.413353148
0.00850,-5.802964333
0.00900,-5.802964333
0.00950,-5.802964333
0.01000,-6.413353148
0.01050,-6.10815874
0.01100,-3.361409071
0.01150,1.216507044
0.01200,6.099617568
0.01250,9.456756052
0.01300,11.59311691
0.01350,11.89831131
0.01400,10.06714487
0.01450,7.320395198
0.01500,7.015200791
0.01550,9.456756052
0.01600,10.98272809
0.01650,10.06714487
0.01700,8.846367237
0.01750,8.541172829
0.01800,7.625589606
0.01850,4.878839937
0.01900,2.437284675
0.01950,1.82689586
0.02000,1.216507044
0.02050,-0.004270586415
0.02100,-0.6146594018
0.02150,-1.225048217
0.02200,-2.751020256
0.02250,-4.582186702
0.02300,-3.666603479
0.02350,0.3009238213
0.02400,4.268451121
0.02450,6.404811975
0.02500,8.846367237
0.02550,11.89831131
0.02600,11.89831131
0.02650,9.151561645
0.02700,8.235978422
0.02750,10.37233928
0.02800,11.2879225
0.02850,8.235978422
0.02900,8.235978422
0.02950,15.56064421
0.03000,23.1905044
0.03050,21.66453236
0.03100,12.50870013
0.03150,3.963256714
0.03200,-0.3094649941
0.03250,-3.971797887
0.03300,-7.939325187
0.03350,-10.38088045
0.03400,-12.21204689
0.03450,-15.87437979
0.03500,-18.92632386
0.03550,-18.31593505
0.03600,-14.65360216
0.03650,-12.82243571
0.03700,-12.5172413
0.03750,-10.68607486
0.03800,-6.718547556
0.03850,-4.88738111
0.03900,-6.10815874
0.03950,-7.328936371
0.04000,-7.023741964
0.04050,-6.10815874
0.04100,-5.192575517
0.04150,-3.361409071
0.04200,-1.835437033
0.04250,-1.835437033
0.04300,-1.835437033
0.04350,-0.004270586415
0.04400,3.047673491
0.04450,3.047673491
0.04500,-0.3094649941
0.04550,-2.751020256
0.04600,-1.225048217
0.04650,0.3009238213
0.04700,-1.225048217
0.04750,-5.192575517
0.04800,-7.634130779
0.04850,-8.244519594
0.04900,-9.160102817
0.04950,-11.60165808
0.05000,-13.73801893
0.05050,-14.04321334
0.05100,-12.21204689
0.05150,-9.770491633
0.05200,-7.328936371
0.05250,-4.582186702
0.05300,-1.835437033
0.05350,-0.3094649941
0.05400,-0.004270586415
0.05450,0.3009238213
0.05500,2.437284675
0.05550,6.099617568
0.05600,8.846367237
0.05650,9.456756052
0.05700,8.846367237
0.05750,8.846367237
0.05800,8.541172829
0.05850,7.625589606
0.05900,6.710006383
0.05950,8.541172829
0.06000,12.20350572
0.06050,14.64506098
0.06100,14.95025539
0.06150,15.2554498
0.06200,18.00219947
0.06250,20.74894914
0.06300,20.74894914
0.06350,18.61258828
0.06400,17.08661624
0.06450,16.47622743
0.06500,14.64506098
0.06550,10.06714487
0.06600,4.878839937
0.06650,1.216507044
0.06700,-2.14063144
0.06750,-7.634130779
0.06800,-14.34840775
0.06850,-20.4522959
0.06900,-24.4198232
0.06950,-25.03021202
0.07000,-23.50423998
0.07050,-20.75749031
0.07100,-18.62112946
0.07150,-16.17957419
0.07200,-12.82243571
0.07250,-8.85490841
0.07300,-6.718547556
0.07350,-7.634130779
0.07400,-8.85490841
0.07450,-7.328936371
0.07500,-3.361409071
0.07550,-0.9198538095
0.07600,-1.225048217
0.07650,-1.835437033
0.07700,-0.004270586415
0.07750,3.047673491
0.07800,5.489228752
0.07850,5.79442316
0.07900,4.878839937
0.07950,3.963256714
0.08000,3.047673491
0.08050,3.047673491
0.08100,4.268451121
0.08150,5.489228752
0.08200,5.79442316
0.08250,5.184034345
0.08300,5.184034345
0.08350,6.710006383
0.08400,9.151561645
0.08450,11.59311691
0.08500,14.03467217
0.08550,17.69700506
0.08600,22.88530999
0.08650,26.85283729
0.08700,27.76842051
0.08750,25.02167085
0.08800,21.96972677
0.08850,20.13856032
0.08900,17.69700506
0.08950,12.20350572
0.09000,5.79442316
0.09050,0.606118229
0.09100,-2.751020256
0.09150,-7.634130779
0.09200,-12.21204689
0.09250,-14.34840775
0.09300,-14.95879656
0.09350,-17.40035183
0.09400,-20.75749031
0.09450,-19.53671268
0.09500,-13.12763012
0.09550,-7.634130779
0.09600,-6.10815874
0.09650,-4.582186702
0.09700,-0.004270586415
0.09750,2.742479083
0.09800,0.606118229
0.09850,-0.9198538095
0.09900,3.352867898
0.09950,9.76195046
0.10000,7.930784014
0.10050,-1.835437033
0.10100,-10.07568604
0.10150,-10.99126926
0.10200,-10.99126926
0.10250,-15.87437979
0.10300,-22.28346235
0.10350,-24.4198232
0.10400,-23.19904557
0.10450,-22.58865676
0.10500,-21.97826794
0.10550,-19.84190709
0.10600,-16.4847686
0.10650,-14.95879656
0.10700,-14.34840775
0.10750,-12.21204689
0.10800,-8.549714002
0.10850,-5.497769925
0.10900,-3.971797887
0.10950,-1.530242625
0.11000,1.82689586
0.11050,5.489228752
0.11100,7.930784014
0.11150,10.37233928
0.11200,11.59311691
0.11250,11.2879225
0.11300,9.456756052
0.11350,8.846367237
0.11400,9.151561645
0.11450,8.846367237
0.11500,6.710006383
0.11550,4.878839937
0.11600,3.658062306
0.11650,3.658062306
0.11700,4.878839937
0.11750,7.625589606
0.11800,10.98272809
0.11850,12.20350572
0.11900,10.67753368
0.11950,7.625589606
0.12000,4.878839937
0.12050,3.352867898
0.12100,2.742479083
0.12150,3.047673491
0.12200,3.658062306
0.12250,3.352867898
0.12300,2.437284675
0.12350,1.521701452
0.12400,-0.004270586415
0.12450,-2.445825848
0.12500,-4.582186702
0.12550,-5.192575517
0.12600,-4.276992294
0.12650,-3.666603479
0.12700,-4.276992294
0.12750,-5.192575517
0.12800,-5.802964333
0.12850,-6.10815874
0.12900,-5.802964333
0.12950,-4.88738111
0.13000,-3.666603479
0.13050,-3.056214663
0.13100,-3.056214663
0.13150,-3.056214663
0.13200,-1.530242625
0.13250,-0.004270586415
0.13300,1.521701452
0.13350,1.82689586
0.13400,1.521701452
0.13450,0.9113126367
0.13500,0.606118229
0.13550,1.216507044
0.13600,3.047673491
0.13650,4.878839937
0.13700,5.184034345
0.13750,4.573645529
0.13800,3.963256714
0.13850,4.268451121
0.13900,4.878839937
0.13950,5.79442316
0.14000,7.015200791
0.14050,7.930784014
0.14100,7.930784014
0.14150,6.710006383
0.14200,8.235978422
0.14250,13.72947776
0.14300,20.44375473
0.14350,24.10608762
0.14400,23.80089321
0.14450,20.74894914
0.14500,17.39181065
0.14550,14.03467217
0.14600,10.98272809
0.14650,9.151561645
0.14700,7.930784014
0.14750,5.79442316
0.14800,3.352867898
0.14850,0.606118229
0.14900,-2.445825848
0.14950,-6.718547556
0.15000,-10.07568604
0.15050,-10.99126926
0.15100,-10.68607486
0.15150,-12.21204689
0.15200,-15.56918538
0.15250,-18.01074064
0.15300,-17.40035183
0.15350,-17.70554623
0.15400,-20.14710149
0.15450,-21.97826794
0.15500,-19.84190709
0.15550,-16.4847686
0.15600,-14.04321334
0.15650,-12.21204689
0.15700,-8.244519594
0.15750,-3.361409071
0.15800,-3.056214663
0.15850,-7.328936371
0.15900,-10.38088045
0.15950,-7.939325187
0.16000,-2.445825848
0.16050,1.521701452
0.16100,4.268451121
0.16150,7.625589606
0.16200,10.06714487
0.16250,10.67753368
0.16300,10.67753368
0.16350,10.98272809
0.16400,10.98272809
0.16450,10.37233928
0.16500,11.89831131
0.16550,16.78142184
0.16600,21.66453236
0.16650,23.1905044
0.16700,23.49569881
0.16750,24.71647644
0.16800,24.41128203
0.16850,19.83336591
0.16900,15.56064421
0.16950,17.08661624
0.17000,21.05414354
0.17050,17.08661624
0.17100,4.573645529
0.17150,-7.023741964
0.17200,-12.82243571
0.17250,-16.4847686
0.17300,-21.97826794
0.17350,-26.86137846
0.17400,-28.69254491
0.17450,-30.52371136
0.17500,-33.57565543
0.17550,-33.57565543
0.17600,-28.08215609
0.17650,-23.19904557
0.17700,-23.80943439
0.17750,-26.25098965
0.17800,-23.80943439
0.17850,-17.70554623
0.17900,-12.5172413
0.17950,-9.160102817
0.18000,-4.88738111
0.18050,-0.004270586415
0.18100,1.82689586
0.18150,1.521701452
0.18200,2.132090267
0.18250,4.573645529
0.18300,6.710006383
0.18350,7.320395198
0.18400,7.320395198
0.18450,6.710006383
0.18500,4.878839937
0.18550,2.437284675
0.18600,2.132090267
0.18650,3.658062306
0.18700,3.963256714
0.18750,2.742479083
0.18800,1.82689586
0.18850,1.521701452
0.18900,0.606118229
0.18950,-0.004270586415
0.19000,-0.004270586415
0.19050,1.216507044
0.19100,1.82689586
0.19150,1.82689586
0.19200,2.742479083
0.19250,4.268451121
0.19300,4.268451121
0.19350,3.352867898
0.19400,4.573645529
0.19450,9.456756052
0.19500,13.42428335
0.19550,12.81389454
0.19600,8.541172829
0.19650,5.489228752
0.19700,5.79442316
0.19750,7.015200791
0.19800,6.404811975
0.19850,4.268451121
0.19900,4.268451121
0.19950,7.015200791
0.20000,10.06714487
0.20050,10.67753368
0.20100,8.541172829
0.20150,6.099617568
0.20200,4.878839937
0.20250,3.963256714
0.20300,1.82689586
0.20350,0.3009238213
0.20400,0.3009238213
0.20450,1.216507044
0.20500,0.9113126367
0.20550,-0.3094649941
0.20600,-1.835437033
0.20650,-2.445825848
0.20700,-3.056214663
0.20750,-3.971797887
0.20800,-5.802964333
0.20850,-7.939325187
0.20900,-9.160102817
0.20950,-7.939325187
0.21000,-6.413353148
0.21050,-7.023741964
0.21100,-8.85490841
0.21150,-8.244519594
0.21200,-5.192575517
0.21250,-3.666603479
0.21300,-6.718547556
0.21350,-10.99126926
0.21400,-11.90685249
0.21450,-9.160102817
0.21500,-7.634130779
0.21550,-8.244519594
0.21600,-8.549714002
0.21650,-7.634130779
0.21700,-6.10815874
0.21750,-4.582186702
0.21800,-1.225048217
0.21850,3.047673491
0.21900,4.878839937
0.21950,3.352867898
0.22000,2.132090267
0.22050,3.352867898
0.22100,4.878839937
0.22150,3.352867898
0.22200,1.521701452
0.22250,3.658062306
0.22300,8.846367237
0.22350,12.81389454
0.22400,12.20350572
0.22450,9.76195046
0.22500,7.930784014
0.22550,7.015200791
0.22600,6.710006383
0.22650,7.625589606
0.22700,9.456756052
0.22750,10.06714487
0.22800,8.541172829
0.22850,5.79442316
0.22900,3.658062306
0.22950,1.82689586
0.23000,-0.004270586415
0.23050,-0.6146594018
0.23100,-0.004270586415
0.23150,-0.3094649941
0.23200,-2.445825848
0.23250,-5.802964333
0.23300,-7.634130779
0.23350,-8.244519594
0.23400,-9.160102817
0.23450,-10.99126926
0.23500,-11.90685249
0.23550,-10.68607486
0.23600,-8.549714002
0.23650,-6.413353148
0.23700,-4.88738111
0.23750,-3.971797887
0.23800,-3.971797887
0.23850,-2.445825848
0.23900,-0.004270586415
0.23950,0.9113126367
0.24000,0.606118229
0.24050,1.521701452
0.24100,6.404811975
0.24150,11.2879225
0.24200,12.50870013
0.24250,10.67753368
0.24300,9.456756052
0.24350,10.37233928
0.24400,11.89831131
0.24450,13.11908894
0.24500,13.72947776
0.24550,13.11908894
0.24600,11.89831131
0.24650,11.89831131
0.24700,12.20350572
0.24750,10.98272809
0.24800,7.320395198
0.24850,4.268451121
0.24900,4.268451121
0.24950,4.878839937
0.25000,3.658062306
0.25050,1.521701452
0.25100,0.3009238213
0.25150,-0.9198538095
0.25200,-3.666603479
0.25250,-5.497769925
0.25300,-6.413353148
0.25350,-8.549714002
0.25400,-10.99126926
0.25450,-7.634130779
0.25500,3.352867898
0.25550,13.72947776
0.25600,13.72947776
0.25650,6.404811975
0.25700,1.216507044
0.25750,-0.004270586415
0.25800,-2.751020256
0.25850,-9.160102817
0.25900,-14.34840775
0.25950,-16.78996301
0.26000,-20.4522959
0.26050,-27.16657287
0.26100,-31.13410017
0.26150,-28.3873505
0.26200,-23.19904557
0.26250,-21.67307353
0.26300,-22.28346235
0.26350,-20.14710149
0.26400,-14.65360216
0.26450,-10.38088045
0.26500,-9.465297225
0.26550,-9.160102817
0.26600,-5.802964333
0.26650,-0.6146594018
0.26700,3.047673491
0.26750,3.963256714
0.26800,3.963256714
0.26850,3.963256714
0.26900,3.658062306
0.26950,2.437284675
0.27000,0.3009238213
0.27050,-0.9198538095
0.27100,-1.530242625
0.27150,-0.3094649941
0.27200,0.9113126367
0.27250,1.521701452
0.27300,1.216507044
0.27350,0.9113126367
0.27400,1.521701452
0.27450,2.132090267
0.27500,1.82689586
0.27550,0.3009238213
0.27600,0.3009238213
0.27650,2.132090267
0.27700,3.963256714
0.27750,3.658062306
0.27800,2.132090267
0.27850,1.82689586
0.27900,3.352867898
0.27950,4.573645529
0.28000,3.963256714
0.28050,2.437284675
0.28100,1.521701452
0.28150,2.132090267
0.28200,2.742479083
0.28250,3.352867898
0.28300,4.268451121
0.28350,4.878839937
0.28400,4.268451121
0.28450,2.742479083
0.28500,1.521701452
0.28550,1.216507044
0.28600,0.9113126367
0.28650,0.3009238213
0.28700,-0.004270586415
0.28750,-0.004270586415
0.28800,-0.004270586415
0.28850,-0.6146594018
0.28900,-1.225048217
0.28950,-1.225048217
0.29000,-1.225048217
0.29050,-1.225048217
0.29100,-1.225048217
0.29150,-0.6146594018
0.29200,0.3009238213
0.29250,0.9113126367
0.29300,0.606118229
0.29350,-0.3094649941
0.29400,-1.225048217
0.29450,-0.6146594018
0.29500,0.606118229
0.29550,1.521701452
0.29600,1.216507044
0.29650,0.9113126367
0.29700,1.216507044
0.29750,2.132090267
0.29800,2.437284675
0.29850,1.216507044
0.29900,-0.3094649941
0.29950,-0.9198538095
0.30000,-0.3094649941
0.30050,0.9113126367
0.30100,2.132090267
0.30150,2.437284675
0.30200,1.82689586
0.30250,2.132090267
0.30300,2.437284675
0.30350,2.132090267
0.30400,0.9113126367
0.30450,0.606118229
0.30500,1.216507044
0.30550,2.132090267
0.30600,2.742479083
0.30650,4.573645529
0.30700,7.930784014
0.30750,10.37233928
0.30800,10.37233928
0.30850,8.541172829
0.30900,6.710006383
0.30950,6.099617568
0.31000,5.489228752
0.31050,6.099617568
0.31100,7.930784014
0.31150,9.76195046
0.31200,8.846367237
0.31250,5.184034345
0.31300,2.132090267
0.31350,2.437284675
0.31400,4.573645529
0.31450,4.573645529
0.31500,2.132090267
0.31550,-0.3094649941
0.31600,-1.225048217
0.31650,-1.225048217
0.31700,-2.14063144
0.31750,-3.361409071
0.31800,-3.666603479
0.31850,-3.666603479
0.31900,-3.971797887
0.31950,-4.88738111
0.32000,-5.802964333
0.32050,-7.023741964
0.32100,-7.634130779
0.32150,-7.939325187
0.32200,-7.939325187
0.32250,-8.85490841
0.32300,-10.07568604
0.32350,-10.68607486
0.32400,-9.770491633
0.32450,-8.549714002
0.32500,-7.939325187
0.32550,-7.634130779
0.32600,-7.328936371
0.32650,-7.634130779
0.32700,-7.634130779
0.32750,-6.413353148
0.32800,-3.971797887
0.32850,-1.835437033
0.32900,-0.3094649941
0.32950,-0.004270586415
0.33000,0.3009238213
0.33050,0.3009238213
0.33100,-0.004270586415
0.33150,0.606118229
0.33200,2.132090267
0.33250,2.742479083
0.33300,2.742479083
0.33350,4.268451121
0.33400,8.235978422
0.33450,13.42428335
0.33500,17.69700506
0.33550,21.05414354
0.33600,24.10608762
0.33650,25.93725407
0.33700,25.32686525
0.33750,21.96972677
0.33800,17.69700506
0.33850,14.03467217
0.33900,10.98272809
0.33950,7.320395198
0.34000,3.963256714
0.34050,0.606118229
0.34100,-2.445825848
0.34150,-6.718547556
0.34200,-11.60165808
0.34250,-15.26399097
0.34300,-15.87437979
0.34350,-14.65360216
0.34400,-13.73801893
0.34450,-14.65360216
0.34500,-15.87437979
0.34550,-15.56918538
0.34600,-14.04321334
0.34650,-11.60165808
0.34700,-8.85490841
0.34750,-4.88738111
0.34800,-1.225048217
0.34850,-0.9198538095
0.34900,-3.056214663
0.34950,-5.802964333
0.35000,-6.718547556
0.35050,-6.413353148
0.35100,-6.413353148
0.35150,-7.328936371
0.35200,-8.244519594
0.35250,-7.634130779
0.35300,-6.10815874
0.35350,-3.971797887
0.35400,-2.751020256
0.35450,-2.445825848
0.35500,-2.751020256
0.35550,-2.751020256
0.35600,-4.276992294
0.35650,-7.023741964
0.35700,-8.244519594
0.35750,-6.413353148
0.35800,-2.751020256
0.35850,-1.225048217
0.35900,-2.14063144
0.35950,-3.666603479
0.36000,-3.361409071
0.36050,-2.14063144
0.36100,-2.14063144
0.36150,-2.751020256
0.36200,-2.751020256
0.36250,-1.530242625
0.36300,-0.004270586415
0.36350,1.82689586
0.36400,3.658062306
0.36450,5.489228752
0.36500,5.489228752
0.36550,4.573645529
0.36600,3.352867898
0.36650,2.742479083
0.36700,3.047673491
0.36750,3.352867898
0.36800,3.658062306
0.36850,3.963256714
0.36900,3.352867898
0.36950,2.437284675
0.37000,1.82689586
0.37050,2.132090267
0.37100,3.352867898
0.37150,4.268451121
0.37200,3.658062306
0.37250,2.437284675
0.37300,2.437284675
0.37350,3.352867898
0.37400,3.963256714
0.37450,3.047673491
0.37500,1.82689586
0.37550,2.132090267
0.37600,3.047673491
0.37650,3.658062306
0.37700,3.047673491
0.37750,2.132090267
0.37800,1.216507044
0.37850,0.9113126367
0.37900,1.216507044
0.37950,1.82689586
0.38000,2.437284675
0.38050,2.132090267
0.38100,1.216507044
0.38150,0.9113126367
0.38200,0.9113126367
0.38250,0.606118229
0.38300,0.606118229
0.38350,1.521701452
0.38400,1.82689586
0.38450,0.9113126367
0.38500,-0.6146594018
0.38550,-0.9198538095
0.38600,-0.004270586415
0.38650,1.216507044
0.38700,1.521701452
0.38750,2.132090267
0.38800,3.352867898
0.38850,3.963256714
0.38900,2.437284675
0.38950,1.216507044
0.39000,1.82689586
0.39050,3.658062306
0.39100,4.573645529
0.39150,4.573645529
0.39200,5.489228752
0.39250,6.404811975
0.39300,6.099617568
0.39350,4.573645529
0.39400,4.268451121
0.39450,5.79442316
0.39500,6.404811975
0.39550,4.573645529
0.39600,1.521701452
0.39650,0.606118229
0.39700,2.132090267
0.39750,3.352867898
0.39800,1.82689586
0.39850,-1.225048217
0.39900,-2.14063144
0.39950,-0.004270586415
0.40000,2.742479083
0.40050,2.742479083
0.40100,0.9113126367
0.40150,1.216507044
0.40200,4.878839937
0.40250,6.404811975
0.40300,3.352867898
0.40350,-0.3094649941
0.40400,-0.6146594018
0.40450,1.82689586
0.40500,3.352867898
0.40550,1.82689586
0.40600,-0.004270586415
0.40650,-1.835437033
0.40700,-3.666603479
0.40750,-5.192575517
0.40800,-5.802964333
0.40850,-5.802964333
0.40900,-6.413353148
0.40950,-7.939325187
0.41000,-8.549714002
0.41050,-7.634130779
0.41100,-6.718547556
0.41150,-7.328936371
0.41200,-8.85490841
0.41250,-10.38088045
0.41300,-11.29646367
0.41350,-10.99126926
0.41400,-9.770491633
0.41450,-8.549714002
0.41500,-8.549714002
0.41550,-8.549714002
0.41600,-7.634130779
0.41650,-4.88738111
0.41700,-2.445825848
0.41750,-0.3094649941
0.41800,0.9113126367
0.41850,2.437284675
0.41900,3.047673491
0.41950,2.132090267
0.42000,1.216507044
0.42050,1.521701452
0.42100,3.352867898
0.42150,5.489228752
0.42200,6.099617568
0.42250,5.184034345
0.42300,3.963256714
0.42350,3.658062306
0.42400,3.352867898
0.42450,2.437284675
0.42500,1.82689586
0.42550,2.132090267
0.42600,2.437284675
0.42650,2.132090267
0.42700,1.82689586
0.42750,1.521701452
0.42800,1.216507044
0.42850,0.9113126367
0.42900,0.606118229
0.42950,0.3009238213
0.43000,-0.004270586415
0.43050,-0.004270586415
0.43100,-0.004270586415
0.43150,0.9113126367
0.43200,2.132090267
0.43250,2.132090267
0.43300,1.521701452
0.43350,1.216507044
0.43400,1.82689586
0.43450,2.437284675
0.43500,2.437284675
0.43550,1.82689586
0.43600,1.82689586
0.43650,1.82689586
0.43700,1.521701452
0.43750,0.9113126367
0.43800,0.606118229
0.43850,0.606118229
0.43900,1.216507044
0.43950,1.82689586
0.44000,2.437284675
0.44050,2.132090267
0.44100,1.521701452
0.44150,2.132090267
0.44200,3.352867898
0.44250,4.268451121
0.44300,2.742479083
0.44350,-0.004270586415
0.44400,-0.6146594018
0.44450,0.3009238213
0.44500,2.437284675
0.44550,3.047673491
0.44600,1.82689586
0.44650,0.606118229
0.44700,-0.004270586415
0.44750,-0.004270586415
0.44800,-0.004270586415
0.44850,0.3009238213
0.44900,0.3009238213
0.44950,-0.6146594018
0.45000,-2.445825848
0.45050,-2.751020256
0.45100,-0.6146594018
0.45150,0.606118229
0.45200,0.3009238213
0.45250,-0.9198538095
0.45300,-1.530242625
0.45350,-1.225048217
0.45400,-0.004270586415
0.45450,4.268451121
0.45500,10.67753368
0.45550,16.47622743
0.45600,19.2229771
0.45650,20.44375473
0.45700,21.05414354
0.45750,21.05414354
0.45800,18.91778269
0.45850,16.78142184
0.45900,17.39181065
0.45950,18.30739388
0.46000,16.47622743
0.46050,12.20350572
0.46100,9.76195046
0.46150,9.456756052
0.46200,8.235978422
0.46250,3.658062306
0.46300,-0.004270586415
0.46350,-0.9198538095
0.46400,-0.6146594018
0.46450,-1.835437033
0.46500,-4.88738111
0.46550,-7.328936371
0.46600,-9.465297225
0.46650,-13.43282453
0.46700,-19.23151827
0.46750,-24.11462879
0.46800,-27.47176728
0.46850,-31.43929458
0.46900,-37.54318273
0.46950,-42.12109885
0.47000,-42.12109885
0.47050,-38.45876596
0.47100,-35.10162747
0.47150,-33.57565543
0.47200,-31.43929458
0.47250,-26.86137846
0.47300,-21.06268472
0.47350,-17.09515742
0.47400,-14.65360216
0.47450,-12.5172413
0.47500,-10.07568604
0.47550,-6.718547556
0.47600,-3.971797887
0.47650,-2.14063144
0.47700,-1.530242625
0.47750,-0.9198538095
0.47800,1.216507044
0.47850,5.184034345
0.47900,7.930784014
0.47950,6.710006383
0.48000,4.268451121
0.48050,3.658062306
0.48100,5.489228752
0.48150,7.320395198
0.48200,6.710006383
0.48250,5.184034345
0.48300,4.878839937
0.48350,5.489228752
0.48400,5.79442316
0.48450,5.184034345
0.48500,4.878839937
0.48550,5.489228752
0.48600,6.710006383
0.48650,6.710006383
0.48700,5.79442316
0.48750,5.184034345
0.48800,5.489228752
0.48850,5.489228752
0.48900,5.184034345
0.48950,5.79442316
0.49000,6.404811975
0.49050,6.404811975
0.49100,5.184034345
0.49150,3.963256714
0.49200,3.963256714
0.49250,4.573645529
0.49300,4.268451121
0.49350,3.352867898
0.49400,3.047673491
0.49450,3.352867898
0.49500,3.658062306
0.49550,3.658062306
0.49600,3.658062306
0.49650,4.573645529
0.49700,5.489228752
0.49750,5.79442316
0.49800,4.878839937
0.49850,2.742479083
0.49900,0.9113126367
0.49950,0.9113126367
0.50000,2.437284675
0.50050,3.658062306
0.50100,3.658062306
0.50150,2.742479083
0.50200,2.742479083
0.50250,2.437284675
0.50300,0.606118229
0.50350,-0.6146594018
0.50400,-0.004270586415
0.50450,1.82689586
0.50500,2.742479083
0.50550,1.82689586
0.50600,0.9113126367
0.50650,1.521701452
0.50700,1.82689586
0.50750,1.216507044
0.50800,0.9113126367
0.50850,1.521701452
0.50900,0.9113126367
0.50950,-0.3094649941
0.51000,2.132090267
0.51050,12.20350572
0.51100,24.71647644
0.51150,31.43075341
0.51200,28.68400374
0.51250,21.66453236
0.51300,15.56064421
0.51350,10.98272809
0.51400,8.235978422
0.51450,8.541172829
0.51500,11.59311691
0.51550,11.89831131
0.51600,6.404811975
0.51650,-1.225048217
0.51700,-6.413353148
0.51750,-8.244519594
0.51800,-9.160102817
0.51850,-10.68607486
0.51900,-11.29646367
0.51950,-10.07568604
0.52000,-9.465297225
0.52050,-9.770491633
0.52100,-10.07568604
0.52150,-9.770491633
0.52200,-10.38088045
0.52250,-12.5172413
0.52300,-13.73801893
0.52350,-13.43282453
0.52400,-13.12763012
0.52450,-14.04321334
0.52500,-15.56918538
0.52550,-15.26399097
0.52600,-14.04321334
0.52650,-13.73801893
0.52700,-14.04321334
0.52750,-13.12763012
0.52800,-10.68607486
0.52850,-6.718547556
0.52900,-3.361409071
0.52950,-1.835437033
0.53000,-2.751020256
0.53050,-4.276992294
0.53100,-4.276992294
0.53150,-2.14063144
0.53200,-0.3094649941
0.53250,-0.3094649941
0.53300,-0.6146594018
0.53350,-0.3094649941
0.53400,-0.004270586415
0.53450,-0.004270586415
0.53500,-0.004270586415
0.53550,-0.004270586415
0.53600,0.3009238213
0.53650,-0.004270586415
0.53700,0.3009238213
0.53750,2.437284675
0.53800,4.573645529
0.53850,4.268451121
0.53900,2.132090267
0.53950,1.216507044
0.54000,1.521701452
0.54050,2.437284675
0.54100,3.352867898
0.54150,3.658062306
0.54200,3.047673491
0.54250,0.3009238213
0.54300,-1.530242625
0.54350,-1.225048217
0.54400,0.606118229
0.54450,2.132090267
0.54500,1.82689586
0.54550,1.521701452
0.54600,3.047673491
0.54650,4.268451121
0.54700,3.658062306
0.54750,1.82689586
0.54800,1.216507044
0.54850,1.216507044
0.54900,1.216507044
0.54950,0.9113126367
0.55000,1.216507044
0.55050,2.132090267
0.55100,2.437284675
0.55150,1.82689586
0.55200,1.216507044
0.55250,0.606118229
0.55300,-0.004270586415
0.55350,-0.3094649941
0.55400,-0.6146594018
0.55450,-0.6146594018
0.55500,-0.004270586415
0.55550,0.606118229
0.55600,1.216507044
0.55650,0.606118229
0.55700,-0.004270586415
0.55750,-0.3094649941
0.55800,-0.004270586415
0.55850,0.3009238213
0.55900,0.606118229
0.55950,1.216507044
0.56000,2.437284675
0.56050,3.047673491
0.56100,1.82689586
0.56150,-0.004270586415
0.56200,-0.004270586415
0.56250,1.521701452
0.56300,2.742479083
0.56350,1.216507044
0.56400,-0.3094649941
0.56450,-0.3094649941
0.56500,1.216507044
0.56550,1.521701452
0.56600,0.3009238213
0.56650,-0.004270586415
0.56700,1.216507044
0.56750,2.132090267
0.56800,0.9113126367
0.56850,-0.004270586415
0.56900,0.9113126367
0.56950,3.047673491
0.57000,2.742479083
0.57050,-0.004270586415
0.57100,-0.6146594018
0.57150,0.9113126367
0.57200,2.132090267
0.57250,0.606118229
0.57300,-0.3094649941
0.57350,1.521701452
0.57400,4.573645529
0.57450,5.184034345
0.57500,3.047673491
0.57550,3.047673491
0.57600,5.489228752
0.57650,7.320395198
0.57700,6.404811975
0.57750,4.573645529
0.57800,5.184034345
0.57850,6.710006383
0.57900,7.015200791
0.57950,5.79442316
0.58000,3.963256714
0.58050,1.82689586
0.58100,-0.3094649941
0.58150,-2.14063144
0.58200,-1.530242625
0.58250,0.3009238213
0.58300,0.9113126367
0.58350,-0.3094649941
0.58400,-3.361409071
0.58450,-7.023741964
0.58500,-10.38088045
0.58550,-10.38088045
0.58600,-6.413353148
0.58650,-2.14063144
0.58700,-2.14063144
0.58750,-5.497769925
0.58800,-7.634130779
0.58850,-6.718547556
0.58900,-5.192575517
0.58950,-5.497769925
0.59000,-6.413353148
0.59050,-6.10815874
0.59100,-5.497769925
0.59150,-5.802964333
0.59200,-5.497769925
0.59250,-2.751020256
0.59300,-0.004270586415
0.59350,1.82689586
0.59400,2.742479083
0.59450,5.184034345
0.59500,8.541172829
0.59550,10.37233928
0.59600,10.06714487
0.59650,9.151561645
0.59700,8.541172829
0.59750,7.015200791
0.59800,3.658062306
0.59850,0.606118229
0.59900,-0.3094649941
0.59950,-0.3094649941
0.60000,-0.3094649941
0.60050,-0.9198538095
0.60100,-2.445825848
0.60150,-5.192575517
0.60200,-8.244519594
0.60250,-8.244519594
0.60300,-4.582186702
0.60350,-0.3094649941
0.60400,-0.004270586415
0.60450,-3.056214663
0.60500,-5.802964333
0.60550,-5.802964333
0.60600,-4.276992294
0.60650,-3.971797887
0.60700,-5.802964333
0.60750,-8.549714002
0.60800,-11.29646367
0.60850,-12.21204689
0.60900,-11.90685249
0.60950,-10.99126926
0.61000,-10.68607486
0.61050,-9.770491633
0.61100,-8.244519594
0.61150,-7.023741964
0.61200,-6.413353148
0.61250,-5.497769925
0.61300,-3.361409071
0.61350,-0.9198538095
0.61400,-0.004270586415
0.61450,0.3009238213
0.61500,1.216507044
0.61550,2.437284675
0.61600,2.742479083
0.61650,1.521701452
0.61700,0.606118229
0.61750,1.216507044
0.61800,2.132090267
0.61850,2.437284675
0.61900,2.132090267
0.61950,2.437284675
0.62000,4.573645529
0.62050,8.541172829
0.62100,14.33986658
0.62150,18.91778269
0.62200,19.83336591
0.62250,16.78142184
0.62300,12.50870013
0.62350,9.76195046
0.62400,7.930784014
0.62450,6.099617568
0.62500,3.963256714
0.62550,2.132090267
0.62600,2.132090267
0.62650,3.352867898
0.62700,3.963256714
0.62750,2.132090267
0.62800,-0.004270586415
0.62850,-0.3094649941
0.62900,-0.004270586415
0.62950,0.606118229
0.63000,0.606118229
0.63050,0.9113126367
0.63100,0.606118229
0.63150,-0.9198538095
0.63200,-3.971797887
0.63250,-5.497769925
0.63300,-5.497769925
0.63350,-6.10815874
0.63400,-8.549714002
0.63450,-10.68607486
0.63500,-10.07568604
0.63550,-9.160102817
0.63600,-9.770491633
0.63650,-10.68607486
0.63700,-9.160102817
0.63750,-6.718547556
0.63800,-6.413353148
0.63850,-5.802964333
0.63900,-3.056214663
0.63950,0.606118229
0.64000,1.216507044
0.64050,-0.9198538095
0.64100,-1.835437033
0.64150,-0.6146594018
0.64200,-0.6146594018
0.64250,-2.751020256
0.64300,-3.056214663
0.64350,0.3009238213
0.64400,3.963256714
0.64450,4.268451121
0.64500,3.352867898
0.64550,4.268451121
0.64600,5.489228752
0.64650,4.268451121
0.64700,1.521701452
0.64750,1.216507044
0.64800,3.352867898
0.64850,6.099617568
0.64900,7.930784014
0.64950,9.151561645
0.65000,10.37233928
0.65050,10.98272809
0.65100,10.67753368
0.65150,10.37233928
0.65200,10.37233928
0.65250,10.06714487
0.65300,9.151561645
0.65350,8.846367237
0.65400,7.930784014
0.65450,6.404811975
0.65500,3.963256714
0.65550,2.132090267
0.65600,1.82689586
0.65650,1.521701452
0.65700,0.9113126367
0.65750,-0.004270586415
0.65800,-1.530242625
0.65850,-3.361409071
0.65900,-5.192575517
0.65950,-6.10815874
0.66000,-6.718547556
0.66050,-7.328936371
0.66100,-8.244519594
0.66150,-8.549714002
0.66200,-8.85490841
0.66250,-10.99126926
0.66300,-13.43282453
0.66350,-14.04321334
0.66400,-11.90685249
0.66450,-8.85490841
0.66500,-7.023741964
0.66550,-7.023741964
0.66600,-6.718547556
0.66650,-5.497769925
0.66700,-3.971797887
0.66750,-3.361409071
0.66800,-3.666603479
0.66850,-4.88738111
0.66900,-6.413353148
0.66950,-6.718547556
0.67000,-6.10815874
0.67050,-4.276992294
0.67100,-1.530242625
0.67150,0.3009238213
0.67200,1.82689586
0.67250,3.352867898
0.67300,5.184034345
0.67350,7.320395198
0.67400,7.930784014
0.67450,6.099617568
0.67500,4.573645529
0.67550,5.79442316
0.67600,8.235978422
0.67650,8.846367237
0.67700,7.015200791
0.67750,5.184034345
0.67800,4.268451121
0.67850,3.352867898
0.67900,1.521701452
0.67950,-0.004270586415
0.68000,-0.004270586415
0.68050,-0.3094649941
0.68100,-1.835437033
0.68150,-2.751020256
0.68200,-1.835437033
0.68250,-1.225048217
0.68300,-1.530242625
0.68350,-1.225048217
0.68400,2.437284675
0.68450,7.930784014
0.68500,10.67753368
0.68550,9.456756052
0.68600,6.710006383
0.68650,5.184034345
0.68700,3.352867898
0.68750,0.9113126367
0.68800,-0.004270586415
0.68850,-0.004270586415
0.68900,-0.004270586415
0.68950,-2.14063144
0.69000,-6.10815874
0.69050,-7.939325187
0.69100,-7.023741964
0.69150,-5.497769925
0.69200,-4.582186702
0.69250,-3.056214663
0.69300,-0.004270586415
0.69350,3.352867898
0.69400,4.878839937
0.69450,3.352867898
0.69500,0.606118229
0.69550,-0.004270586415
0.69600,0.9113126367
0.69650,3.352867898
0.69700,5.184034345
0.69750,6.099617568
0.69800,7.015200791
0.69850,6.710006383
0.69900,5.184034345
0.69950,2.742479083
0.70000,1.216507044
0.70050,-0.004270586415
0.70100,-1.530242625
0.70150,-2.445825848
0.70200,-2.14063144
0.70250,-1.530242625
0.70300,-2.14063144
0.70350,-4.582186702
0.70400,-7.023741964
0.70450,-7.328936371
0.70500,-5.192575517
0.70550,-1.530242625
0.70600,2.132090267
0.70650,3.352867898
0.70700,0.606118229
0.70750,-3.361409071
0.70800,-5.192575517
0.70850,-3.056214663
0.70900,-1.225048217
0.70950,-2.751020256
0.71000,-6.10815874
0.71050,-7.023741964
0.71100,-5.802964333
0.71150,-4.276992294
0.71200,-4.276992294
0.71250,-4.276992294
0.71300,-3.971797887
0.71350,-3.361409071
0.71400,-1.835437033
0.71450,0.9113126367
0.71500,4.268451121
0.71550,6.710006383
0.71600,7.320395198
0.71650,7.930784014
0.71700,8.541172829
0.71750,8.541172829
0.71800,8.541172829
0.71850,8.846367237
0.71900,9.456756052
0.71950,8.846367237
0.72000,6.710006383
0.72050,4.573645529
0.72100,1.82689586
0.72150,-0.6146594018
0.72200,-3.361409071
0.72250,-4.582186702
0.72300,-4.88738111
0.72350,-4.88738111
0.72400,-5.192575517
0.72450,-5.192575517
0.72500,-4.582186702
0.72550,-4.276992294
0.72600,-3.971797887
0.72650,-3.056214663
0.72700,-2.14063144
0.72750,-2.14063144
0.72800,-2.445825848
0.72850,-1.225048217
0.72900,0.3009238213
0.72950,-0.004270586415
0.73000,-1.530242625
0.73050,-1.530242625
0.73100,0.606118229
0.73150,1.521701452
0.73200,-0.004270586415
0.73250,-0.3094649941
0.73300,3.352867898
0.73350,9.456756052
0.73400,12.50870013
0.73450,12.81389454
0.73500,13.72947776
0.73550,16.17103302
0.73600,18.30739388
0.73650,18.61258828
0.73700,17.39181065
0.73750,14.95025539
0.73800,11.2879225
0.73850,7.320395198
0.73900,4.268451121
0.73950,1.216507044
0.74000,-2.751020256
0.74050,-8.244519594
0.74100,-12.21204689
0.74150,-13.12763012
0.74200,-13.12763012
0.74250,-13.43282453
0.74300,-13.73801893
0.74350,-12.5172413
0.74400,-11.60165808
0.74450,-11.29646367
0.74500,-10.99126926
0.74550,-9.465297225
0.74600,-7.634130779
0.74650,-7.634130779
0.74700,-8.85490841
0.74750,-8.85490841
0.74800,-6.413353148
0.74850,-4.88738111
0.74900,-5.497769925
0.74950,-7.634130779
0.75000,-8.549714002
0.75050,-8.244519594
0.75100,-7.328936371
0.75150,-6.10815874
0.75200,-3.666603479
0.75250,-0.6146594018
0.75300,1.521701452
0.75350,3.352867898
0.75400,4.878839937
0.75450,6.099617568
0.75500,6.404811975
0.75550,5.79442316
0.75600,5.489228752
0.75650,5.184034345
0.75700,5.184034345
0.75750,5.489228752
0.75800,7.015200791
0.75850,7.320395198
0.75900,5.489228752
0.75950,3.658062306
0.76000,3.352867898
0.76050,3.963256714
0.76100,3.047673491
0.76150,1.82689586
0.76200,1.82689586
0.76250,2.742479083
0.76300,2.437284675
0.76350,0.606118229
0.76400,-0.6146594018
0.76450,-1.225048217
0.76500,-2.445825848
0.76550,-3.666603479
0.76600,-3.666603479
0.76650,-3.056214663
0.76700,-2.751020256
0.76750,-3.361409071
0.76800,-3.666603479
0.76850,-3.361409071
0.76900,-3.361409071
0.76950,-3.971797887
0.77000,-3.971797887
0.77050,-3.056214663
0.77100,-1.835437033
0.77150,-1.835437033
0.77200,-1.225048217
0.77250,-0.004270586415
0.77300,0.3009238213
0.77350,0.3009238213
0.77400,0.606118229
0.77450,2.132090267
0.77500,3.658062306
0.77550,3.047673491
0.77600,0.606118229
0.77650,-0.9198538095
0.77700,-0.9198538095
0.77750,-0.3094649941
0.77800,-0.004270586415
0.77850,1.216507044
0.77900,2.742479083
0.77950,3.352867898
0.78000,2.437284675
0.78050,2.132090267
0.78100,2.742479083
0.78150,3.352867898
0.78200,2.132090267
0.78250,0.606118229
0.78300,0.606118229
0.78350,0.9113126367
0.78400,0.3009238213
0.78450,-0.3094649941
0.78500,0.3009238213
0.78550,1.82689586
0.78600,1.521701452
0.78650,-0.004270586415
0.78700,-0.3094649941
0.78750,1.521701452
0.78800,3.047673491
0.78850,1.82689586
0.78900,0.3009238213
0.78950,0.606118229
0.79000,1.521701452
0.79050,1.521701452
0.79100,1.216507044
0.79150,2.437284675
0.79200,3.352867898
0.79250,1.82689586
0.79300,-0.3094649941
0.79350,-1.225048217
0.79400,-0.004270586415
0.79450,0.606118229
0.79500,-0.004270586415
0.79550,-0.004270586415
0.79600,0.3009238213
0.79650,0.9113126367
0.79700,0.3009238213
0.79750,-0.6146594018
0.79800,-0.9198538095
0.79850,-0.6146594018
0.79900,-0.004270586415
0.79950,0.606118229
0.80000,0.9113126367
0.80050,0.3009238213
0.80100,-0.3094649941
0.80150,-0.9198538095
0.80200,-0.6146594018
0.80250,-0.3094649941
0.80300,-0.6146594018
0.80350,-0.6146594018
0.80400,-0.6146594018
0.80450,-0.3094649941
0.80500,-0.3094649941
0.80550,-0.004270586415
0.80600,-0.004270586415
0.80650,0.3009238213
0.80700,-0.004270586415
0.80750,-0.004270586415
0.80800,-0.004270586415
0.80850,-0.3094649941
0.80900,-1.225048217
0.80950,-1.530242625
0.81000,-0.3094649941
0.81050,0.3009238213
0.81100,-0.004270586415
0.81150,-0.004270586415
0.81200,-0.004270586415
0.81250,1.216507044
0.81300,1.521701452
0.81350,1.521701452
0.81400,2.437284675
0.81450,3.352867898
0.81500,2.742479083
0.81550,0.3009238213
0.81600,-1.225048217
0.81650,-1.835437033
0.81700,-2.14063144
0.81750,-2.445825848
0.81800,-1.530242625
0.81850,0.9113126367
0.81900,3.352867898
0.81950,4.878839937
0.82000,5.79442316
0.82050,7.625589606
0.82100,8.235978422
0.82150,7.320395198
0.82200,5.489228752
0.82250,3.352867898
0.82300,1.521701452
0.82350,-0.004270586415
0.82400,-0.3094649941
0.82450,-0.9198538095
0.82500,-2.751020256
0.82550,-5.192575517
0.82600,-5.497769925
0.82650,-3.971797887
0.82700,-3.971797887
0.82750,-6.413353148
0.82800,-8.549714002
0.82850,-7.328936371
0.82900,-3.971797887
0.82950,-2.14063144
0.83000,-2.445825848
0.83050,-2.751020256
0.83100,-2.14063144
0.83150,-2.445825848
0.83200,-3.666603479
0.83250,-4.582186702
0.83300,-4.276992294
0.83350,-3.971797887
0.83400,-4.88738111
0.83450,-6.718547556
0.83500,-8.244519594
0.83550,-7.939325187
0.83600,-6.718547556
0.83650,-5.802964333
0.83700,-5.497769925
0.83750,-4.582186702
0.83800,-2.445825848
0.83850,-0.6146594018
0.83900,-0.6146594018
0.83950,-0.9198538095
0.84000,-0.3094649941
0.84050,1.216507044
0.84100,2.437284675
0.84150,2.437284675
0.84200,2.437284675
0.84250,2.437284675
0.84300,1.521701452
0.84350,0.606118229
0.84400,0.9113126367
0.84450,2.437284675
0.84500,3.352867898
0.84550,3.352867898
0.84600,4.268451121
0.84650,6.710006383
0.84700,8.846367237
0.84750,10.06714487
0.84800,11.89831131
0.84850,15.56064421
0.84900,19.52817151
0.84950,21.66453236
0.85000,20.13856032
0.85050,15.86583861
0.85100,11.89831131
0.85150,10.98272809
0.85200,11.59311691
0.85250,10.37233928
0.85300,5.489228752
0.85350,2.132090267
0.85400,4.573645529
0.85450,8.541172829
0.85500,7.015200791
0.85550,-0.6146594018
0.85600,-7.634130779
0.85650,-9.465297225
0.85700,-8.85490841
0.85750,-11.60165808
0.85800,-16.4847686
0.85850,-19.23151827
0.85900,-19.84190709
0.85950,-20.4522959
0.86000,-22.28346235
0.86050,-23.50423998
0.86100,-22.58865676
0.86150,-20.4522959
0.86200,-18.01074064
0.86250,-15.87437979
0.86300,-13.43282453
0.86350,-10.38088045
0.86400,-7.023741964
0.86450,-3.666603479
0.86500,-0.9198538095
0.86550,1.216507044
0.86600,2.742479083
0.86650,2.437284675
0.86700,2.132090267
0.86750,3.963256714
0.86800,8.541172829
0.86850,11.89831131
0.86900,11.2879225
0.86950,8.235978422
0.87000,8.235978422
0.87050,11.59311691
0.87100,14.64506098
0.87150,14.33986658
0.87200,12.20350572
0.87250,10.06714487
0.87300,7.320395198
0.87350,3.352867898
0.87400,-0.004270586415
0.87450,-0.3094649941
0.87500,-0.6146594018
0.87550,-3.361409071
0.87600,-8.549714002
0.87650,-10.99126926
0.87700,-8.85490841
0.87750,-4.88738111
0.87800,-4.582186702
0.87850,-7.634130779
0.87900,-9.465297225
0.87950,-7.939325187
0.88000,-4.88738111
0.88050,-4.276992294
0.88100,-5.802964333
0.88150,-7.023741964
0.88200,-7.328936371
0.88250,-7.328936371
0.88300,-7.023741964
0.88350,-5.802964333
0.88400,-4.582186702
0.88450,-3.971797887
0.88500,-3.666603479
0.88550,-2.14063144
0.88600,-0.9198538095
0.88650,-1.530242625
0.88700,-3.361409071
0.88750,-3.971797887
0.88800,-2.445825848
0.88850,-1.225048217
0.88900,-1.225048217
0.88950,-1.835437033
0.89000,-0.9198538095
0.89050,0.3009238213
0.89100,2.132090267
0.89150,3.963256714
0.89200,5.184034345
0.89250,5.489228752
0.89300,4.268451121
0.89350,3.352867898
0.89400,2.742479083
0.89450,2.742479083
0.89500,2.742479083
0.89550,3.658062306
0.89600,5.489228752
0.89650,6.099617568
0.89700,4.573645529
0.89750,2.132090267
0.89800,0.9113126367
0.89850,1.216507044
0.89900,1.82689586
0.89950,2.132090267
0.90000,2.437284675
0.90050,3.047673491
0.90100,3.047673491
0.90150,2.437284675
0.90200,1.82689586
0.90250,1.521701452
0.90300,1.82689586
0.90350,2.132090267
0.90400,3.047673491
0.90450,3.658062306
0.90500,3.963256714
0.90550,4.268451121
0.90600,4.573645529
0.90650,3.963256714
0.90700,2.437284675
0.90750,1.521701452
0.90800,2.132090267
0.90850,3.047673491
0.90900,3.352867898
0.90950,2.742479083
0.91000,2.742479083
0.91050,2.742479083
0.91100,1.82689586
0.91150,0.606118229
0.91200,0.3009238213
0.91250,0.9113126367
0.91300,0.9113126367
0.91350,0.3009238213
0.91400,0.3009238213
0.91450,0.9113126367
0.91500,-0.004270586415
0.91550,-0.9198538095
0.91600,-0.9198538095
0.91650,0.606118229
0.91700,0.9113126367
0.91750,-0.004270586415
0.91800,-0.9198538095
0.91850,-0.004270586415
0.91900,1.216507044
0.91950,0.9113126367
0.92000,0.3009238213
0.92050,-0.004270586415
0.92100,-0.3094649941
0.92150,-0.3094649941
0.92200,0.3009238213
0.92250,1.521701452
0.92300,1.216507044
0.92350,-0.6146594018
0.92400,-1.225048217
0.92450,0.3009238213
0.92500,2.132090267
0.92550,1.216507044
0.92600,-0.3094649941
0.92650,-0.6146594018
0.92700,-0.004270586415
0.92750,-0.004270586415
0.92800,-0.6146594018
0.92850,-0.6146594018
0.92900,-0.004270586415
0.92950,0.9113126367
0.93000,1.216507044
0.93050,0.3009238213
0.93100,-0.3094649941
0.93150,-0.9198538095
0.93200,-0.004270586415
0.93250,0.9113126367
0.93300,0.9113126367
0.93350,-0.004270586415
0.93400,-0.004270586415
0.93450,-0.004270586415
0.93500,-0.004270586415
0.93550,-0.3094649941
0.93600,-0.3094649941
0.93650,0.3009238213
0.93700,0.9113126367
0.93750,0.606118229
0.93800,-0.004270586415
0.93850,-0.6146594018
0.93900,-0.9198538095
0.93950,-1.225048217
0.94000,-0.6146594018
0.94050,-0.004270586415
0.94100,0.3009238213
0.94150,0.9113126367
0.94200,0.606118229
0.94250,-0.3094649941
0.94300,-0.6146594018
0.94350,2.742479083
0.94400,11.2879225
0.94450,19.2229771
0.94500,22.27492118
0.94550,22.27492118
0.94600,22.88530999
0.94650,23.49569881
0.94700,20.44375473
0.94750,14.03467217
0.94800,7.320395198
0.94850,3.658062306
0.94900,1.82689586
0.94950,-0.6146594018
0.95000,-6.413353148
0.95050,-12.5172413
0.95100,-14.65360216
0.95150,-11.29646367
0.95200,-7.328936371
0.95250,-8.549714002
0.95300,-11.90685249
0.95350,-10.99126926
0.95400,-4.88738111
0.95450,-0.6146594018
0.95500,-0.004270586415
0.95550,3.963256714
0.95600,12.81389454
0.95650,17.08661624
0.95700,10.67753368
0.95750,0.9113126367
0.95800,1.216507044
0.95850,10.37233928
0.95900,14.95025539
0.95950,8.541172829
0.96000,-0.9198538095
0.96050,-6.413353148
0.96100,-7.328936371
0.96150,-6.718547556
0.96200,-5.802964333
0.96250,-5.802964333
0.96300,-8.549714002
0.96350,-13.12763012
0.96400,-16.4847686
0.96450,-18.62112946
0.96500,-21.36787913
0.96550,-24.4198232
0.96600,-25.03021202
0.96650,-21.97826794
0.96700,-17.40035183
0.96750,-13.43282453
0.96800,-9.770491633
0.96850,-7.328936371
0.96900,-8.244519594
0.96950,-10.99126926
0.97000,-13.12763012
0.97050,-14.34840775
0.97100,-17.70554623
0.97150,-22.89385116
0.97200,-25.64060083
0.97250,-22.58865676
0.97300,-16.78996301
0.97350,-12.82243571
0.97400,-10.99126926
0.97450,-9.465297225
0.97500,-7.023741964
0.97550,-3.971797887
0.97600,-1.530242625
0.97650,0.606118229
0.97700,2.437284675
0.97750,3.047673491
0.97800,2.742479083
0.97850,2.742479083
0.97900,3.658062306
0.97950,4.878839937
0.98000,6.099617568
0.98050,6.710006383
0.98100,7.320395198
0.98150,7.320395198
0.98200,7.015200791
0.98250,7.015200791
0.98300,6.404811975
0.98350,6.710006383
0.98400,7.625589606
0.98450,8.541172829
0.98500,7.930784014
0.98550,6.099617568
0.98600,5.184034345
0.98650,6.099617568
0.98700,7.320395198
0.98750,7.320395198
0.98800,6.404811975
0.98850,5.79442316
0.98900,5.489228752
0.98950,5.184034345
0.99000,5.184034345
0.99050,5.489228752
0.99100,5.489228752
0.99150,4.878839937
0.99200,4.268451121
0.99250,4.268451121
0.99300,4.268451121
0.99350,3.963256714
0.99400,3.352867898
0.99450,3.658062306
0.99500,4.268451121
0.99550,3.963256714
0.99600,3.658062306
0.99650,3.658062306
0.99700,4.573645529
0.99750,4.573645529
0.99800,3.658062306
0.99850,2.742479083
0.99900,3.047673491
0.99950,3.963256714
1.00000,3.963256714
1.00050,2.742479083
1.00100,2.132090267
1.00150,2.437284675
1.00200,2.742479083
1.00250,3.047673491
1.00300,2.742479083
1.00350,2.437284675
1.00400,1.521701452
1.00450,0.3009238213
1.00500,-0.3094649941
1.00550,-0.004270586415
1.00600,1.521701452
1.00650,2.742479083
1.00700,2.742479083
1.00750,2.437284675
1.00800,2.742479083
1.00850,3.047673491
1.00900,2.742479083
1.00950,2.132090267
1.01000,2.132090267
1.01050,2.742479083
1.01100,3.658062306
1.01150,3.658062306
1.01200,2.132090267
1.01250,0.3009238213
1.01300,0.3009238213
1.01350,0.9113126367
1.01400,0.3009238213
1.01450,-1.835437033
1.01500,-3.056214663
1.01550,-0.004270586415
1.01600,4.878839937
1.01650,7.015200791
1.01700,4.573645529
1.01750,2.132090267
1.01800,2.742479083
1.01850,3.963256714
1.01900,2.742479083
1.01950,0.606118229
1.02000,0.3009238213
1.02050,0.9113126367
1.02100,-0.004270586415
1.02150,-1.530242625
1.02200,-2.751020256
1.02250,-3.361409071
1.02300,-4.582186702
1.02350,-5.802964333
1.02400,-4.88738111
1.02450,-3.361409071
1.02500,-3.971797887
1.02550,-6.413353148
1.02600,-6.718547556
1.02650,-3.971797887
1.02700,-1.530242625
1.02750,-1.530242625
1.02800,-2.445825848
1.02850,-1.530242625
1.02900,-0.004270586415
1.02950,0.606118229
1.03000,1.216507044
1.03050,1.82689586
1.03100,1.216507044
1.03150,-0.004270586415
1.03200,-0.3094649941
1.03250,-0.004270586415
1.03300,0.3009238213
1.03350,-0.004270586415
1.03400,-0.3094649941
1.03450,-0.004270586415
1.03500,-0.004270586415
1.03550,-0.3094649941
1.03600,-0.004270586415
1.03650,-0.004270586415
1.03700,0.3009238213
1.03750,2.437284675
1.03800,7.930784014
1.03850,12.81389454
1.03900,11.89831131
1.03950,7.625589606
1.04000,10.06714487
1.04050,21.35933795
1.04100,31.125559
1.04150,29.29439255
1.04200,20.13856032
1.04250,12.81389454
1.04300,9.76195046
1.04350,6.404811975
1.04400,2.132090267
1.04450,-0.004270586415
1.04500,0.9113126367
1.04550,-0.004270586415
1.04600,-2.445825848
1.04650,-3.971797887
1.04700,-3.666603479
1.04750,-4.582186702
1.04800,-7.939325187
1.04850,-10.68607486
1.04900,-11.90685249
1.04950,-13.12763012
1.05000,-15.26399097
1.05050,-16.78996301
1.05100,-17.70554623
1.05150,-19.53671268
1.05200,-21.36787913
1.05250,-20.4522959
1.05300,-17.09515742
1.05350,-14.34840775
1.05400,-11.60165808
1.05450,-6.10815874
1.05500,-0.004270586415
1.05550,2.437284675
1.05600,4.878839937
1.05650,14.95025539
1.05700,30.20997578
1.05750,37.53464156
1.05800,30.82036459
1.05850,18.91778269
1.05900,11.2879225
1.05950,7.015200791
1.06000,0.3009238213
1.06050,-7.939325187
1.06100,-12.82243571
1.06150,-15.56918538
1.06200,-20.75749031
1.06250,-25.64060083
1.06300,-25.33540643
1.06350,-20.14710149
1.06400,-15.26399097
1.06450,-13.12763012
1.06500,-10.68607486
1.06550,-7.634130779
1.06600,-5.497769925
1.06650,-5.192575517
1.06700,-4.582186702
1.06750,-3.361409071
1.06800,-3.971797887
1.06850,-5.802964333
1.06900,-7.328936371
1.06950,-7.634130779
1.07000,-8.85490841
1.07050,-11.29646367
1.07100,-13.73801893
1.07150,-15.26399097
1.07200,-16.4847686
1.07250,-16.4847686
1.07300,-14.95879656
1.07350,-11.60165808
1.07400,-8.549714002
1.07450,-6.718547556
1.07500,-5.802964333
1.07550,-5.497769925
1.07600,-4.582186702
1.07650,-2.445825848
1.07700,0.9113126367
1.07750,3.047673491
1.07800,1.521701452
1.07850,-0.9198538095
1.07900,-1.530242625
1.07950,0.606118229
1.08000,1.82689586
1.08050,1.216507044
1.08100,0.9113126367
1.08150,3.047673491
1.08200,5.184034345
1.08250,4.878839937
1.08300,3.352867898
1.08350,2.742479083
1.08400,3.658062306
1.08450,4.573645529
1.08500,4.878839937
1.08550,5.79442316
1.08600,7.015200791
1.08650,7.625589606
1.08700,7.015200791
1.08750,6.099617568
1.08800,5.489228752
1.08850,5.184034345
1.08900,5.184034345
1.08950,5.184034345
1.09000,4.878839937
1.09050,4.268451121
1.09100,3.658062306
1.09150,3.658062306
1.09200,3.963256714
1.09250,3.963256714
1.09300,3.352867898
1.09350,3.963256714
1.09400,4.573645529
1.09450,4.268451121
1.09500,3.352867898
1.09550,2.742479083
1.09600,3.658062306
1.09650,4.573645529
1.09700,4.573645529
1.09750,4.268451121
1.09800,3.963256714
1.09850,3.963256714
1.09900,3.963256714
1.09950,3.658062306
1.10000,3.352867898
1.10050,2.742479083
1.10100,2.132090267
1.10150,2.132090267
1.10200,2.742479083
1.10250,3.352867898
1.10300,3.047673491
1.10350,2.437284675
1.10400,1.521701452
1.10450,0.9113126367
1.10500,1.216507044
1.10550,2.132090267
1.10600,3.047673491
1.10650,2.742479083
1.10700,1.216507044
1.10750,-0.004270586415
1.10800,-0.3094649941
1.10850,0.3009238213
1.10900,1.216507044
1.10950,0.9113126367
1.11000,0.3009238213
1.11050,0.3009238213
1.11100,0.9113126367
1.11150,1.521701452
1.11200,1.521701452
1.11250,0.9113126367
1.11300,-0.004270586415
1.11350,-0.3094649941
1.11400,-0.3094649941
1.11450,0.3009238213
1.11500,1.521701452
1.11550,1.82689586
1.11600,0.606118229
1.11650,-0.3094649941
1.11700,0.3009238213
1.11750,1.521701452
1.11800,1.82689586
1.11850,0.9113126367
1.11900,-0.004270586415
1.11950,-0.004270586415
1.12000,0.3009238213
1.12050,1.216507044
1.12100,1.82689586
1.12150,1.521701452
1.12200,0.3009238213
1.12250,-0.3094649941
1.12300,-0.3094649941
1.12350,0.3009238213
1.12400,0.3009238213
1.12450,-0.3094649941
1.12500,-0.6146594018
1.12550,-0.004270586415
1.12600,0.9113126367
1.12650,0.9113126367
1.12700,0.606118229
1.12750,0.9113126367
1.12800,0.9113126367
1.12850,-0.004270586415
1.12900,-0.3094649941
1.12950,-0.6146594018
1.13000,-0.3094649941
1.13050,-0.6146594018
1.13100,-0.6146594018
1.13150,-0.004270586415
1.13200,0.3009238213
1.13250,-0.004270586415
1.13300,-0.9198538095
1.13350,-0.004270586415
1.13400,1.216507044
1.13450,1.216507044
1.13500,-0.6146594018
1.13550,-1.225048217
1.13600,0.3009238213
1.13650,1.82689586
1.13700,1.216507044
1.13750,0.3009238213
1.13800,1.216507044
1.13850,2.132090267
1.13900,0.606118229
1.13950,-1.225048217
1.14000,-0.3094649941
1.14050,2.437284675
1.14100,3.658062306
1.14150,3.047673491
1.14200,4.268451121
1.14250,8.235978422
1.14300,11.2879225
1.14350,9.76195046
1.14400,6.404811975
1.14450,3.963256714
1.14500,3.047673491
1.14550,1.216507044
1.14600,-0.3094649941
1.14650,-2.14063144
1.14700,-3.361409071
1.14750,-5.192575517
1.14800,-6.718547556
1.14850,-7.328936371
1.14900,-7.023741964
1.14950,-7.634130779
1.15000,-9.160102817
1.15050,-10.07568604
1.15100,-9.770491633
1.15150,-8.549714002
1.15200,-6.718547556
1.15250,-4.276992294
1.15300,-1.225048217
1.15350,1.521701452
1.15400,3.352867898
1.15450,3.047673491
1.15500,1.521701452
1.15550,0.3009238213
1.15600,-0.004270586415
1.15650,-0.9198538095
1.15700,-2.445825848
1.15750,-2.445825848
1.15800,-0.6146594018
1.15850,1.521701452
1.15900,2.742479083
1.15950,4.268451121
1.16000,7.625589606
1.16050,10.98272809
1.16100,12.20350572
1.16150,9.76195046
1.16200,5.79442316
1.16250,1.82689586
1.16300,-0.9198538095
1.16350,-3.361409071
1.16400,-5.192575517
1.16450,-6.10815874
1.16500,-6.413353148
1.16550,-6.718547556
1.16600,-8.244519594
1.16650,-10.68607486
1.16700,-11.60165808
1.16750,-8.244519594
1.16800,-1.225048217
1.16850,3.963256714
1.16900,5.489228752
1.16950,5.79442316
1.17000,7.320395198
1.17050,10.06714487
1.17100,9.76195046
1.17150,6.099617568
1.17200,1.82689586
1.17250,1.216507044
1.17300,3.352867898
1.17350,5.79442316
1.17400,6.404811975
1.17450,5.489228752
1.17500,3.963256714
1.17550,1.82689586
1.17600,-0.3094649941
1.17650,-2.751020256
1.17700,-5.192575517
1.17750,-7.328936371
1.17800,-8.85490841
1.17850,-10.07568604
1.17900,-11.29646367
1.17950,-12.5172413
1.18000,-13.43282453
1.18050,-13.73801893
1.18100,-13.73801893
1.18150,-13.73801893
1.18200,-13.43282453
1.18250,-12.82243571
1.18300,-11.90685249
1.18350,-11.60165808
1.18400,-11.90685249
1.18450,-11.90685249
1.18500,-10.38088045
1.18550,-6.718547556
1.18600,-3.361409071
1.18650,-2.14063144
1.18700,-2.14063144
1.18750,-1.225048217
1.18800,1.216507044
1.18850,3.658062306
1.18900,3.963256714
1.18950,2.742479083
1.19000,2.132090267
1.19050,2.437284675
1.19100,2.437284675
1.19150,1.521701452
1.19200,1.82689586
1.19250,3.963256714
1.19300,6.099617568
1.19350,6.710006383
1.19400,6.710006383
1.19450,6.404811975
1.19500,6.099617568
1.19550,4.573645529
1.19600,3.352867898
1.19650,3.047673491
1.19700,3.047673491
1.19750,2.742479083
1.19800,2.132090267
1.19850,1.82689586
1.19900,1.521701452
1.19950,1.216507044
1.20000,1.216507044
1.20050,1.521701452
1.20100,1.216507044
1.20150,0.606118229
1.20200,1.521701452
1.20250,3.047673491
1.20300,3.963256714
1.20350,2.742479083
1.20400,1.521701452
1.20450,0.9113126367
1.20500,0.606118229
1.20550,-0.004270586415
1.20600,-0.6146594018
1.20650,-0.004270586415
1.20700,1.521701452
1.20750,1.82689586
1.20800,1.216507044
1.20850,0.606118229
1.20900,0.9113126367
1.20950,0.9113126367
1.21000,0.3009238213
1.21050,-0.004270586415
1.21100,-0.004270586415
1.21150,1.216507044
1.21200,3.047673491
1.21250,3.658062306
1.21300,2.437284675
1.21350,0.9113126367
1.21400,0.606118229
1.21450,2.132090267
1.21500,2.742479083
1.21550,1.216507044
1.21600,-0.3094649941
1.21650,-0.004270586415
1.21700,1.216507044
1.21750,1.216507044
1.21800,-0.004270586415
1.21850,-0.004270586415
1.21900,0.9113126367
1.21950,1.82689586
1.22000,0.9113126367
1.22050,-0.004270586415
1.22100,-0.004270586415
1.22150,0.606118229
1.22200,0.9113126367
1.22250,0.606118229
1.22300,0.3009238213
1.22350,-0.004270586415
1.22400,-0.3094649941
1.22450,-0.004270586415
1.22500,-0.004270586415
1.22550,-0.004270586415
1.22600,-0.004270586415
1.22650,0.3009238213
1.22700,1.216507044
1.22750,1.216507044
1.22800,0.606118229
1.22850,0.606118229
1.22900,1.216507044
1.22950,0.9113126367
1.23000,-0.3094649941
1.23050,-0.9198538095
1.23100,-0.004270586415
1.23150,1.521701452
1.23200,0.9113126367
1.23250,-0.004270586415
1.23300,0.3009238213
1.23350,2.742479083
1.23400,3.658062306
1.23450,2.132090267
1.23500,0.3009238213
1.23550,3.352867898
1.23600,11.59311691
1.23650,21.66453236
1.23700,28.37880933
1.23750,29.90478137
1.23800,27.46322611
1.23850,24.10608762
1.23900,20.74894914
1.23950,17.08661624
1.24000,11.59311691
1.24050,4.573645529
1.24100,-1.835437033
1.24150,-7.939325187
1.24200,-12.5172413
1.24250,-17.09515742
1.24300,-20.75749031
1.24350,-21.97826794
1.24400,-19.23151827
1.24450,-14.65360216
1.24500,-12.21204689
1.24550,-12.82243571
1.24600,-12.82243571
1.24650,-10.68607486
1.24700,-7.328936371
1.24750,-6.413353148
1.24800,-7.023741964
1.24850,-7.328936371
1.24900,-7.328936371
1.24950,-8.549714002
1.25000,-11.29646367
1.25050,-12.82243571
1.25100,-12.21204689
1.25150,-10.99126926
1.25200,-9.770491633
1.25250,-8.244519594
1.25300,-6.10815874
1.25350,-4.88738111
1.25400,-4.276992294
1.25450,-3.361409071
1.25500,-1.530242625
1.25550,-0.3094649941
1.25600,-0.9198538095
1.25650,-1.835437033
1.25700,-0.3094649941
1.25750,1.216507044
1.25800,1.216507044
1.25850,-1.225048217
1.25900,-2.445825848
1.25950,-1.225048217
1.26000,0.606118229
1.26050,1.521701452
1.26100,1.521701452
1.26150,1.521701452
1.26200,1.216507044
1.26250,-0.004270586415
1.26300,-1.225048217
1.26350,-2.14063144
1.26400,-2.14063144
1.26450,-1.835437033
1.26500,-1.530242625
1.26550,-1.225048217
1.26600,-0.3094649941
1.26650,0.3009238213
1.26700,0.3009238213
1.26750,-0.3094649941
1.26800,-1.530242625
1.26850,-1.225048217
1.26900,0.606118229
1.26950,2.437284675
1.27000,2.742479083
1.27050,1.82689586
1.27100,1.521701452
1.27150,2.132090267
1.27200,2.437284675
1.27250,1.82689586
1.27300,1.521701452
1.27350,2.132090267
1.27400,3.352867898
1.27450,3.352867898
1.27500,2.742479083
1.27550,2.132090267
1.27600,1.82689586
1.27650,1.216507044
1.27700,1.216507044
1.27750,1.82689586
1.27800,3.047673491
1.27850,2.742479083
1.27900,1.521701452
1.27950,1.521701452
1.28000,2.742479083
1.28050,3.658062306
1.28100,3.352867898
1.28150,2.437284675
1.28200,1.82689586
1.28250,1.216507044
1.28300,0.9113126367
1.28350,0.9113126367
1.28400,0.9113126367
1.28450,1.216507044
1.28500,1.521701452
1.28550,1.82689586
1.28600,1.82689586
1.28650,0.606118229
1.28700,-0.3094649941
1.28750,-0.004270586415
1.28800,1.216507044
1.28850,2.132090267
1.28900,1.521701452
1.28950,0.9113126367
1.29000,0.9113126367
1.29050,1.521701452
1.29100,1.521701452
1.29150,1.216507044
1.29200,1.521701452
1.29250,1.521701452
1.29300,2.132090267
1.29350,3.963256714
1.29400,6.099617568
1.29450,5.79442316
1.29500,4.878839937
1.29550,8.846367237
1.29600,18.91778269
1.29650,27.46322611
1.29700,27.1580317
1.29750,20.74894914
1.29800,16.47622743
1.29850,17.08661624
1.29900,16.78142184
1.29950,12.81389454
1.30000,7.930784014
1.30050,5.184034345
1.30100,2.742479083
1.30150,-1.835437033
1.30200,-8.85490841
1.30250,-15.56918538
1.30300,-19.53671268
1.30350,-20.75749031
1.30400,-19.84190709
1.30450,-18.01074064
1.30500,-17.40035183
1.30550,-17.70554623
1.30600,-16.4847686
1.30650,-12.82243571
1.30700,-9.160102817
1.30750,-7.939325187
1.30800,-8.549714002
1.30850,-8.549714002
1.30900,-7.023741964
1.30950,-5.192575517
1.31000,-3.666603479
1.31050,-0.9198538095
1.31100,1.521701452
1.31150,2.132090267
1.31200,-0.6146594018
1.31250,-3.971797887
1.31300,-4.582186702
1.31350,-3.361409071
1.31400,-3.666603479
1.31450,-6.413353148
1.31500,-7.023741964
1.31550,-3.971797887
1.31600,-0.9198538095
1.31650,-1.835437033
1.31700,-4.88738111
1.31750,-6.10815874
1.31800,-5.497769925
1.31850,-5.497769925
1.31900,-6.10815874
1.31950,-6.10815874
1.32000,-5.802964333
1.32050,-5.802964333
1.32100,-6.10815874
1.32150,-4.88738111
1.32200,-3.361409071
1.32250,-3.361409071
1.32300,-3.971797887
1.32350,-2.751020256
1.32400,-0.9198538095
1.32450,-0.6146594018
1.32500,-1.225048217
1.32550,-0.3094649941
1.32600,2.437284675
1.32650,4.878839937
1.32700,5.184034345
1.32750,4.573645529
1.32800,4.573645529
1.32850,4.573645529
1.32900,3.963256714
1.32950,2.742479083
1.33000,1.216507044
1.33050,0.3009238213
1.33100,0.606118229
1.33150,1.521701452
1.33200,2.132090267
1.33250,2.742479083
1.33300,4.268451121
1.33350,7.320395198
1.33400,10.37233928
1.33450,10.06714487
1.33500,7.625589606
1.33550,5.184034345
1.33600,4.268451121
1.33650,3.658062306
1.33700,3.047673491
1.33750,2.132090267
1.33800,0.9113126367
1.33850,-0.004270586415
1.33900,0.3009238213
1.33950,0.9113126367
1.34000,0.606118229
1.34050,-0.004270586415
1.34100,-0.004270586415
1.34150,1.216507044
1.34200,1.521701452
1.34250,0.9113126367
1.34300,0.9113126367
1.34350,2.742479083
1.34400,3.047673491
1.34450,1.82689586
1.34500,3.352867898
1.34550,10.37233928
1.34600,19.52817151
1.34650,22.88530999
1.34700,18.30739388
1.34750,10.98272809
1.34800,7.015200791
1.34850,7.320395198
1.34900,7.015200791
1.34950,2.742479083
1.35000,-3.971797887
1.35050,-7.939325187
1.35100,-7.328936371
1.35150,-6.413353148
1.35200,-8.549714002
1.35250,-11.60165808
1.35300,-11.90685249
1.35350,-10.07568604
1.35400,-9.465297225
1.35450,-9.160102817
1.35500,-5.192575517
1.35550,1.82689586
1.35600,7.930784014
1.35650,10.67753368
1.35700,12.20350572
1.35750,13.11908894
1.35800,10.67753368
1.35850,4.878839937
1.35900,-0.004270586415
1.35950,-1.835437033
1.36000,-2.14063144
1.36050,-3.971797887
1.36100,-7.328936371
1.36150,-11.90685249
1.36200,-17.40035183
1.36250,-21.67307353
1.36300,-21.97826794
1.36350,-19.53671268
1.36400,-17.70554623
1.36450,-16.78996301
1.36500,-14.95879656
1.36550,-11.90685249
1.36600,-10.07568604
1.36650,-9.160102817
1.36700,-7.023741964
1.36750,-3.361409071
1.36800,-0.3094649941
1.36850,-0.004270586415
1.36900,-0.3094649941
1.36950,-0.3094649941
1.37000,1.521701452
1.37050,4.573645529
1.37100,7.625589606
1.37150,8.541172829
1.37200,7.930784014
1.37250,7.625589606
1.37300,8.846367237
1.37350,9.151561645
1.37400,7.320395198
1.37450,4.878839937
1.37500,3.352867898
1.37550,2.437284675
1.37600,0.9113126367
1.37650,-0.6146594018
1.37700,-1.225048217
1.37750,-1.835437033
1.37800,-3.666603479
1.37850,-6.413353148
1.37900,-7.023741964
1.37950,-5.802964333
1.38000,-4.88738111
1.38050,-3.971797887
1.38100,-2.445825848
1.38150,-0.004270586415
1.38200,0.606118229
1.38250,-0.004270586415
1.38300,-0.9198538095
1.38350,-0.3094649941
1.38400,0.9113126367
1.38450,1.82689586
1.38500,1.82689586
1.38550,0.9113126367
1.38600,0.606118229
1.38650,1.216507044
1.38700,2.742479083
1.38750,3.963256714
1.38800,4.573645529
1.38850,4.268451121
1.38900,3.963256714
1.38950,4.268451121
1.39000,5.184034345
1.39050,5.184034345
1.39100,4.268451121
1.39150,3.047673491
1.39200,2.437284675
1.39250,3.352867898
1.39300,3.658062306
1.39350,3.352867898
1.39400,3.352867898
1.39450,3.658062306
1.39500,3.352867898
1.39550,2.132090267
1.39600,0.606118229
1.39650,0.606118229
1.39700,1.521701452
1.39750,2.132090267
1.39800,2.132090267
1.39850,1.82689586
1.39900,1.521701452
1.39950,0.9113126367
1.40000,0.606118229
1.40050,0.9113126367
1.40100,0.9113126367
1.40150,0.3009238213
1.40200,-0.3094649941
1.40250,-0.004270586415
1.40300,0.9113126367
1.40350,1.82689586
1.40400,1.216507044
1.40450,0.3009238213
1.40500,-0.004270586415
1.40550,0.3009238213
1.40600,0.9113126367
1.40650,1.216507044
1.40700,1.216507044
1.40750,0.9113126367
1.40800,0.606118229
1.40850,0.606118229
1.40900,0.606118229
1.40950,0.606118229
1.41000,0.9113126367
1.41050,1.82689586
1.41100,1.521701452
1.41150,-0.004270586415
1.41200,-1.530242625
1.41250,-1.530242625
1.41300,-0.004270586415
1.41350,0.3009238213
1.41400,-0.004270586415
1.41450,-0.3094649941
1.41500,-0.004270586415
1.41550,0.9113126367
1.41600,1.216507044
1.41650,0.606118229
1.41700,0.606118229
1.41750,0.3009238213
1.41800,0.3009238213
1.41850,0.606118229
1.41900,0.9113126367
1.41950,0.9113126367
1.42000,0.606118229
1.42050,0.3009238213
1.42100,0.3009238213
1.42150,0.3009238213
1.42200,0.3009238213
1.42250,-0.004270586415
1.42300,0.3009238213
1.42350,0.606118229
1.42400,0.606118229
1.42450,0.606118229
1.42500,0.606118229
1.42550,0.606118229
1.42600,0.3009238213
1.42650,-0.3094649941
1.42700,-0.9198538095
1.42750,-0.6146594018
1.42800,0.606118229
1.42850,1.216507044
1.42900,0.606118229
1.42950,-0.3094649941
1.43000,-0.004270586415
1.43050,1.216507044
1.43100,1.82689586
1.43150,-0.004270586415
1.43200,-1.530242625
1.43250,-1.530242625
1.43300,-0.004270586415
1.43350,0.9113126367
1.43400,0.3009238213
1.43450,-0.004270586415
1.43500,0.3009238213
1.43550,0.3009238213
1.43600,-0.3094649941
1.43650,-0.6146594018
1.43700,-0.004270586415
1.43750,0.606118229
1.43800,-0.004270586415
1.43850,-0.004270586415
1.43900,0.606118229
1.43950,1.521701452
1.44000,2.132090267
1.44050,1.82689586
1.44100,2.132090267
1.44150,1.82689586
1.44200,1.216507044
1.44250,0.3009238213
1.44300,-0.004270586415
1.44350,-0.004270586415
1.44400,-0.004270586415
1.44450,-0.004270586415
1.44500,0.3009238213
1.44550,0.9113126367
1.44600,0.606118229
1.44650,-0.004270586415
1.44700,-0.004270586415
1.44750,-0.3094649941
1.44800,-1.225048217
1.44850,-1.530242625
1.44900,-1.225048217
1.44950,-1.225048217
1.45000,-1.835437033
1.45050,-1.835437033
1.45100,-0.6146594018
1.45150,-0.004270586415
1.45200,-1.225048217
1.45250,-2.751020256
1.45300,-1.835437033
1.45350,-0.004270586415
1.45400,-0.004270586415
1.45450,-2.14063144
1.45500,-3.361409071
1.45550,-2.14063144
1.45600,-0.9198538095
1.45650,-0.9198538095
1.45700,-1.530242625
1.45750,-1.225048217
1.45800,-0.6146594018
1.45850,-0.3094649941
1.45900,-0.004270586415
1.45950,-0.004270586415
1.46000,-0.9198538095
1.46050,-1.835437033
1.46100,-1.530242625
1.46150,-0.6146594018
1.46200,-0.6146594018
1.46250,-1.225048217
1.46300,-0.6146594018
1.46350,0.3009238213
1.46400,0.3009238213
1.46450,-0.6146594018
1.46500,-1.530242625
1.46550,-0.004270586415
1.46600,1.82689586
1.46650,1.82689586
1.46700,-0.004270586415
1.46750,-1.530242625
1.46800,-1.530242625
1.46850,-0.9198538095
1.46900,-0.3094649941
1.46950,-0.004270586415
1.47000,-0.004270586415
1.47050,-0.004270586415
1.47100,0.3009238213
1.47150,0.3009238213
1.47200,-0.004270586415
1.47250,-0.6146594018
1.47300,-0.9198538095
1.47350,-1.225048217
1.47400,-1.225048217
1.47450,-0.6146594018
1.47500,-0.004270586415
1.47550,-0.004270586415
1.47600,-0.9198538095
1.47650,-1.530242625
1.47700,-0.9198538095
1.47750,-0.004270586415
1.47800,-0.004270586415
1.47850,-0.6146594018
1.47900,-0.9198538095
1.47950,-0.004270586415
1.48000,-0.004270586415
1.48050,-0.004270586415
1.48100,-0.9198538095
1.48150,-1.225048217
1.48200,-1.225048217
1.48250,-0.9198538095
1.48300,-0.3094649941
1.48350,0.3009238213
1.48400,0.606118229
1.48450,0.3009238213
1.48500,-0.3094649941
1.48550,-0.6146594018
1.48600,-0.3094649941
1.48650,-0.004270586415
1.48700,-0.004270586415
1.48750,-0.004270586415
1.48800,0.606118229
1.48850,1.216507044
1.48900,0.9113126367
1.48950,-0.004270586415
1.49000,-0.004270586415
1.49050,-0.3094649941
1.49100,-0.6146594018
1.49150,-1.225048217
1.49200,-1.225048217
1.49250,-0.3094649941
1.49300,0.606118229
1.49350,1.216507044
1.49400,0.606118229
1.49450,-0.004270586415
1.49500,-0.3094649941
1.49550,-0.3094649941
1.49600,-0.004270586415
1.49650,-0.3094649941
1.49700,-0.9198538095
1.49750,-0.9198538095
1.49800,0.606118229
1.49850,2.132090267
1.49900,2.132090267
1.49950,0.606118229
1.50000,-0.004270586415
1.50050,-0.3094649941
1.50100,-0.3094649941
1.50150,-0.9198538095
1.50200,-0.9198538095
1.50250,-0.004270586415
1.50300,0.9113126367
1.50350,0.9113126367
1.50400,0.3009238213
1.50450,0.606118229
1.50500,1.521701452
1.50550,1.216507044
1.50600,-0.004270586415
1.50650,-0.6146594018
1.50700,-0.6146594018
1.50750,-0.6146594018
1.50800,-0.6146594018
1.50850,-0.3094649941
1.50900,0.3009238213
1.50950,0.606118229
1.51000,0.3009238213
1.51050,-0.004270586415
1.51100,-0.004270586415
1.51150,-0.004270586415
1.51200,-0.004270586415
1.51250,-0.3094649941
1.51300,-0.004270586415
1.51350,0.606118229
1.51400,0.3009238213
1.51450,-0.9198538095
1.51500,-2.14063144
1.51550,-1.530242625
1.51600,-0.004270586415
1.51650,0.9113126367
1.51700,1.521701452
1.51750,1.216507044
1.51800,0.606118229
1.51850,-0.004270586415
1.51900,-0.3094649941
1.51950,-0.004270586415
1.52000,-0.004270586415
1.52050,-0.004270586415
1.52100,-0.6146594018
1.52150,-0.6146594018
1.52200,0.3009238213
1.52250,1.216507044
1.52300,1.521701452
1.52350,0.9113126367
1.52400,0.3009238213
1.52450,-0.004270586415
1.52500,-0.3094649941
1.52550,-0.3094649941
1.52600,-0.004270586415
1.52650,0.606118229
1.52700,0.3009238213
1.52750,-0.004270586415
1.52800,-0.6146594018
1.52850,-0.9198538095
1.52900,-0.6146594018
1.52950,-0.3094649941
1.53000,-0.3094649941
1.53050,-0.004270586415
1.53100,-0.004270586415
1.53150,-0.004270586415
1.53200,-0.3094649941
1.53250,-0.9198538095
1.53300,-0.6146594018
1.53350,-0.004270586415
1.53400,-0.004270586415
1.53450,-1.225048217
1.53500,-2.14063144
1.53550,-0.9198538095
1.53600,0.606118229
1.53650,1.521701452
1.53700,0.606118229
1.53750,-0.6146594018
1.53800,-1.225048217
1.53850,-0.9198538095
1.53900,-0.3094649941
1.53950,0.3009238213
1.54000,0.606118229
1.54050,-0.004270586415
1.54100,-0.6146594018
1.54150,-0.6146594018
1.54200,-0.004270586415
1.54250,-0.004270586415
1.54300,-0.9198538095
1.54350,-1.530242625
1.54400,-0.9198538095
1.54450,-0.004270586415
1.54500,0.3009238213
1.54550,-0.004270586415
1.54600,-0.6146594018
1.54650,-0.9198538095
1.54700,-1.225048217
1.54750,-1.225048217
1.54800,-0.004270586415
1.54850,1.216507044
1.54900,0.9113126367
1.54950,-0.004270586415
1.55000,-0.6146594018
1.55050,-0.004270586415
1.55100,1.216507044
1.55150,1.216507044
1.55200,0.606118229
1.55250,0.3009238213
1.55300,0.9113126367
1.55350,0.606118229
1.55400,-0.004270586415
1.55450,-0.004270586415
1.55500,0.9113126367
1.55550,0.606118229
1.55600,-0.004270586415
1.55650,-0.6146594018
1.55700,0.3009238213
1.55750,0.606118229
1.55800,-0.004270586415
1.55850,-1.225048217
1.55900,-0.004270586415
1.55950,0.606118229
1.56000,-0.6146594018
1.56050,-2.751020256
1.56100,-2.445825848
1.56150,0.3009238213
1.56200,1.521701452
1.56250,-0.004270586415
1.56300,-1.225048217
1.56350,-0.6146594018
1.56400,-0.004270586415
1.56450,-1.225048217
1.56500,-2.14063144
1.56550,-0.6146594018
1.56600,1.216507044
1.56650,0.606118229
1.56700,-1.225048217
1.56750,-1.835437033
1.56800,-0.6146594018
1.56850,0.606118229
1.56900,0.9113126367
1.56950,0.3009238213
1.57000,0.3009238213
1.57050,0.606118229
1.57100,0.9113126367
1.57150,1.521701452
1.57200,1.521701452
1.57250,0.606118229
1.57300,-0.3094649941
1.57350,-0.6146594018
1.57400,-0.004270586415
1.57450,0.606118229
1.57500,1.216507044
1.57550,0.9113126367
1.57600,-0.004270586415
1.57650,-0.9198538095
1.57700,-0.6146594018
1.57750,0.606118229
1.57800,1.521701452
1.57850,0.606118229
1.57900,-0.004270586415
1.57950,-0.004270586415
1.58000,0.606118229
1.58050,0.3009238213
1.58100,-0.004270586415
1.58150,-0.004270586415
1.58200,0.3009238213
1.58250,0.3009238213
1.58300,0.3009238213
1.58350,0.3009238213
1.58400,0.9113126367
1.58450,0.606118229
1.58500,0.606118229
1.58550,1.216507044
1.58600,1.521701452
1.58650,0.3009238213
1.58700,-0.9198538095
1.58750,-0.9198538095
1.58800,-0.3094649941
1.58850,-0.3094649941
1.58900,-0.9198538095
1.58950,-0.3094649941
1.59000,0.3009238213
1.59050,0.606118229
1.59100,-0.004270586415
1.59150,-0.004270586415
1.59200,0.3009238213
1.59250,0.9113126367
1.59300,0.9113126367
1.59350,0.606118229
1.59400,0.3009238213
1.59450,-0.004270586415
1.59500,-0.004270586415
1.59550,-0.004270586415
1.59600,-0.004270586415
1.59650,-0.3094649941
1.59700,-0.004270586415
1.59750,0.606118229
1.59800,1.216507044
1.59850,0.606118229
1.59900,-0.004270586415
1.59950,0.3009238213
1.60000,0.9113126367
1.60050,-0.004270586415
1.60100,-0.9198538095
1.60150,-0.6146594018
1.60200,-0.004270586415
1.60250,-0.004270586415
1.60300,-0.9198538095
1.60350,-1.530242625
1.60400,-0.3094649941
1.60450,0.3009238213
1.60500,0.606118229
1.60550,0.3009238213
1.60600,-0.004270586415
1.60650,-0.004270586415
1.60700,-0.004270586415
1.60750,0.3009238213
1.60800,0.606118229
1.60850,0.9113126367
1.60900,0.606118229
1.60950,0.3009238213
1.61000,-0.004270586415
1.61050,-0.004270586415
1.61100,-0.3094649941
1.61150,-0.004270586415
1.61200,-0.004270586415
1.61250,-0.004270586415
1.61300,-0.004270586415
1.61350,-0.004270586415
1.61400,-0.004270586415
1.61450,-0.004270586415
1.61500,-0.6146594018
1.61550,-0.6146594018
1.61600,-0.6146594018
1.61650,-0.9198538095
1.61700,-1.225048217
1.61750,-0.3094649941
1.61800,-0.004270586415
1.61850,-0.9198538095
1.61900,-2.14063144
1.61950,-2.14063144
1.62000,-1.530242625
1.62050,-1.530242625
1.62100,-2.14063144
1.62150,-2.14063144
1.62200,-0.9198538095
1.62250,0.3009238213
1.62300,0.606118229
1.62350,0.3009238213
1.62400,-0.3094649941
1.62450,-0.6146594018
1.62500,-0.3094649941
1.62550,-0.004270586415
1.62600,-0.004270586415
1.62650,-0.004270586415
1.62700,-0.004270586415
1.62750,-0.004270586415
1.62800,-0.004270586415
1.62850,-0.004270586415
1.62900,0.3009238213
1.62950,1.216507044
1.63000,0.9113126367
1.63050,-0.004270586415
1.63100,-0.004270586415
1.63150,-0.004270586415
1.63200,0.3009238213
1.63250,0.3009238213
1.63300,-0.004270586415
1.63350,-0.6146594018
1.63400,-0.6146594018
1.63450,-0.004270586415
1.63500,0.9113126367
1.63550,0.9113126367
1.63600,-0.004270586415
1.63650,-0.3094649941
1.63700,-0.004270586415
1.63750,0.3009238213
1.63800,-0.3094649941
1.63850,-1.835437033
1.63900,-1.225048217
1.63950,-0.004270586415
1.64000,0.9113126367
1.64050,0.606118229
1.64100,0.3009238213
1.64150,0.606118229
1.64200,0.9113126367
1.64250,-0.004270586415
1.64300,-1.225048217
1.64350,-1.225048217
1.64400,-0.6146594018
1.64450,-0.3094649941
1.64500,-0.004270586415
1.64550,0.9113126367
1.64600,1.521701452
1.64650,0.9113126367
1.64700,-0.3094649941
1.64750,-1.530242625
1.64800,-1.530242625
1.64850,-0.3094649941
1.64900,0.3009238213
1.64950,0.3009238213
1.65000,-0.004270586415
1.65050,-0.6146594018
1.65100,-1.225048217
1.65150,-0.9198538095
1.65200,-0.004270586415
1.65250,1.216507044
1.65300,1.216507044
1.65350,-0.004270586415
1.65400,-1.225048217
1.65450,-0.9198538095
1.65500,-0.004270586415
1.65550,0.606118229
1.65600,0.606118229
1.65650,1.216507044
1.65700,2.132090267
1.65750,2.437284675
1.65800,0.606118229
1.65850,-0.004270586415
1.65900,0.3009238213
1.65950,1.82689586
1.66000,1.82689586
1.66050,0.606118229
1.66100,0.3009238213
1.66150,0.606118229
1.66200,0.606118229
1.66250,-0.004270586415
1.66300,-0.004270586415
1.66350,-0.004270586415
1.66400,-0.004270586415
1.66450,-0.004270586415
1.66500,-0.004270586415
1.66550,-0.3094649941
1.66600,-1.225048217
1.66650,-1.225048217
1.66700,-0.004270586415
1.66750,2.132090267
1.66800,2.132090267
1.66850,0.606118229
1.66900,-0.004270586415
1.66950,0.3009238213
1.67000,0.606118229
1.67050,-0.004270586415
1.67100,-0.6146594018
1.67150,-0.6146594018
1.67200,-0.6146594018
1.67250,-0.3094649941
1.67300,0.606118229
1.67350,1.521701452
1.67400,1.216507044
1.67450,-0.3094649941
1.67500,-1.530242625
1.67550,-0.9198538095
1.67600,-0.004270586415
1.67650,-0.3094649941
1.67700,-0.9198538095
1.67750,-0.9198538095
1.67800,-0.6146594018
1.67850,-0.6146594018
1.67900,-1.225048217
1.67950,-1.225048217
1.68000,-0.6146594018
1.68050,-0.004270586415
1.68100,0.3009238213
1.68150,0.9113126367
1.68200,0.606118229
1.68250,-0.004270586415
1.68300,-0.3094649941
1.68350,-0.3094649941
1.68400,-0.3094649941
1.68450,-0.3094649941
1.68500,-0.004270586415
1.68550,0.9113126367
1.68600,1.216507044
1.68650,0.3009238213
1.68700,-0.6146594018
1.68750,-0.3094649941
1.68800,-0.004270586415
1.68850,-0.004270586415
1.68900,-0.3094649941
1.68950,-0.9198538095
1.69000,-0.9198538095
1.69050,-0.9198538095
1.69100,-1.225048217
1.69150,-1.530242625
1.69200,-1.225048217
1.69250,-0.3094649941
1.69300,-0.004270586415
1.69350,0.606118229
1.69400,1.216507044
1.69450,1.82689586
1.69500,2.132090267
1.69550,1.82689586
1.69600,0.9113126367
1.69650,0.3009238213
1.69700,0.606118229
1.69750,1.216507044
1.69800,0.606118229
1.69850,-0.3094649941
1.69900,-0.9198538095
1.69950,-0.004270586415
1.70000,0.9113126367
1.70050,1.521701452
1.70100,1.521701452
1.70150,0.9113126367
1.70200,0.3009238213
1.70250,-0.3094649941
1.70300,-0.3094649941
1.70350,-0.004270586415
1.70400,0.9113126367
1.70450,0.606118229
1.70500,-0.004270586415
1.70550,-0.3094649941
1.70600,-0.004270586415
1.70650,0.606118229
1.70700,0.606118229
1.70750,0.3009238213
1.70800,0.3009238213
1.70850,0.3009238213
1.70900,-0.004270586415
1.70950,-0.004270586415
1.71000,-0.3094649941
1.71050,-0.3094649941
1.71100,-0.004270586415
1.71150,-0.004270586415
1.71200,-0.004270586415
1.71250,-0.004270586415
1.71300,-0.3094649941
1.71350,-0.9198538095
1.71400,-0.9198538095
1.71450,-0.6146594018
1.71500,-0.3094649941
1.71550,-0.6146594018
1.71600,-0.6146594018
1.71650,-0.3094649941
1.71700,-0.004270586415
1.71750,-0.004270586415
1.71800,-0.004270586415
1.71850,-0.6146594018
1.71900,-0.3094649941
1.71950,0.3009238213
1.72000,0.3009238213
1.72050,-0.3094649941
1.72100,-0.9198538095
1.72150,-0.6146594018
1.72200,-0.3094649941
1.72250,-0.3094649941
1.72300,-0.3094649941
1.72350,-0.004270586415
1.72400,0.3009238213
1.72450,0.606118229
1.72500,0.3009238213
1.72550,0.3009238213
1.72600,0.9113126367
1.72650,0.9113126367
1.72700,-0.004270586415
1.72750,-0.9198538095
1.72800,-0.6146594018
1.72850,-0.004270586415
1.72900,0.606118229
1.72950,0.3009238213
1.73000,-0.3094649941
1.73050,-0.3094649941
1.73100,-0.004270586415
1.73150,0.606118229
1.73200,0.3009238213
1.73250,-0.004270586415
1.73300,0.3009238213
1.73350,0.9113126367
1.73400,0.606118229
1.73450,0.3009238213
1.73500,0.3009238213
1.73550,1.216507044
1.73600,1.216507044
1.73650,0.3009238213
1.73700,-0.9198538095
1.73750,-1.225048217
1.73800,-1.225048217
1.73850,-0.6146594018
1.73900,-0.004270586415
1.73950,-0.004270586415
1.74000,0.3009238213
1.74050,-0.004270586415
1.74100,-0.004270586415
1.74150,-0.3094649941
1.74200,-0.3094649941
1.74250,-0.004270586415
1.74300,0.606118229
1.74350,1.216507044
1.74400,0.9113126367
1.74450,-0.3094649941
1.74500,-0.9198538095
1.74550,-0.9198538095
1.74600,-0.6146594018
1.74650,-0.6146594018
1.74700,-0.6146594018
1.74750,-0.004270586415
1.74800,-0.004270586415
1.74850,0.3009238213
1.74900,0.606118229
1.74950,0.3009238213
1.75000,-0.004270586415
1.75050,-1.530242625
1.75100,-2.445825848
1.75150,-1.835437033
1.75200,-0.004270586415
1.75250,0.9113126367
1.75300,0.606118229
1.75350,-0.6146594018
1.75400,-1.835437033
1.75450,-1.530242625
1.75500,-0.3094649941
1.75550,-0.004270586415
1.75600,-0.6146594018
1.75650,-0.9198538095
1.75700,-0.6146594018
1.75750,-0.004270586415
1.75800,-0.004270586415
1.75850,-0.3094649941
1.75900,-0.004270586415
1.75950,-0.004270586415
1.76000,-0.9198538095
1.76050,-2.445825848
1.76100,-1.530242625
1.76150,-0.004270586415
1.76200,0.606118229
1.76250,-0.004270586415
1.76300,-0.9198538095
1.76350,-0.004270586415
1.76400,0.3009238213
1.76450,-0.004270586415
1.76500,-0.6146594018
1.76550,-0.6146594018
1.76600,-0.004270586415
1.76650,0.9113126367
1.76700,0.9113126367
1.76750,0.3009238213
1.76800,-0.3094649941
1.76850,-0.3094649941
1.76900,0.3009238213
1.76950,0.3009238213
1.77000,-0.004270586415
1.77050,-0.9198538095
1.77100,-0.6146594018
1.77150,-0.004270586415
1.77200,0.3009238213
1.77250,-0.004270586415
1.77300,0.606118229
1.77350,1.82689586
1.77400,1.82689586
1.77450,0.606118229
1.77500,-0.3094649941
1.77550,-0.004270586415
1.77600,1.216507044
1.77650,1.216507044
1.77700,-0.004270586415
1.77750,-1.225048217
1.77800,-1.530242625
1.77850,-0.6146594018
1.77900,-0.004270586415
1.77950,0.3009238213
1.78000,-0.004270586415
1.78050,-0.004270586415
1.78100,0.3009238213
1.78150,0.606118229
1.78200,0.3009238213
1.78250,-0.004270586415
1.78300,-0.004270586415
1.78350,-0.004270586415
1.78400,-0.004270586415
1.78450,-0.6146594018
1.78500,-0.6146594018
1.78550,-0.004270586415
1.78600,-0.004270586415
1.78650,-0.004270586415
1.78700,-0.6146594018
1.78750,-0.3094649941
1.78800,-0.004270586415
1.78850,0.3009238213
1.78900,-0.004270586415
1.78950,-0.3094649941
1.79000,-0.004270586415
1.79050,0.9113126367
1.79100,0.3009238213
1.79150,-0.9198538095
1.79200,-1.835437033
1.79250,-1.225048217
1.79300,-0.004270586415
1.79350,0.9113126367
1.79400,0.9113126367
1.79450,0.3009238213
1.79500,-0.004270586415
1.79550,-0.004270586415
1.79600,0.9113126367
1.79650,2.132090267
1.79700,2.437284675
1.79750,1.521701452
1.79800,-0.004270586415
1.79850,-0.3094649941
1.79900,-0.004270586415
1.79950,0.606118229
1.80000,0.3009238213
1.80050,0.3009238213
1.80100,0.9113126367
1.80150,1.521701452
1.80200,1.216507044
1.80250,-0.004270586415
1.80300,-0.3094649941
1.80350,-0.3094649941
1.80400,-0.004270586415
1.80450,-0.3094649941
1.80500,-0.004270586415
1.80550,0.3009238213
1.80600,0.606118229
1.80650,-0.004270586415
1.80700,-0.004270586415
1.80750,0.3009238213
1.80800,0.606118229
1.80850,0.9113126367
1.80900,0.9113126367
1.80950,1.216507044
1.81000,0.9113126367
1.81050,-0.004270586415
1.81100,-0.3094649941
1.81150,-0.004270586415
1.81200,-0.004270586415
1.81250,-0.3094649941
1.81300,-1.225048217
1.81350,-1.225048217
1.81400,-0.3094649941
1.81450,0.3009238213
1.81500,-0.004270586415
1.81550,-0.004270586415
1.81600,-0.004270586415
1.81650,0.9113126367
1.81700,1.216507044
1.81750,0.3009238213
1.81800,-0.6146594018
1.81850,-1.225048217
1.81900,-0.6146594018
1.81950,-0.004270586415
1.82000,-0.004270586415
1.82050,-0.004270586415
1.82100,-0.004270586415
1.82150,-0.3094649941
1.82200,-0.3094649941
1.82250,0.3009238213
1.82300,0.9113126367
1.82350,0.3009238213
1.82400,-0.9198538095
1.82450,-1.530242625
1.82500,-0.3094649941
1.82550,0.606118229
1.82600,0.3009238213
1.82650,-0.6146594018
1.82700,-0.3094649941
1.82750,0.9113126367
1.82800,1.216507044
1.82850,-0.004270586415
1.82900,-1.225048217
1.82950,-0.6146594018
1.83000,0.606118229
1.83050,1.82689586
1.83100,2.437284675
1.83150,3.047673491
1.83200,3.047673491
1.83250,2.132090267
1.83300,0.9113126367
1.83350,1.216507044
1.83400,2.132090267
1.83450,1.82689586
1.83500,-0.3094649941
1.83550,-2.14063144
1.83600,-1.225048217
1.83650,-0.004270586415
1.83700,-0.004270586415
1.83750,-2.14063144
1.83800,-3.971797887
1.83850,-4.276992294
1.83900,-3.056214663
1.83950,-2.445825848
1.84000,-2.751020256
1.84050,-3.056214663
1.84100,-1.835437033
1.84150,-0.6146594018
1.84200,-0.6146594018
1.84250,-2.14063144
1.84300,-2.445825848
1.84350,-0.004270586415
1.84400,2.132090267
1.84450,1.521701452
1.84500,-0.9198538095
1.84550,-2.445825848
1.84600,-0.6146594018
1.84650,0.606118229
1.84700,0.3009238213
1.84750,-0.3094649941
1.84800,-0.004270586415
1.84850,1.216507044
1.84900,1.521701452
1.84950,1.216507044
1.85000,1.216507044
1.85050,1.82689586
1.85100,1.521701452
1.85150,0.9113126367
1.85200,1.216507044
1.85250,1.82689586
1.85300,1.521701452
1.85350,0.3009238213
1.85400,-0.6146594018
1.85450,-0.6146594018
1.85500,-0.004270586415
1.85550,0.9113126367
1.85600,1.216507044
1.85650,0.9113126367
1.85700,-0.004270586415
1.85750,-0.9198538095
1.85800,-0.9198538095
1.85850,-0.3094649941
1.85900,0.3009238213
1.85950,0.9113126367
1.86000,0.9113126367
1.86050,0.3009238213
1.86100,-0.004270586415
1.86150,-0.9198538095
1.86200,-1.530242625
1.86250,-1.225048217
1.86300,-0.3094649941
1.86350,-0.004270586415
1.86400,0.3009238213
1.86450,0.3009238213
1.86500,0.3009238213
1.86550,0.3009238213
1.86600,-0.004270586415
1.86650,-0.9198538095
1.86700,-2.14063144
1.86750,-1.835437033
1.86800,-0.6146594018
1.86850,0.606118229
1.86900,1.216507044
1.86950,1.521701452
1.87000,1.521701452
1.87050,0.606118229
1.87100,-0.6146594018
1.87150,-1.225048217
1.87200,-0.004270586415
1.87250,0.606118229
1.87300,0.3009238213
1.87350,-0.3094649941
1.87400,-0.004270586415
1.87450,1.216507044
1.87500,1.216507044
1.87550,-0.004270586415
1.87600,-0.3094649941
1.87650,0.606118229
1.87700,1.521701452
1.87750,0.606118229
1.87800,-0.6146594018
1.87850,-1.225048217
1.87900,-0.004270586415
1.87950,1.216507044
1.88000,0.9113126367
1.88050,-0.3094649941
1.88100,-1.225048217
1.88150,-0.9198538095
1.88200,-0.004270586415
1.88250,-0.004270586415
1.88300,-0.6146594018
1.88350,-0.6146594018
1.88400,-0.004270586415
1.88450,-0.004270586415
1.88500,-0.9198538095
1.88550,-0.9198538095
1.88600,-0.004270586415
1.88650,0.606118229
1.88700,0.606118229
1.88750,-0.004270586415
1.88800,-0.004270586415
1.88850,0.3009238213
1.88900,-0.3094649941
1.88950,-0.9198538095
1.89000,-0.6146594018
1.89050,-0.004270586415
1.89100,0.3009238213
1.89150,-0.3094649941
1.89200,-0.004270586415
1.89250,0.9113126367
1.89300,1.216507044
1.89350,-0.004270586415
1.89400,-0.9198538095
1.89450,-0.6146594018
1.89500,0.3009238213
1.89550,0.606118229
1.89600,-0.004270586415
1.89650,-0.3094649941
1.89700,-0.004270586415
1.89750,-0.004270586415
1.89800,-0.6146594018
1.89850,-1.225048217
1.89900,-1.225048217
1.89950,-0.6146594018
1.90000,-0.3094649941
1.90050,-0.004270586415
1.90100,-0.004270586415
1.90150,-0.004270586415
1.90200,0.9113126367
1.90250,3.047673491
1.90300,5.184034345
1.90350,5.79442316
1.90400,4.268451121
1.90450,2.742479083
1.90500,2.132090267
1.90550,2.437284675
1.90600,3.658062306
1.90650,4.878839937
1.90700,6.099617568
1.90750,6.404811975
1.90800,5.489228752
1.90850,3.352867898
1.90900,1.216507044
1.90950,-0.004270586415
1.91000,-1.225048217
1.91050,-2.14063144
1.91100,-3.056214663
1.91150,-2.751020256
1.91200,-0.9198538095
1.91250,0.606118229
1.91300,1.216507044
1.91350,0.606118229
1.91400,-0.004270586415
1.91450,-0.9198538095
1.91500,-1.530242625
1.91550,-2.14063144
1.91600,-2.14063144
1.91650,-1.530242625
1.91700,-0.9198538095
1.91750,-1.225048217
1.91800,-3.056214663
1.91850,-5.497769925
1.91900,-7.328936371
1.91950,-7.328936371
1.92000,-6.10815874
1.92050,-3.971797887
1.92100,-2.751020256
1.92150,-2.14063144
1.92200,-1.835437033
1.92250,-1.530242625
1.92300,-1.530242625
1.92350,-2.14063144
1.92400,-2.751020256
1.92450,-2.14063144
1.92500,-0.3094649941
1.92550,0.606118229
1.92600,0.3009238213
1.92650,-0.004270586415
1.92700,0.9113126367
1.92750,2.437284675
1.92800,2.437284675
1.92850,0.3009238213
1.92900,-1.530242625
1.92950,-1.530242625
1.93000,-0.3094649941
1.93050,-0.3094649941
1.93100,-1.835437033
1.93150,-2.751020256
1.93200,-2.445825848
1.93250,-2.445825848
1.93300,-3.971797887
1.93350,-5.497769925
1.93400,-5.192575517
1.93450,-3.666603479
1.93500,-2.445825848
1.93550,-0.9198538095
1.93600,0.3009238213
1.93650,1.521701452
1.93700,0.9113126367
1.93750,-0.004270586415
1.93800,-0.3094649941
1.93850,-0.004270586415
1.93900,0.9113126367
1.93950,0.606118229
1.94000,0.3009238213
1.94050,0.606118229
1.94100,0.606118229
1.94150,0.606118229
1.94200,0.606118229
1.94250,0.9113126367
1.94300,0.3009238213
1.94350,-0.004270586415
1.94400,-0.3094649941
1.94450,-0.004270586415
1.94500,0.9113126367
1.94550,1.521701452
1.94600,1.521701452
1.94650,0.9113126367
1.94700,0.3009238213
1.94750,0.3009238213
1.94800,0.9113126367
1.94850,1.216507044
1.94900,0.9113126367
1.94950,0.3009238213
1.95000,-0.004270586415
1.95050,0.3009238213
1.95100,-0.004270586415
1.95150,-0.3094649941
1.95200,-0.9198538095
1.95250,-0.3094649941
1.95300,0.3009238213
1.95350,1.216507044
1.95400,1.216507044
1.95450,0.3009238213
1.95500,-0.3094649941
1.95550,-0.004270586415
1.95600,0.3009238213
1.95650,0.3009238213
1.95700,-0.6146594018
1.95750,-0.9198538095
1.95800,0.3009238213
1.95850,1.521701452
1.95900,1.521701452
1.95950,0.606118229
1.96000,0.3009238213
1.96050,0.9113126367
1.96100,1.521701452
1.96150,1.216507044
1.96200,0.9113126367
1.96250,0.606118229
1.96300,0.3009238213
1.96350,0.606118229
1.96400,1.521701452
1.96450,2.132090267
1.96500,1.82689586
1.96550,0.606118229
1.96600,0.3009238213
1.96650,0.3009238213
1.96700,0.606118229
1.96750,0.606118229
1.96800,-0.004270586415
1.96850,-0.3094649941
1.96900,-0.004270586415
1.96950,1.216507044
1.97000,1.521701452
1.97050,0.3009238213
1.97100,-0.6146594018
1.97150,-0.004270586415
1.97200,1.216507044
1.97250,0.9113126367
1.97300,-0.004270586415
1.97350,-0.6146594018
1.97400,0.3009238213
1.97450,1.521701452
1.97500,0.606118229
1.97550,-0.3094649941
1.97600,-0.6146594018
1.97650,-0.004270586415
1.97700,1.216507044
1.97750,1.521701452
1.97800,0.9113126367
1.97850,-0.004270586415
1.97900,-0.004270586415
1.97950,-0.004270586415
1.98000,0.606118229
1.98050,0.606118229
1.98100,0.606118229
1.98150,1.216507044
1.98200,1.521701452
1.98250,1.216507044
1.98300,0.9113126367
1.98350,0.606118229
1.98400,0.3009238213
1.98450,-0.3094649941
1.98500,-0.6146594018
1.98550,-0.004270586415
1.98600,0.9113126367
1.98650,0.606118229
1.98700,0.3009238213
1.98750,0.606118229
1.98800,0.606118229
1.98850,-0.004270586415
1.98900,-1.225048217
1.98950,-1.530242625
1.99000,-1.225048217
1.99050,-1.225048217
1.99100,-1.530242625
1.99150,-0.6146594018
1.99200,0.3009238213
1.99250,0.3009238213
1.99300,-0.6146594018
1.99350,-0.6146594018
1.99400,-0.004270586415
1.99450,-0.004270586415
1.99500,-0.3094649941
1.99550,-0.3094649941
1.99600,0.3009238213
1.99650,0.9113126367
1.99700,0.3009238213
1.99750,-0.004270586415
1.99800,-0.004270586415
1.99850,0.9113126367
1.99900,0.9113126367
1.99950,-0.004270586415
2.00000,-0.004270586415
2.00050,-0.004270586415
2.00100,-0.004270586415
2.00150,-0.004270586415
2.00200,0.3009238213
2.00250,-0.004270586415
2.00300,-0.9198538095
2.00350,-0.9198538095
2.00400,-0.3094649941
2.00450,-0.3094649941
2.00500,-0.6146594018
2.00550,-0.9198538095
2.00600,-0.3094649941
2.00650,0.3009238213
2.00700,-0.004270586415
2.00750,-0.9198538095
2.00800,-0.6146594018
2.00850,0.9113126367
2.00900,2.132090267
2.00950,2.132090267
2.01000,2.132090267
2.01050,2.437284675
2.01100,2.132090267
2.01150,0.9113126367
2.01200,-0.004270586415
2.01250,-0.004270586415
2.01300,0.606118229
2.01350,-0.004270586415
2.01400,-1.835437033
2.01450,-3.056214663
2.01500,-2.445825848
2.01550,-1.530242625
2.01600,-1.835437033
2.01650,-1.530242625
2.01700,1.216507044
2.01750,6.404811975
2.01800,11.2879225
2.01850,14.03467217
2.01900,14.64506098
2.01950,14.03467217
2.02000,12.20350572
2.02050,10.37233928
2.02100,9.456756052
2.02150,9.456756052
2.02200,8.235978422
2.02250,5.489228752
2.02300,2.742479083
2.02350,2.132090267
2.02400,2.437284675
2.02450,1.521701452
2.02500,-0.3094649941
2.02550,-1.225048217
2.02600,-1.225048217
2.02650,-1.225048217
2.02700,-1.530242625
2.02750,-2.445825848
2.02800,-3.971797887
2.02850,-6.413353148
2.02900,-9.465297225
2.02950,-12.21204689
2.03000,-14.34840775
2.03050,-15.56918538
2.03100,-16.17957419
2.03150,-15.56918538
2.03200,-14.65360216
2.03250,-14.04321334
2.03300,-13.12763012
2.03350,-11.29646367
2.03400,-9.160102817
2.03450,-7.939325187
2.03500,-8.549714002
2.03550,-8.85490841
2.03600,-7.328936371
2.03650,-4.88738111
2.03700,-3.361409071
2.03750,-3.056214663
2.03800,-2.751020256
2.03850,-2.14063144
2.03900,-1.835437033
2.03950,-2.445825848
2.04000,-3.666603479
2.04050,-4.276992294
2.04100,-3.361409071
2.04150,-1.530242625
2.04200,-0.004270586415
2.04250,0.606118229
2.04300,1.521701452
2.04350,1.82689586
2.04400,1.521701452
2.04450,0.9113126367
2.04500,0.9113126367
2.04550,1.521701452
2.04600,1.82689586
2.04650,1.82689586
2.04700,1.521701452
2.04750,1.521701452
2.04800,1.521701452
2.04850,0.9113126367
2.04900,0.3009238213
2.04950,0.606118229
2.05000,1.82689586
2.05050,3.047673491
2.05100,3.352867898
2.05150,2.132090267
2.05200,-0.004270586415
2.05250,-1.225048217
2.05300,-0.004270586415
2.05350,1.216507044
2.05400,0.9113126367
2.05450,-0.9198538095
2.05500,-1.835437033
2.05550,0.3009238213
2.05600,2.742479083
2.05650,3.047673491
2.05700,2.132090267
2.05750,2.132090267
2.05800,2.742479083
2.05850,2.132090267
2.05900,1.216507044
2.05950,1.82689586
2.06000,3.047673491
2.06050,3.047673491
2.06100,1.521701452
2.06150,0.9113126367
2.06200,1.521701452
2.06250,1.82689586
2.06300,1.521701452
2.06350,1.216507044
2.06400,1.82689586
2.06450,2.132090267
2.06500,1.521701452
2.06550,1.521701452
2.06600,2.132090267
2.06650,1.521701452
2.06700,-0.3094649941
2.06750,-1.530242625
2.06800,-0.3094649941
2.06850,1.216507044
2.06900,1.216507044
2.06950,-0.3094649941
2.07000,-1.225048217
2.07050,-0.004270586415
2.07100,1.521701452
2.07150,2.132090267
2.07200,1.82689586
2.07250,1.521701452
2.07300,1.82689586
2.07350,2.437284675
2.07400,2.742479083
2.07450,1.82689586
2.07500,1.216507044
2.07550,0.9113126367
2.07600,0.9113126367
2.07650,0.606118229
2.07700,0.3009238213
2.07750,0.9113126367
2.07800,3.047673491
2.07850,3.963256714
2.07900,2.742479083
2.07950,0.606118229
2.08000,0.3009238213
2.08050,1.521701452
2.08100,2.437284675
2.08150,1.82689586
2.08200,0.606118229
2.08250,-0.004270586415
2.08300,0.3009238213
2.08350,0.3009238213
2.08400,0.3009238213
2.08450,0.3009238213
2.08500,-0.004270586415
2.08550,-0.3094649941
2.08600,-0.9198538095
2.08650,-0.6146594018
2.08700,-0.004270586415
2.08750,0.3009238213
2.08800,0.606118229
2.08850,0.606118229
2.08900,-0.004270586415
2.08950,-0.3094649941
2.09000,-0.6146594018
2.09050,-0.004270586415
2.09100,0.3009238213
2.09150,-0.004270586415
2.09200,-0.004270586415
2.09250,-0.004270586415
2.09300,0.9113126367
2.09350,0.9113126367
2.09400,-0.004270586415
2.09450,-0.004270586415
2.09500,0.3009238213
2.09550,0.9113126367
2.09600,0.3009238213
2.09650,-0.004270586415
2.09700,0.3009238213
2.09750,1.521701452
2.09800,1.82689586
2.09850,1.216507044
2.09900,1.216507044
2.09950,1.216507044
2.10000,0.606118229
2.10050,-0.004270586415
2.10100,1.216507044
2.10150,5.184034345
2.10200,9.456756052
2.10250,10.37233928
2.10300,7.930784014
2.10350,4.878839937
2.10400,2.132090267
2.10450,0.3009238213
2.10500,-1.225048217
2.10550,-2.445825848
2.10600,-3.361409071
2.10650,-4.582186702
2.10700,-5.497769925
2.10750,-5.192575517
2.10800,-3.971797887
2.10850,-3.971797887
2.10900,-5.192575517
2.10950,-5.192575517
2.11000,-3.361409071
2.11050,-1.225048217
2.11100,-0.3094649941
2.11150,-0.6146594018
2.11200,-0.004270586415
2.11250,0.9113126367
2.11300,0.9113126367
2.11350,-0.004270586415
2.11400,-0.004270586415
2.11450,0.606118229
2.11500,1.216507044
2.11550,0.606118229
2.11600,-0.3094649941
2.11650,-0.3094649941
2.11700,0.3009238213
2.11750,0.3009238213
2.11800,-0.9198538095
2.11850,-2.14063144
2.11900,-2.445825848
2.11950,-2.751020256
2.12000,-3.666603479
2.12050,-4.582186702
2.12100,-3.666603479
2.12150,-1.835437033
2.12200,-1.530242625
2.12250,-2.445825848
2.12300,-3.056214663
2.12350,-2.14063144
2.12400,-1.530242625
2.12450,-1.835437033
2.12500,-2.445825848
2.12550,-2.751020256
2.12600,-2.751020256
2.12650,-2.751020256
2.12700,-1.530242625
2.12750,-0.004270586415
2.12800,0.9113126367
2.12850,-0.004270586415
2.12900,-0.9198538095
2.12950,-0.6146594018
2.13000,0.606118229
2.13050,1.216507044
2.13100,0.606118229
2.13150,-0.004270586415
2.13200,-0.6146594018
2.13250,-0.3094649941
2.13300,-0.004270586415
2.13350,0.3009238213
2.13400,0.3009238213
2.13450,0.3009238213
2.13500,-0.004270586415
2.13550,0.3009238213
2.13600,0.606118229
2.13650,0.606118229
2.13700,0.606118229
2.13750,-0.004270586415
2.13800,-0.004270586415
2.13850,-0.004270586415
2.13900,-0.3094649941
2.13950,-0.3094649941
2.14000,-0.9198538095
2.14050,-0.9198538095
2.14100,-0.004270586415
2.14150,0.606118229
2.14200,0.9113126367
2.14250,0.606118229
2.14300,0.3009238213
2.14350,-0.004270586415
2.14400,-0.9198538095
2.14450,-1.835437033
2.14500,-1.225048217
2.14550,-0.3094649941
2.14600,-0.004270586415
2.14650,-0.004270586415
2.14700,-0.004270586415
2.14750,0.3009238213
2.14800,-0.004270586415
2.14850,-0.6146594018
2.14900,-0.004270586415
2.14950,1.216507044
2.15000,1.216507044
2.15050,-0.004270586415
2.15100,-0.3094649941
2.15150,0.3009238213
2.15200,0.3009238213
2.15250,-0.6146594018
2.15300,-1.530242625
2.15350,-0.004270586415
2.15400,1.521701452
2.15450,1.216507044
2.15500,-0.004270586415
2.15550,-0.6146594018
2.15600,-0.004270586415
2.15650,0.606118229
2.15700,0.9113126367
2.15750,0.9113126367
2.15800,0.9113126367
2.15850,0.606118229
2.15900,0.3009238213
2.15950,0.3009238213
2.16000,0.606118229
2.16050,0.606118229
2.16100,0.606118229
2.16150,0.606118229
2.16200,1.216507044
2.16250,1.216507044
2.16300,-0.004270586415
2.16350,-1.530242625
2.16400,-1.835437033
2.16450,-0.6146594018
2.16500,0.3009238213
2.16550,-0.004270586415
2.16600,-0.6146594018
2.16650,-0.3094649941
2.16700,0.3009238213
2.16750,1.216507044
2.16800,0.9113126367
2.16850,0.3009238213
2.16900,-0.004270586415
2.16950,-0.004270586415
2.17000,-0.6146594018
2.17050,-0.6146594018
2.17100,-0.6146594018
2.17150,-0.6146594018
2.17200,-0.9198538095
2.17250,-0.004270586415
2.17300,0.9113126367
2.17350,1.521701452
2.17400,0.606118229
2.17450,-0.004270586415
2.17500,-0.6146594018
2.17550,-0.6146594018
2.17600,-0.004270586415
2.17650,1.216507044
2.17700,1.82689586
2.17750,0.9113126367
2.17800,-0.004270586415
2.17850,-0.004270586415
2.17900,0.9113126367
2.17950,1.216507044
2.18000,0.606118229
2.18050,0.9113126367
2.18100,1.521701452
2.18150,0.606118229
2.18200,-0.9198538095
2.18250,-0.9198538095
2.18300,0.606118229
2.18350,1.216507044
2.18400,-0.004270586415
2.18450,-1.225048217
2.18500,-0.6146594018
2.18550,0.606118229
2.18600,0.606118229
2.18650,-0.004270586415
2.18700,0.3009238213
2.18750,1.216507044
2.18800,0.3009238213
2.18850,-0.9198538095
2.18900,-1.530242625
2.18950,-0.6146594018
2.19000,-0.004270586415
2.19050,-0.6146594018
2.19100,-0.6146594018
2.19150,-0.004270586415
2.19200,-0.004270586415
2.19250,-0.9198538095
2.19300,-1.530242625
2.19350,-0.004270586415
2.19400,2.132090267
2.19450,1.82689586
2.19500,-0.004270586415
2.19550,-0.9198538095
2.19600,-0.004270586415
2.19650,1.82689586
2.19700,1.216507044
2.19750,-0.3094649941
2.19800,-1.225048217
2.19850,-0.004270586415
2.19900,1.216507044
2.19950,1.216507044
2.20000,-0.004270586415
2.20050,-1.225048217
2.20100,-1.225048217
2.20150,-0.3094649941
2.20200,-0.004270586415
2.20250,-0.004270586415
2.20300,-0.3094649941
2.20350,-0.3094649941
2.20400,-0.3094649941
2.20450,-0.004270586415
2.20500,0.3009238213
2.20550,0.9113126367
2.20600,0.9113126367
2.20650,0.606118229
2.20700,-0.004270586415
2.20750,-0.3094649941
2.20800,-0.004270586415
2.20850,0.9113126367
2.20900,1.521701452
2.20950,0.9113126367
2.21000,0.3009238213
2.21050,-0.004270586415
2.21100,0.3009238213
2.21150,0.9113126367
2.21200,0.606118229
2.21250,-0.004270586415
2.21300,0.3009238213
2.21350,1.216507044
2.21400,0.9113126367
2.21450,-0.004270586415
2.21500,-0.9198538095
2.21550,-0.004270586415
2.21600,0.9113126367
2.21650,0.3009238213
2.21700,-0.9198538095
2.21750,-1.225048217
2.21800,-0.004270586415
2.21850,0.3009238213
2.21900,-0.004270586415
2.21950,-0.004270586415
2.22000,0.606118229
2.22050,2.132090267
2.22100,2.437284675
2.22150,0.9113126367
2.22200,-0.9198538095
2.22250,-2.14063144
2.22300,-0.9198538095
2.22350,0.9113126367
2.22400,1.216507044
2.22450,-0.004270586415
2.22500,-1.225048217
2.22550,-0.9198538095
2.22600,-0.004270586415
2.22650,-0.6146594018
2.22700,-1.530242625
2.22750,-0.6146594018
2.22800,0.606118229
2.22850,0.3009238213
2.22900,-0.3094649941
2.22950,-0.004270586415
2.23000,1.82689586
2.23050,2.437284675
2.23100,0.606118229
2.23150,-0.9198538095
2.23200,-0.6146594018
2.23250,-0.004270586415
2.23300,-0.6146594018
2.23350,-1.530242625
2.23400,-1.530242625
2.23450,-1.530242625
2.23500,-1.225048217
2.23550,-0.004270586415
2.23600,1.216507044
2.23650,1.216507044
2.23700,-0.004270586415
2.23750,-1.225048217
2.23800,-0.6146594018
2.23850,-0.004270586415
2.23900,-1.225048217
2.23950,-1.835437033
2.24000,-0.9198538095
2.24050,0.3009238213
2.24100,-0.6146594018
2.24150,-2.14063144
2.24200,-1.225048217
2.24250,0.9113126367
2.24300,0.9113126367
2.24350,-0.9198538095
2.24400,-2.14063144
2.24450,-0.9198538095
2.24500,-0.004270586415
2.24550,-0.004270586415
2.24600,-0.6146594018
2.24650,-0.3094649941
2.24700,-0.004270586415
2.24750,-0.004270586415
2.24800,-0.3094649941
2.24850,-0.004270586415
2.24900,-0.004270586415
2.24950,-0.6146594018
2.25000,-1.225048217
2.25050,-0.9198538095
2.25100,-0.004270586415
2.25150,0.9113126367
2.25200,0.606118229
2.25250,-0.3094649941
2.25300,-1.225048217
2.25350,-0.6146594018
2.25400,0.3009238213
2.25450,0.3009238213
2.25500,-0.004270586415
2.25550,-0.6146594018
2.25600,-0.6146594018
2.25650,-0.3094649941
2.25700,-0.3094649941
2.25750,-0.004270586415
2.25800,0.3009238213
2.25850,0.3009238213
2.25900,-0.6146594018
2.25950,-0.9198538095
2.26000,-0.3094649941
2.26050,0.606118229
2.26100,0.606118229
2.26150,-0.004270586415
2.26200,0.3009238213
2.26250,1.216507044
2.26300,1.82689586
2.26350,1.82689586
2.26400,1.216507044
2.26450,-0.004270586415
2.26500,-0.9198538095
2.26550,-0.3094649941
2.26600,0.3009238213
2.26650,0.3009238213
2.26700,-0.6146594018
2.26750,-1.225048217
2.26800,-0.6146594018
2.26850,-0.004270586415
2.26900,-0.004270586415
2.26950,-0.004270586415
2.27000,0.3009238213
2.27050,0.9113126367
2.27100,0.3009238213
2.27150,-0.3094649941
2.27200,-0.6146594018
2.27250,-0.6146594018
2.27300,-0.9198538095
2.27350,-1.225048217
2.27400,-1.225048217
2.27450,-0.3094649941
2.27500,0.9113126367
2.27550,1.216507044
2.27600,0.606118229
2.27650,-0.004270586415
2.27700,-0.004270586415
2.27750,0.3009238213
2.27800,0.606118229
2.27850,0.606118229
2.27900,0.3009238213
2.27950,-0.004270586415
2.28000,-0.004270586415
2.28050,0.606118229
2.28100,0.9113126367
2.28150,1.521701452
2.28200,0.9113126367
2.28250,-0.004270586415
2.28300,-0.6146594018
2.28350,-0.3094649941
2.28400,-0.004270586415
2.28450,0.3009238213
2.28500,0.3009238213
2.28550,1.521701452
2.28600,2.437284675
2.28650,1.82689586
2.28700,-0.004270586415
2.28750,-0.3094649941
2.28800,0.9113126367
2.28850,1.521701452
2.28900,-0.004270586415
2.28950,-0.6146594018
2.29000,0.606118229
2.29050,2.132090267
2.29100,1.521701452
2.29150,-0.004270586415
2.29200,0.606118229
2.29250,3.352867898
2.29300,5.184034345
2.29350,4.268451121
2.29400,1.82689586
2.29450,-0.004270586415
2.29500,-0.9198538095
2.29550,-1.835437033
2.29600,-2.445825848
2.29650,-3.056214663
2.29700,-3.361409071
2.29750,-3.666603479
2.29800,-3.971797887
2.29850,-4.276992294
2.29900,-4.276992294
2.29950,-3.666603479
2.30000,-2.14063144
2.30050,-0.3094649941
2.30100,0.3009238213
2.30150,0.9113126367
2.30200,1.82689586
2.30250,3.047673491
2.30300,3.352867898
2.30350,2.437284675
2.30400,1.216507044
2.30450,0.3009238213
2.30500,0.3009238213
2.30550,-0.004270586415
2.30600,-1.530242625
2.30650,-3.056214663
2.30700,-4.276992294
2.30750,-4.276992294
2.30800,-3.971797887
2.30850,-3.361409071
2.30900,-2.751020256
2.30950,-2.445825848
2.31000,-3.056214663
2.31050,-3.666603479
2.31100,-3.971797887
2.31150,-3.361409071
2.31200,-2.14063144
2.31250,-0.6146594018
2.31300,0.3009238213
2.31350,0.9113126367
2.31400,0.606118229
2.31450,-0.3094649941
2.31500,-0.6146594018
2.31550,-0.004270586415
2.31600,1.216507044
2.31650,1.216507044
2.31700,0.9113126367
2.31750,0.606118229
2.31800,0.9113126367
2.31850,1.216507044
2.31900,0.9113126367
2.31950,-0.004270586415
2.32000,-0.9198538095
2.32050,-1.225048217
2.32100,-0.004270586415
2.32150,1.521701452
2.32200,1.82689586
2.32250,0.3009238213
2.32300,-0.9198538095
2.32350,-1.225048217
2.32400,-0.3094649941
2.32450,-0.004270586415
2.32500,-0.004270586415
2.32550,-0.9198538095
2.32600,-0.6146594018
2.32650,-0.004270586415
2.32700,1.521701452
2.32750,1.82689586
2.32800,0.606118229
2.32850,-0.3094649941
2.32900,-0.3094649941
2.32950,-0.004270586415
2.33000,-0.004270586415
2.33050,-0.004270586415
2.33100,0.606118229
2.33150,1.216507044
2.33200,0.606118229
2.33250,-0.004270586415
2.33300,0.3009238213
2.33350,0.606118229
2.33400,0.3009238213
2.33450,-0.004270586415
2.33500,-0.004270586415
2.33550,0.606118229
2.33600,0.606118229
2.33650,-0.004270586415
2.33700,-0.004270586415
2.33750,1.216507044
2.33800,2.132090267
2.33850,1.82689586
2.33900,0.606118229
2.33950,-0.004270586415
2.34000,-0.004270586415
2.34050,-0.004270586415
2.34100,-0.004270586415
2.34150,-0.3094649941
2.34200,-0.9198538095
2.34250,-1.225048217
2.34300,-0.3094649941
2.34350,0.606118229
2.34400,1.216507044
2.34450,0.9113126367
2.34500,0.9113126367
2.34550,0.9113126367
2.34600,0.606118229
2.34650,-0.004270586415
2.34700,-0.3094649941
2.34750,-0.004270586415
2.34800,0.3009238213
2.34850,0.3009238213
2.34900,-0.004270586415
2.34950,0.606118229
2.35000,1.216507044
2.35050,1.216507044
2.35100,0.9113126367
2.35150,0.606118229
2.35200,-0.004270586415
2.35250,0.3009238213
2.35300,1.216507044
2.35350,1.82689586
2.35400,1.521701452
2.35450,0.9113126367
2.35500,0.9113126367
2.35550,1.521701452
2.35600,1.216507044
2.35650,0.606118229
2.35700,0.3009238213
2.35750,0.3009238213
2.35800,0.3009238213
2.35850,0.606118229
2.35900,1.216507044
2.35950,1.521701452
2.36000,0.3009238213
2.36050,-0.3094649941
2.36100,-0.004270586415
2.36150,0.9113126367
2.36200,0.606118229
2.36250,-0.9198538095
2.36300,-1.530242625
2.36350,-0.3094649941
2.36400,0.9113126367
2.36450,0.9113126367
2.36500,-0.004270586415
2.36550,-0.004270586415
2.36600,-0.004270586415
2.36650,-0.3094649941
2.36700,-0.6146594018
2.36750,-0.3094649941
2.36800,-0.004270586415
2.36850,0.606118229
2.36900,0.9113126367
2.36950,0.9113126367
2.37000,0.3009238213
2.37050,-0.3094649941
2.37100,-0.3094649941
2.37150,1.216507044
2.37200,3.047673491
2.37250,3.352867898
2.37300,1.82689586
2.37350,0.9113126367
2.37400,1.216507044
2.37450,2.132090267
2.37500,1.521701452
2.37550,-0.004270586415
2.37600,-0.3094649941
2.37650,-0.004270586415
2.37700,1.521701452
2.37750,2.132090267
2.37800,1.82689586
2.37850,1.216507044
2.37900,1.216507044
2.37950,1.521701452
2.38000,0.9113126367
2.38050,0.606118229
2.38100,0.606118229
2.38150,0.606118229
2.38200,-0.004270586415
2.38250,-1.530242625
2.38300,-2.14063144
2.38350,-0.9198538095
2.38400,0.3009238213
2.38450,-0.004270586415
2.38500,-1.225048217
2.38550,-1.835437033
2.38600,-1.225048217
2.38650,-0.004270586415
2.38700,-0.3094649941
2.38750,-1.835437033
2.38800,-2.751020256
2.38850,-3.056214663
2.38900,-3.361409071
2.38950,-4.582186702
2.39000,-6.10815874
2.39050,-5.802964333
2.39100,-3.971797887
2.39150,-2.445825848
2.39200,-2.445825848
2.39250,-3.666603479
2.39300,-3.361409071
2.39350,-0.9198538095
2.39400,1.216507044
2.39450,1.521701452
2.39500,0.606118229
2.39550,-0.004270586415
2.39600,1.216507044
2.39650,1.82689586
2.39700,1.216507044
2.39750,-0.004270586415
2.39800,-0.3094649941
2.39850,-0.3094649941
2.39900,-1.530242625
2.39950,-3.361409071
2.40000,-3.666603479
2.40050,-2.445825848
2.40100,-0.9198538095
2.40150,-0.6146594018
2.40200,-0.9198538095
2.40250,-1.225048217
2.40300,-1.530242625
2.40350,-1.530242625
2.40400,-0.9198538095
2.40450,0.3009238213
2.40500,1.521701452
2.40550,1.82689586
2.40600,1.82689586
2.40650,1.82689586
2.40700,1.521701452
2.40750,0.606118229
2.40800,0.3009238213
2.40850,0.9113126367
2.40900,1.216507044
2.40950,0.606118229
2.41000,-0.004270586415
2.41050,-0.004270586415
2.41100,-0.004270586415
2.41150,-0.004270586415
2.41200,0.3009238213
2.41250,1.521701452
2.41300,1.82689586
2.41350,-0.004270586415
2.41400,-1.530242625
2.41450,-0.3094649941
2.41500,1.82689586
2.41550,2.437284675
2.41600,1.216507044
2.41650,-0.004270586415
2.41700,-0.004270586415
2.41750,0.606118229
2.41800,0.9113126367
2.41850,0.9113126367
2.41900,0.606118229
2.41950,-0.004270586415
2.42000,0.3009238213
2.42050,1.82689586
2.42100,2.437284675
2.42150,0.9113126367
2.42200,-0.6146594018
2.42250,-0.6146594018
2.42300,0.9113126367
2.42350,1.521701452
2.42400,0.9113126367
2.42450,0.3009238213
2.42500,0.9113126367
2.42550,0.9113126367
2.42600,0.3009238213
2.42650,-0.004270586415
2.42700,1.216507044
2.42750,1.82689586
2.42800,0.9113126367
2.42850,-0.3094649941
2.42900,-0.6146594018
2.42950,-0.004270586415
2.43000,0.3009238213
2.43050,-0.004270586415
2.43100,-0.004270586415
2.43150,0.3009238213
2.43200,0.3009238213
2.43250,-0.004270586415
2.43300,-0.3094649941
2.43350,-0.004270586415
2.43400,0.9113126367
2.43450,0.9113126367
2.43500,-0.004270586415
2.43550,-0.3094649941
2.43600,-0.004270586415
2.43650,-0.004270586415
2.43700,0.3009238213
2.43750,0.3009238213
2.43800,0.3009238213
2.43850,0.606118229
2.43900,0.606118229
2.43950,-0.004270586415
2.44000,-0.6146594018
2.44050,-0.9198538095
2.44100,-0.004270586415
2.44150,0.9113126367
2.44200,0.9113126367
2.44250,0.3009238213
2.44300,0.3009238213
2.44350,0.3009238213
2.44400,0.3009238213
2.44450,0.3009238213
2.44500,0.9113126367
2.44550,1.216507044
2.44600,0.606118229
2.44650,-0.3094649941
2.44700,-1.225048217
2.44750,-0.9198538095
2.44800,-0.004270586415
2.44850,0.606118229
2.44900,1.216507044
2.44950,1.82689586
2.45000,1.521701452
2.45050,0.3009238213
2.45100,-0.6146594018
2.45150,-0.3094649941
2.45200,0.606118229
2.45250,0.9113126367
2.45300,-0.004270586415
2.45350,-1.225048217
2.45400,-0.3094649941
2.45450,0.9113126367
2.45500,1.216507044
2.45550,0.606118229
2.45600,0.9113126367
2.45650,2.742479083
2.45700,4.878839937
2.45750,5.184034345
2.45800,4.878839937
2.45850,4.268451121
2.45900,3.352867898
2.45950,2.132090267
2.46000,2.132090267
2.46050,2.742479083
2.46100,2.437284675
2.46150,0.606118229
2.46200,-1.225048217
2.46250,-1.530242625
2.46300,-0.9198538095
2.46350,-1.530242625
2.46400,-2.751020256
2.46450,-3.361409071
2.46500,-3.056214663
2.46550,-3.056214663
2.46600,-3.056214663
2.46650,-2.751020256
2.46700,-2.445825848
2.46750,-2.751020256
2.46800,-3.056214663
2.46850,-2.14063144
2.46900,-0.6146594018
2.46950,-0.9198538095
2.47000,-3.056214663
2.47050,-4.88738111
2.47100,-4.582186702
2.47150,-3.056214663
2.47200,-1.225048217
2.47250,-0.3094649941
2.47300,-0.3094649941
2.47350,-1.225048217
2.47400,-1.225048217
2.47450,-0.6146594018
2.47500,-0.3094649941
2.47550,-1.225048217
2.47600,-1.530242625
2.47650,-0.9198538095
2.47700,-0.6146594018
2.47750,-1.835437033
2.47800,-1.530242625
2.47850,1.216507044
2.47900,4.268451121
2.47950,4.268451121
2.48000,3.047673491
2.48050,3.658062306
2.48100,4.878839937
2.48150,3.658062306
2.48200,-0.004270586415
2.48250,-0.9198538095
2.48300,0.3009238213
2.48350,1.521701452
2.48400,0.3009238213
2.48450,-0.9198538095
2.48500,-1.225048217
2.48550,-1.530242625
2.48600,-3.056214663
2.48650,-4.88738111
2.48700,-4.88738111
2.48750,-3.361409071
2.48800,-0.9198538095
2.48850,1.521701452
2.48900,2.437284675
2.48950,0.606118229
2.49000,-1.225048217
2.49050,-0.6146594018
2.49100,1.216507044
2.49150,1.216507044
2.49200,-0.9198538095
2.49250,-2.445825848
2.49300,-1.225048217
2.49350,-0.004270586415
2.49400,-0.9198538095
2.49450,-2.445825848
2.49500,-2.445825848
2.49550,-2.445825848
2.49600,-3.666603479
2.49650,-5.192575517
2.49700,-4.88738111
2.49750,-3.666603479
2.49800,-3.361409071
2.49850,-3.666603479
2.49900,-3.056214663
2.49950,-2.14063144
2.50000,-2.14063144
2.50050,-2.14063144
2.50100,-1.530242625
2.50150,-0.3094649941
2.50200,-0.004270586415
2.50250,-0.9198538095
2.50300,-1.530242625
2.50350,-0.004270586415
2.50400,1.521701452
2.50450,1.82689586
2.50500,0.606118229
2.50550,-0.3094649941
2.50600,-0.9198538095
2.50650,-0.9198538095
2.50700,-0.3094649941
2.50750,0.606118229
2.50800,1.82689586
2.50850,2.132090267
2.50900,0.9113126367
2.50950,-0.004270586415
2.51000,-0.004270586415
2.51050,-0.004270586415
2.51100,-0.3094649941
2.51150,-0.9198538095
2.51200,-0.6146594018
2.51250,-0.004270586415
2.51300,-0.004270586415
2.51350,-0.004270586415
2.51400,-0.004270586415
2.51450,0.3009238213
2.51500,0.9113126367
2.51550,0.9113126367
2.51600,1.521701452
2.51650,2.132090267
2.51700,1.521701452
2.51750,0.606118229
2.51800,0.9113126367
2.51850,1.521701452
2.51900,1.216507044
2.51950,0.606118229
2.52000,1.216507044
2.52050,2.437284675
2.52100,2.437284675
2.52150,0.9113126367
2.52200,0.606118229
2.52250,1.216507044
2.52300,1.216507044
2.52350,0.606118229
2.52400,0.9113126367
2.52450,1.82689586
2.52500,1.521701452
2.52550,-0.004270586415
2.52600,0.606118229
2.52650,6.404811975
2.52700,13.11908894
2.52750,15.56064421
2.52800,13.11908894
2.52850,9.76195046
2.52900,7.625589606
2.52950,7.015200791
2.53000,6.710006383
2.53050,6.404811975
2.53100,6.099617568
2.53150,5.184034345
2.53200,3.658062306
2.53250,0.9113126367
2.53300,-2.445825848
2.53350,-5.497769925
2.53400,-6.10815874
2.53450,-5.192575517
2.53500,-6.413353148
2.53550,-9.465297225
2.53600,-11.60165808
2.53650,-10.99126926
2.53700,-10.07568604
2.53750,-10.68607486
2.53800,-10.99126926
2.53850,-8.85490841
2.53900,-6.10815874
2.53950,-5.802964333
2.54000,-6.10815874
2.54050,-4.276992294
2.54100,-0.3094649941
2.54150,1.521701452
2.54200,0.606118229
2.54250,-0.3094649941
2.54300,-0.004270586415
2.54350,-0.004270586415
2.54400,-0.004270586415
2.54450,1.216507044
2.54500,2.742479083
2.54550,2.437284675
2.54600,-0.004270586415
2.54650,-2.445825848
2.54700,-2.751020256
2.54750,-1.835437033
2.54800,-1.835437033
2.54850,-3.361409071
2.54900,-3.361409071
2.54950,-2.14063144
2.55000,-1.225048217
2.55050,-3.056214663
2.55100,-5.497769925
2.55150,-5.802964333
2.55200,-3.971797887
2.55250,-2.751020256
2.55300,-3.056214663
2.55350,-3.361409071
2.55400,-2.445825848
2.55450,-1.225048217
2.55500,-1.225048217
2.55550,-2.14063144
2.55600,-1.835437033
2.55650,-0.9198538095
2.55700,-0.004270586415
2.55750,-0.6146594018
2.55800,-1.225048217
2.55850,-1.530242625
2.55900,-1.530242625
2.55950,-2.14063144
2.56000,-2.14063144
2.56050,-1.225048217
2.56100,-0.004270586415
2.56150,1.216507044
2.56200,0.9113126367
2.56250,0.606118229
2.56300,1.216507044
2.56350,2.437284675
2.56400,3.352867898
2.56450,2.132090267
2.56500,0.3009238213
2.56550,-0.3094649941
2.56600,0.3009238213
2.56650,1.521701452
2.56700,1.521701452
2.56750,0.606118229
2.56800,0.3009238213
2.56850,0.606118229
2.56900,1.216507044
2.56950,1.82689586
2.57000,2.437284675
2.57050,3.352867898
2.57100,2.742479083
2.57150,1.521701452
2.57200,0.3009238213
2.57250,0.606118229
2.57300,0.9113126367
2.57350,1.216507044
2.57400,1.216507044
2.57450,1.216507044
2.57500,1.216507044
2.57550,0.9113126367
2.57600,0.9113126367
2.57650,1.521701452
2.57700,2.132090267
2.57750,2.437284675
2.57800,2.132090267
2.57850,1.82689586
2.57900,1.521701452
2.57950,1.216507044
2.58000,1.216507044
2.58050,1.521701452
2.58100,2.132090267
2.58150,2.132090267
2.58200,1.216507044
2.58250,0.3009238213
2.58300,-0.004270586415
2.58350,0.3009238213
2.58400,0.9113126367
2.58450,1.216507044
2.58500,1.521701452
2.58550,2.132090267
2.58600,2.132090267
2.58650,1.216507044
2.58700,0.3009238213
2.58750,0.3009238213
2.58800,0.9113126367
2.58850,2.132090267
2.58900,2.437284675
2.58950,1.521701452
2.59000,0.606118229
2.59050,-0.3094649941
2.59100,-0.9198538095
2.59150,-0.3094649941
2.59200,0.606118229
2.59250,0.9113126367
2.59300,0.9113126367
2.59350,1.216507044
2.59400,1.82689586
2.59450,2.132090267
2.59500,1.216507044
2.59550,0.3009238213
2.59600,-0.004270586415
2.59650,-0.004270586415
2.59700,0.3009238213
2.59750,0.9113126367
2.59800,1.521701452
2.59850,1.216507044
2.59900,-0.004270586415
2.59950,-0.004270586415
2.60000,1.216507044
2.60050,2.132090267
2.60100,0.3009238213
2.60150,-1.530242625
2.60200,-2.14063144
2.60250,-0.9198538095
2.60300,-0.3094649941
2.60350,-0.6146594018
2.60400,-0.3094649941
2.60450,-0.004270586415
2.60500,-0.004270586415
2.60550,-1.530242625
2.60600,-2.14063144
2.60650,-0.9198538095
2.60700,-0.004270586415
2.60750,-0.004270586415
2.60800,-0.9198538095
2.60850,-0.6146594018
2.60900,-0.004270586415
2.60950,0.606118229
2.61000,0.3009238213
2.61050,0.606118229
2.61100,1.216507044
2.61150,1.521701452
2.61200,0.606118229
2.61250,-0.004270586415
2.61300,-0.004270586415
2.61350,1.216507044
2.61400,2.132090267
2.61450,1.82689586
2.61500,0.3009238213
2.61550,-0.3094649941
2.61600,-0.3094649941
2.61650,-0.004270586415
2.61700,-0.3094649941
2.61750,-0.9198538095
2.61800,-0.9198538095
2.61850,-0.004270586415
2.61900,0.3009238213
2.61950,0.606118229
2.62000,0.9113126367
2.62050,0.3009238213
2.62100,-0.6146594018
2.62150,-0.9198538095
2.62200,-0.3094649941
2.62250,0.3009238213
2.62300,0.606118229
2.62350,0.9113126367
2.62400,1.216507044
2.62450,0.606118229
2.62500,-0.3094649941
2.62550,-0.6146594018
2.62600,-0.004270586415
2.62650,0.3009238213
2.62700,-0.3094649941
2.62750,-0.6146594018
2.62800,-0.004270586415
2.62850,-0.004270586415
2.62900,-0.6146594018
2.62950,-1.225048217
2.63000,-0.3094649941
2.63050,0.3009238213
2.63100,-0.004270586415
2.63150,-0.6146594018
2.63200,-0.3094649941
2.63250,0.9113126367
2.63300,1.216507044
2.63350,-0.004270586415
2.63400,-0.6146594018
2.63450,-0.3094649941
2.63500,-0.004270586415
2.63550,0.3009238213
2.63600,-0.004270586415
2.63650,0.3009238213
2.63700,0.9113126367
2.63750,1.521701452
2.63800,0.3009238213
2.63850,-0.9198538095
2.63900,-1.225048217
2.63950,-0.004270586415
2.64000,0.9113126367
2.64050,0.3009238213
2.64100,-0.6146594018
2.64150,-0.004270586415
2.64200,1.216507044
2.64250,1.521701452
2.64300,0.3009238213
2.64350,-0.3094649941
2.64400,-0.004270586415
2.64450,0.3009238213
2.64500,0.3009238213
2.64550,0.3009238213
2.64600,0.9113126367
2.64650,1.521701452
2.64700,1.521701452
2.64750,1.216507044
2.64800,0.9113126367
2.64850,-0.3094649941
2.64900,-1.835437033
2.64950,-1.835437033
2.65000,-0.6146594018
2.65050,-0.004270586415
2.65100,-0.3094649941
2.65150,-0.6146594018
2.65200,-0.3094649941
2.65250,-0.3094649941
2.65300,-0.6146594018
2.65350,-0.6146594018
2.65400,-0.004270586415
2.65450,-0.004270586415
2.65500,-0.6146594018
2.65550,-1.225048217
2.65600,-1.225048217
2.65650,-1.225048217
2.65700,-1.225048217
2.65750,-1.530242625
2.65800,-1.225048217
2.65850,-0.6146594018
2.65900,-0.004270586415
2.65950,-0.3094649941
2.66000,-0.6146594018
2.66050,-0.6146594018
2.66100,-0.3094649941
2.66150,-0.3094649941
2.66200,-0.3094649941
2.66250,-0.6146594018
2.66300,-0.3094649941
2.66350,-0.3094649941
2.66400,-0.9198538095
2.66450,-1.530242625
2.66500,-1.530242625
2.66550,-0.9198538095
2.66600,-0.3094649941
2.66650,-0.004270586415
2.66700,0.3009238213
2.66750,0.606118229
2.66800,-0.004270586415
2.66850,-0.9198538095
2.66900,-1.225048217
2.66950,-0.3094649941
2.67000,0.606118229
2.67050,0.3009238213
2.67100,-0.004270586415
2.67150,-0.004270586415
2.67200,-0.3094649941
2.67250,-0.9198538095
2.67300,-1.225048217
2.67350,-0.3094649941
2.67400,0.3009238213
2.67450,-0.004270586415
2.67500,-2.14063144
2.67550,-2.751020256
2.67600,-1.530242625
2.67650,-0.004270586415
2.67700,0.606118229
2.67750,0.3009238213
2.67800,-0.004270586415
2.67850,-0.004270586415
2.67900,-0.3094649941
2.67950,-0.6146594018
2.68000,-0.004270586415
2.68050,0.9113126367
2.68100,1.82689586
2.68150,2.132090267
2.68200,1.82689586
2.68250,1.216507044
2.68300,0.606118229
2.68350,-0.004270586415
2.68400,0.3009238213
2.68450,0.9113126367
2.68500,0.606118229
2.68550,-0.3094649941
2.68600,-1.530242625
2.68650,-1.225048217
2.68700,-0.6146594018
2.68750,-0.3094649941
2.68800,-0.004270586415
2.68850,0.3009238213
2.68900,0.9113126367
2.68950,0.606118229
2.69000,-0.004270586415
2.69050,-0.3094649941
2.69100,-0.3094649941
2.69150,-0.9198538095
2.69200,-1.225048217
2.69250,-1.225048217
2.69300,-0.6146594018
2.69350,-0.3094649941
2.69400,-0.004270586415
2.69450,0.9113126367
2.69500,2.437284675
2.69550,2.437284675
2.69600,0.606118229
2.69650,-0.3094649941
2.69700,-0.004270586415
2.69750,0.3009238213
2.69800,-0.004270586415
2.69850,-0.6146594018
2.69900,-0.3094649941
2.69950,0.3009238213
2.70000,0.3009238213
2.70050,-0.3094649941
2.70100,-0.6146594018
2.70150,-0.004270586415
2.70200,0.9113126367
2.70250,1.521701452
2.70300,1.521701452
2.70350,0.9113126367
2.70400,-0.004270586415
2.70450,-0.6146594018
2.70500,-0.3094649941
2.70550,0.606118229
2.70600,0.3009238213
2.70650,-0.3094649941
2.70700,-0.004270586415
2.70750,0.9113126367
2.70800,1.216507044
2.70850,-0.6146594018
2.70900,-2.751020256
2.70950,-2.445825848
2.71000,-0.3094649941
2.71050,0.606118229
2.71100,-0.004270586415
2.71150,-1.225048217
2.71200,-0.9198538095
2.71250,-0.3094649941
2.71300,-0.6146594018
2.71350,-1.530242625
2.71400,-2.14063144
2.71450,-1.835437033
2.71500,-1.225048217
2.71550,-0.3094649941
2.71600,-0.004270586415
2.71650,-0.3094649941
2.71700,-0.6146594018
2.71750,-0.6146594018
2.71800,0.9113126367
2.71850,3.352867898
2.71900,3.963256714
2.71950,2.742479083
2.72000,0.606118229
2.72050,-0.004270586415
2.72100,0.606118229
2.72150,0.3009238213
2.72200,-0.3094649941
2.72250,-0.9198538095
2.72300,-0.6146594018
2.72350,-0.004270586415
2.72400,0.606118229
2.72450,0.606118229
2.72500,0.606118229
2.72550,0.606118229
2.72600,0.3009238213
2.72650,0.3009238213
2.72700,0.3009238213
2.72750,-0.004270586415
2.72800,-0.004270586415
2.72850,0.3009238213
2.72900,1.216507044
2.72950,1.216507044
2.73000,-0.004270586415
2.73050,-1.530242625
2.73100,-0.9198538095
2.73150,0.3009238213
2.73200,0.9113126367
2.73250,0.3009238213
2.73300,-0.004270586415
2.73350,-0.3094649941
2.73400,-0.6146594018
2.73450,-1.225048217
2.73500,-0.6146594018
2.73550,-0.3094649941
2.73600,-0.004270586415
2.73650,-0.004270586415
2.73700,0.606118229
2.73750,2.132090267
2.73800,1.82689586
2.73850,-0.004270586415
2.73900,-1.835437033
2.73950,-1.225048217
2.74000,0.3009238213
2.74050,0.9113126367
2.74100,0.9113126367
2.74150,0.606118229
2.74200,-0.004270586415
2.74250,-0.9198538095
2.74300,-2.14063144
2.74350,-1.835437033
2.74400,-0.6146594018
2.74450,-0.004270586415
2.74500,-0.004270586415
2.74550,-0.004270586415
2.74600,-0.004270586415
2.74650,-0.3094649941
2.74700,-0.6146594018
2.74750,0.3009238213
2.74800,2.132090267
2.74850,2.742479083
2.74900,1.521701452
2.74950,-0.004270586415
2.75000,-0.3094649941
2.75050,-0.3094649941
2.75100,-0.9198538095
2.75150,-0.6146594018
2.75200,-0.004270586415
2.75250,0.3009238213
2.75300,-0.004270586415
2.75350,-0.3094649941
2.75400,-0.3094649941
2.75450,-0.004270586415
2.75500,0.3009238213
2.75550,-0.004270586415
2.75600,-0.004270586415
2.75650,-0.004270586415
2.75700,0.606118229
2.75750,1.216507044
2.75800,0.3009238213
2.75850,-0.004270586415
2.75900,-0.004270586415
2.75950,0.606118229
2.76000,0.3009238213
2.76050,-0.3094649941
2.76100,-0.6146594018
2.76150,-0.004270586415
2.76200,0.9113126367
2.76250,0.9113126367
2.76300,-0.004270586415
2.76350,-0.004270586415
2.76400,-0.3094649941
2.76450,-0.3094649941
2.76500,-0.3094649941
2.76550,-0.004270586415
2.76600,0.3009238213
2.76650,0.3009238213
2.76700,0.606118229
2.76750,0.606118229
2.76800,-0.004270586415
2.76850,-0.3094649941
2.76900,-0.004270586415
2.76950,0.9113126367
2.77000,1.216507044
2.77050,-0.004270586415
2.77100,-0.9198538095
2.77150,-0.004270586415
2.77200,0.9113126367
2.77250,0.606118229
2.77300,-0.3094649941
2.77350,-0.6146594018
2.77400,-0.004270586415
2.77450,0.606118229
2.77500,0.3009238213
2.77550,-0.3094649941
2.77600,-0.9198538095
2.77650,-0.6146594018
2.77700,-0.004270586415
2.77750,-0.004270586415
2.77800,-0.004270586415
2.77850,-0.3094649941
2.77900,-0.004270586415
2.77950,1.216507044
2.78000,1.216507044
2.78050,0.3009238213
2.78100,-0.004270586415
2.78150,-0.3094649941
2.78200,-0.004270586415
2.78250,-0.004270586415
2.78300,-0.004270586415
2.78350,-0.004270586415
2.78400,-0.004270586415
2.78450,-0.004270586415
2.78500,-0.004270586415
2.78550,-0.004270586415
2.78600,-0.3094649941
2.78650,-0.3094649941
2.78700,-0.004270586415
2.78750,-0.004270586415
2.78800,-0.004270586415
2.78850,-0.9198538095
2.78900,-1.530242625
2.78950,-0.6146594018
2.79000,0.3009238213
2.79050,0.3009238213
2.79100,-0.004270586415
2.79150,-0.6146594018
2.79200,-0.004270586415
2.79250,0.3009238213
2.79300,-0.004270586415
2.79350,-0.004270586415
2.79400,0.606118229
2.79450,1.521701452
2.79500,1.521701452
2.79550,0.3009238213
2.79600,-0.3094649941
2.79650,-0.004270586415
2.79700,0.606118229
2.79750,0.9113126367
2.79800,0.606118229
2.79850,0.3009238213
2.79900,0.3009238213
2.79950,-0.004270586415
2.80000,-0.9198538095
2.80050,-1.835437033
2.80100,-1.225048217
2.80150,-0.004270586415
2.80200,0.606118229
2.80250,-0.004270586415
2.80300,-0.6146594018
2.80350,-0.6146594018
2.80400,-0.004270586415
2.80450,-0.004270586415
2.80500,-0.3094649941
2.80550,-0.004270586415
2.80600,-0.004270586415
2.80650,-0.004270586415
2.80700,-0.3094649941
2.80750,-0.004270586415
2.80800,1.521701452
2.80850,1.521701452
2.80900,-0.004270586415
2.80950,-0.9198538095
2.81000,-0.004270586415
2.81050,1.521701452
2.81100,1.521701452
2.81150,0.3009238213
2.81200,-0.004270586415
2.81250,0.3009238213
2.81300,0.3009238213
2.81350,-0.3094649941
2.81400,-0.3094649941
2.81450,-0.004270586415
2.81500,-0.004270586415
2.81550,-0.6146594018
2.81600,-1.835437033
2.81650,-1.835437033
2.81700,-0.9198538095
2.81750,-0.3094649941
2.81800,-0.004270586415
2.81850,-0.004270586415
2.81900,-0.004270586415
2.81950,-0.004270586415
2.82000,-0.004270586415
2.82050,-0.6146594018
2.82100,-1.225048217
2.82150,-1.225048217
2.82200,-0.004270586415
2.82250,1.521701452
2.82300,1.82689586
2.82350,0.9113126367
2.82400,0.3009238213
2.82450,0.606118229
2.82500,0.606118229
2.82550,-0.3094649941
2.82600,-1.225048217
2.82650,-0.3094649941
2.82700,0.606118229
2.82750,-0.004270586415
2.82800,-1.225048217
2.82850,-0.6146594018
2.82900,0.9113126367
2.82950,1.216507044
2.83000,-0.3094649941
2.83050,-1.225048217
2.83100,-0.3094649941
2.83150,0.3009238213
2.83200,-0.004270586415
2.83250,-0.004270586415
2.83300,0.3009238213
2.83350,0.3009238213
2.83400,-0.3094649941
2.83450,-1.225048217
2.83500,-0.6146594018
2.83550,-0.004270586415
2.83600,0.3009238213
2.83650,-0.004270586415
2.83700,-0.004270586415
2.83750,-0.004270586415
2.83800,-0.004270586415
2.83850,0.3009238213
2.83900,0.606118229
2.83950,-0.004270586415
2.84000,-0.3094649941
2.84050,-0.3094649941
2.84100,-0.004270586415
