type,name,time_units,begin_time,frequency,count,units
signal,"Noraxon Ultium-RT BRACHIORAD.","s",0.00000,2000,61720,"uV"

time,value
0.00000,25.80334068
0.00050,28.85528476
0.00100,25.19295186
0.00150,19.08906371
0.00200,14.816342
0.00250,10.8488147
0.00300,5.660509772
0.00350,1.082593656
0.00400,-0.1381839747
0.00450,-0.1381839747
0.00500,-1.664156013
0.00550,-5.631683313
0.00600,-12.9563491
0.00650,-22.11218133
0.00700,-28.21606948
0.00750,-28.52126389
0.00800,-27.30048626
0.00850,-30.65762474
0.00900,-37.67709612
0.00950,-39.81345698
0.01000,-37.37190171
0.01050,-38.59267935
0.01100,-47.74851158
0.01150,-55.68356618
0.01200,-52.6316221
0.01250,-41.03423461
0.01300,-30.04723593
0.01350,-22.72257014
0.01400,-15.09270995
0.01450,-5.021294498
0.01500,4.439732141
0.01550,9.933231479
0.01600,9.933231479
0.01650,6.881287402
0.01700,3.829343325
0.01750,4.134537733
0.01800,7.796870626
0.01850,9.322842664
0.01900,4.439732141
0.01950,-5.326488906
0.02000,-16.00829318
0.02050,-22.41737574
0.02100,-24.24854218
0.02150,-24.24854218
0.02200,-27.30048626
0.02250,-33.09918001
0.02300,-34.31995764
0.02350,-25.46931981
0.02400,-10.51479384
0.02450,2.608565695
0.02500,14.20595319
0.02550,26.7189239
0.02600,36.79033936
0.02650,37.70592258
0.02700,30.99164561
0.02750,26.7189239
0.02800,28.55009035
0.02850,29.77086798
0.02900,27.02411831
0.02950,23.36178542
0.03000,21.83581338
0.03050,18.17348049
0.03100,9.933231479
0.03150,1.082593656
0.03200,-4.71610009
0.03250,-9.904405021
0.03300,-14.78751554
0.03350,-15.70309877
0.03400,-11.43037706
0.03450,-8.988821798
0.03500,-12.9563491
0.03550,-16.9238764
0.03600,-13.56673791
0.03650,-5.326488906
0.03700,-0.1381839747
0.03750,0.4722048407
0.03800,-0.1381839747
0.03850,0.4722048407
0.03900,1.998176879
0.03950,6.881287402
0.04000,16.64750845
0.04050,27.63450713
0.04100,33.73839528
0.04150,31.90722883
0.04200,26.10853509
0.04250,18.4786749
0.04300,9.933231479
0.04350,3.524148918
0.04400,3.524148918
0.04450,9.322842664
0.04500,13.90075878
0.04550,11.45920352
0.04600,3.21895451
0.04650,-4.410905683
0.04700,-10.20959943
0.04750,-15.70309877
0.04800,-22.72257014
0.04850,-29.43684711
0.04900,-34.01476323
0.04950,-36.45631849
0.05000,-36.7615129
0.05050,-34.62515204
0.05100,-32.48879119
0.05150,-32.48879119
0.05200,-32.48879119
0.05250,-27.60568067
0.05300,-16.9238764
0.05350,-6.242072129
0.05400,-1.969350421
0.05450,-2.884933644
0.05500,-3.495322459
0.05550,-1.969350421
0.05600,0.167010433
0.05650,1.998176879
0.05700,5.660509772
0.05750,11.45920352
0.05800,17.25789726
0.05850,21.22542456
0.05900,24.27736864
0.05950,27.63450713
0.06000,30.3812568
0.06050,30.6864512
0.06100,28.55009035
0.06150,25.49814627
0.06200,23.97217423
0.06250,24.88775746
0.06300,27.63450713
0.06350,30.3812568
0.06400,31.90722883
0.06450,32.82281206
0.06500,32.82281206
0.06550,30.3812568
0.06600,23.36178542
0.06650,14.20595319
0.06700,8.407259441
0.06750,8.712453849
0.06800,12.67998115
0.06850,14.51114759
0.06900,12.37478674
0.06950,8.407259441
0.07000,4.744926549
0.07050,1.387788064
0.07100,-3.495322459
0.07150,-11.73557147
0.07200,-21.80698692
0.07250,-28.21606948
0.07300,-26.38490304
0.07350,-18.44984844
0.07400,-11.43037706
0.07450,-10.20959943
0.07500,-11.12518265
0.07550,-8.68362739
0.07600,-3.495322459
0.07650,-0.4433783824
0.07700,-1.969350421
0.07750,-6.547266536
0.07800,-11.43037706
0.07850,-13.56673791
0.07900,-11.43037706
0.07950,-7.157655352
0.08000,-4.410905683
0.08050,-6.242072129
0.08100,-9.294016206
0.08150,-9.904405021
0.08200,-11.43037706
0.08250,-19.36543166
0.08300,-30.96281915
0.08350,-33.70956882
0.08400,-21.50179251
0.08450,-2.884933644
0.08500,7.18648181
0.08550,6.270898587
0.08600,2.303371287
0.08650,3.21895451
0.08700,7.18648181
0.08750,8.407259441
0.08800,5.965704179
0.08850,5.355315364
0.08900,8.712453849
0.08950,13.59556437
0.09000,16.64750845
0.09050,18.7838693
0.09100,20.61503575
0.09150,21.22542456
0.09200,19.08906371
0.09250,17.86828608
0.09300,20.30984134
0.09350,23.05659101
0.09400,21.22542456
0.09450,16.95270286
0.09500,17.86828608
0.09550,26.7189239
0.09600,35.87475613
0.09650,38.3163114
0.09700,33.73839528
0.09750,27.02411831
0.09800,19.69945253
0.09850,11.76439793
0.09900,6.270898587
0.09950,5.355315364
0.10000,7.796870626
0.10050,9.322842664
0.10100,9.017648256
0.10150,8.102065033
0.10200,6.576092995
0.10250,3.524148918
0.10300,0.4722048407
0.10350,-1.664156013
0.10400,-4.71610009
0.10450,-10.51479384
0.10500,-17.22907081
0.10550,-22.41737574
0.10600,-23.94334778
0.10650,-22.72257014
0.10700,-22.11218133
0.10750,-24.55373659
0.10800,-29.43684711
0.10850,-32.48879119
0.10900,-29.74204152
0.10950,-23.63815337
0.11000,-19.06023725
0.11050,-18.14465403
0.11100,-17.83945962
0.11150,-16.9238764
0.11200,-17.83945962
0.11250,-20.28101488
0.11300,-19.36543166
0.11350,-11.43037706
0.11400,-0.1381839747
0.11450,9.017648256
0.11500,12.67998115
0.11550,12.98517556
0.11600,13.59556437
0.11650,16.95270286
0.11700,22.14100779
0.11750,26.10853509
0.11800,26.7189239
0.11850,24.58256305
0.11900,22.7513966
0.11950,20.61503575
0.12000,18.17348049
0.12050,16.03711963
0.12100,15.12153641
0.12150,13.59556437
0.12200,11.15400911
0.12250,12.06959233
0.12300,18.7838693
0.12350,24.58256305
0.12400,23.05659101
0.12450,17.86828608
0.12500,18.7838693
0.12550,25.19295186
0.12600,28.24489594
0.12650,27.02411831
0.12700,28.24489594
0.12750,32.21242324
0.12800,30.3812568
0.12850,22.7513966
0.12900,20.92023016
0.12950,30.6864512
0.13000,41.06306107
0.13050,41.36825547
0.13100,35.26436732
0.13150,30.99164561
0.13200,25.80334068
0.13250,12.37478674
0.13300,-5.021294498
0.13350,-17.22907081
0.13400,-23.94334778
0.13450,-32.18359678
0.13500,-42.56020665
0.13550,-49.57967802
0.13600,-53.54720532
0.13650,-59.65109348
0.13700,-68.80692571
0.13750,-75.21600827
0.13800,-76.13159149
0.13850,-74.91081386
0.13900,-71.24848097
0.13950,-63.31342637
0.14000,-52.6316221
0.14050,-44.6965675
0.14100,-38.59267935
0.14150,-29.13165271
0.14200,-16.9238764
0.14250,-9.904405021
0.14300,-10.51479384
0.14350,-10.20959943
0.14400,-4.105711275
0.14450,2.608565695
0.14500,5.355315364
0.14550,6.881287402
0.14600,12.67998115
0.14650,20.30984134
0.14700,25.19295186
0.14750,27.93970153
0.14800,32.21242324
0.14850,37.09553376
0.14900,39.53708903
0.14950,40.14747784
0.15000,43.50461633
0.15050,50.82928211
0.15100,57.54355908
0.15150,60.29030875
0.15200,58.76433671
0.15250,54.1864206
0.15300,49.91369889
0.15350,46.251366
0.15400,40.75786666
0.15450,29.46567357
0.15500,11.45920352
0.15550,-6.547266536
0.15600,-20.28101488
0.15650,-30.96281915
0.15700,-43.47578987
0.15750,-58.43031585
0.15800,-73.38484182
0.15850,-84.98222932
0.15900,-91.39131188
0.15950,-91.39131188
0.16000,-87.72897899
0.16050,-85.89781254
0.16100,-87.42378458
0.16150,-83.45625728
0.16200,-66.97575926
0.16250,-44.39137309
0.16300,-29.13165271
0.16350,-24.858931
0.16400,-23.33295896
0.16450,-16.61868199
0.16500,-7.46284976
0.16550,-1.053767198
0.16600,3.524148918
0.16650,10.8488147
0.16700,18.4786749
0.16750,23.05659101
0.16800,24.58256305
0.16850,25.80334068
0.16900,26.7189239
0.16950,26.10853509
0.17000,24.88775746
0.17050,25.80334068
0.17100,27.32931272
0.17150,26.7189239
0.17200,23.36178542
0.17250,20.00464693
0.17300,18.17348049
0.17350,17.25789726
0.17400,16.64750845
0.17450,16.34231404
0.17500,15.73192523
0.17550,14.20595319
0.17600,12.67998115
0.17650,13.59556437
0.17700,16.34231404
0.17750,17.86828608
0.17800,17.25789726
0.17850,16.95270286
0.17900,17.56309167
0.17950,17.25789726
0.18000,14.816342
0.18050,12.06959233
0.18100,11.45920352
0.18150,12.37478674
0.18200,11.15400911
0.18250,6.881287402
0.18300,2.303371287
0.18350,1.082593656
0.18400,2.303371287
0.18450,2.303371287
0.18500,1.082593656
0.18550,0.7773992484
0.18600,3.21895451
0.18650,6.270898587
0.18700,6.576092995
0.18750,3.21895451
0.18800,-0.4433783824
0.18850,-1.969350421
0.18900,-1.969350421
0.18950,-1.664156013
0.19000,-0.7485727901
0.19050,2.303371287
0.19100,6.576092995
0.19150,7.796870626
0.19200,5.050120956
0.19250,1.998176879
0.19300,2.608565695
0.19350,5.660509772
0.19400,8.102065033
0.19450,10.23842589
0.19500,13.90075878
0.19550,17.56309167
0.19600,17.56309167
0.19650,12.98517556
0.19700,7.491676218
0.19750,5.050120956
0.19800,4.744926549
0.19850,3.829343325
0.19900,0.7773992484
0.19950,-2.579739236
0.20000,-5.631683313
0.20050,-6.852460944
0.20100,-4.105711275
0.20150,3.524148918
0.20200,14.816342
0.20250,25.19295186
0.20300,28.24489594
0.20350,20.61503575
0.20400,4.439732141
0.20450,-11.43037706
0.20500,-19.06023725
0.20550,-17.22907081
0.20600,-12.9563491
0.20650,-12.04076588
0.20700,-12.65115469
0.20750,-11.12518265
0.20800,-6.852460944
0.20850,-3.190128052
0.20900,-2.274544829
0.20950,-2.274544829
0.21000,-1.053767198
0.21050,1.387788064
0.21100,5.050120956
0.21150,8.102065033
0.21200,9.017648256
0.21250,8.407259441
0.21300,9.933231479
0.21350,13.29036996
0.21400,15.12153641
0.21450,12.06959233
0.21500,5.965704179
0.21550,2.608565695
0.21600,1.998176879
0.21650,1.998176879
0.21700,0.7773992484
0.21750,-1.358961606
0.21800,-5.326488906
0.21850,-9.904405021
0.21900,-11.43037706
0.21950,-7.157655352
0.22000,-0.4433783824
0.22050,2.913760102
0.22100,2.303371287
0.22150,0.7773992484
0.22200,-2.579739236
0.22250,-12.34596028
0.22300,-24.55373659
0.22350,-28.52126389
0.22400,-18.75504284
0.22450,-4.410905683
0.22500,1.692982472
0.22550,-1.664156013
0.22600,-8.378432983
0.22650,-12.04076588
0.22700,-12.04076588
0.22750,-8.68362739
0.22800,-0.7485727901
0.22850,7.796870626
0.22900,12.67998115
0.22950,12.37478674
0.23000,12.06959233
0.23050,15.12153641
0.23100,18.4786749
0.23150,17.56309167
0.23200,14.20595319
0.23250,13.90075878
0.23300,16.34231404
0.23350,17.25789726
0.23400,14.51114759
0.23450,12.37478674
0.23500,13.90075878
0.23550,16.34231404
0.23600,15.12153641
0.23650,12.98517556
0.23700,15.12153641
0.23750,19.69945253
0.23800,21.53061897
0.23850,17.86828608
0.23900,12.37478674
0.23950,8.407259441
0.24000,4.744926549
0.24050,-0.1381839747
0.24100,-4.410905683
0.24150,-7.768044167
0.24200,-11.43037706
0.24250,-15.70309877
0.24300,-18.75504284
0.24350,-20.58620929
0.24400,-22.41737574
0.24450,-24.858931
0.24500,-25.77451422
0.24550,-24.24854218
0.24600,-22.72257014
0.24650,-21.80698692
0.24700,-18.75504284
0.24750,-11.73557147
0.24800,-4.410905683
0.24850,-1.053767198
0.24900,-0.4433783824
0.24950,-0.1381839747
0.25000,1.998176879
0.25050,5.050120956
0.25100,8.102065033
0.25150,11.15400911
0.25200,12.98517556
0.25250,15.42673082
0.25300,20.61503575
0.25350,27.32931272
0.25400,30.3812568
0.25450,28.24489594
0.25500,25.19295186
0.25550,24.27736864
0.25600,23.66697983
0.25650,25.19295186
0.25700,35.26436732
0.25750,52.35525415
0.25800,62.1214752
0.25850,54.79680941
0.25900,38.6215058
0.25950,30.07606239
0.26000,33.12800646
0.26050,35.87475613
0.26100,31.60203443
0.26150,23.36178542
0.26200,15.42673082
0.26250,6.881287402
0.26300,-3.495322459
0.26350,-14.17712673
0.26400,-23.94334778
0.26450,-35.23554086
0.26500,-48.96928921
0.26550,-61.48225992
0.26600,-69.41731452
0.26650,-75.52120268
0.26700,-82.23547965
0.26750,-88.3393678
0.26800,-90.17053425
0.26850,-86.81339576
0.26900,-82.23547965
0.26950,-77.65756353
0.27000,-69.72250893
0.27050,-55.37837177
0.27100,-39.20306816
0.27150,-30.04723593
0.27200,-29.13165271
0.27250,-29.74204152
0.27300,-25.77451422
0.27350,-19.67062607
0.27400,-17.53426521
0.27450,-17.22907081
0.27500,-12.9563491
0.27550,-7.157655352
0.27600,-6.547266536
0.27650,-12.34596028
0.27700,-16.9238764
0.27750,-15.70309877
0.27800,-12.9563491
0.27850,-15.09270995
0.27900,-20.58620929
0.27950,-25.77451422
0.28000,-27.91087508
0.28050,-25.16412541
0.28100,-17.22907081
0.28150,-8.073238575
0.28200,-1.053767198
0.28250,3.524148918
0.28300,8.102065033
0.28350,9.628037072
0.28400,4.439732141
0.28450,-3.495322459
0.28500,-5.326488906
0.28550,-1.053767198
0.28600,0.167010433
0.28650,-3.190128052
0.28700,-6.242072129
0.28750,-4.105711275
0.28800,-2.579739236
0.28850,-5.326488906
0.28900,-8.073238575
0.28950,-6.547266536
0.29000,-4.71610009
0.29050,-4.410905683
0.29100,-0.1381839747
0.29150,11.76439793
0.29200,22.4462022
0.29250,22.14100779
0.29300,14.816342
0.29350,8.102065033
0.29400,2.303371287
0.29450,-4.410905683
0.29500,-5.326488906
0.29550,8.102065033
0.29600,28.85528476
0.29650,38.01111699
0.29700,30.07606239
0.29750,19.08906371
0.29800,15.42673082
0.29850,16.03711963
0.29900,13.59556437
0.29950,9.933231479
0.30000,8.712453849
0.30050,8.407259441
0.30100,5.660509772
0.30150,5.965704179
0.30200,13.59556437
0.30250,24.27736864
0.30300,29.46567357
0.30350,27.63450713
0.30400,23.66697983
0.30450,20.00464693
0.30500,15.42673082
0.30550,12.06959233
0.30600,13.29036996
0.30650,17.86828608
0.30700,21.53061897
0.30750,24.58256305
0.30800,28.24489594
0.30850,30.3812568
0.30900,27.63450713
0.30950,23.05659101
0.31000,22.14100779
0.31050,25.19295186
0.31100,26.7189239
0.31150,24.58256305
0.31200,21.83581338
0.31250,20.30984134
0.31300,18.17348049
0.31350,15.12153641
0.31400,12.67998115
0.31450,11.15400911
0.31500,9.322842664
0.31550,8.712453849
0.31600,10.23842589
0.31650,11.76439793
0.31700,9.322842664
0.31750,5.050120956
0.31800,4.134537733
0.31850,5.965704179
0.31900,6.881287402
0.31950,6.576092995
0.32000,8.407259441
0.32050,12.37478674
0.32100,12.06959233
0.32150,4.439732141
0.32200,-2.884933644
0.32250,-2.274544829
0.32300,5.965704179
0.32350,16.64750845
0.32400,23.36178542
0.32450,23.97217423
0.32500,19.08906371
0.32550,10.8488147
0.32600,2.608565695
0.32650,-3.495322459
0.32700,-8.68362739
0.32750,-13.87193232
0.32800,-19.36543166
0.32850,-24.55373659
0.32900,-29.13165271
0.32950,-31.57320797
0.33000,-31.26801356
0.33050,-30.65762474
0.33100,-31.26801356
0.33150,-32.18359678
0.33200,-30.35243034
0.33250,-26.69009744
0.33300,-26.07970863
0.33350,-29.43684711
0.33400,-31.87840238
0.33450,-30.04723593
0.33500,-26.69009744
0.33550,-25.46931981
0.33600,-24.858931
0.33650,-19.06023725
0.33700,-7.768044167
0.33750,4.134537733
0.33800,11.76439793
0.33850,14.816342
0.33900,15.42673082
0.33950,14.816342
0.34000,15.12153641
0.34050,18.7838693
0.34100,26.7189239
0.34150,36.17995054
0.34200,43.50461633
0.34250,45.64097718
0.34300,42.5890331
0.34350,37.40072817
0.34400,33.73839528
0.34450,31.29684002
0.34500,27.32931272
0.34550,23.66697983
0.34600,30.3812568
0.34650,53.57603178
0.34700,83.48508374
0.34750,99.96558175
0.34800,94.77727682
0.34850,79.21236203
0.34900,67.61497454
0.34950,60.59550316
0.35000,52.05005974
0.35050,42.89422751
0.35100,38.3163114
0.35150,35.56956173
0.35200,25.80334068
0.35250,6.576092995
0.35300,-15.09270995
0.35350,-31.87840238
0.35400,-43.47578987
0.35450,-53.24201091
0.35500,-62.70303755
0.35550,-72.16406419
0.35600,-81.93028524
0.35650,-92.00170069
0.35700,-100.5471441
0.35750,-106.3458379
0.35800,-109.3977819
0.35850,-110.6185596
0.35900,-110.6185596
0.35950,-108.7873931
0.36000,-103.5990882
0.36050,-95.96922799
0.36100,-86.81339576
0.36150,-78.57314675
0.36200,-72.16406419
0.36250,-68.5017313
0.36300,-67.89134248
0.36350,-66.67056485
0.36400,-59.65109348
0.36450,-45.30695631
0.36500,-28.52126389
0.36550,-16.00829318
0.36600,-10.51479384
0.36650,-8.68362739
0.36700,-7.46284976
0.36750,-4.410905683
0.36800,-0.4433783824
0.36850,3.21895451
0.36900,5.660509772
0.36950,7.491676218
0.37000,9.933231479
0.37050,14.816342
0.37100,20.61503575
0.37150,24.88775746
0.37200,26.4137295
0.37250,25.19295186
0.37300,22.7513966
0.37350,20.92023016
0.37400,21.53061897
0.37450,23.66697983
0.37500,24.27736864
0.37550,22.7513966
0.37600,20.00464693
0.37650,18.17348049
0.37700,20.30984134
0.37750,25.19295186
0.37800,28.85528476
0.37850,27.32931272
0.37900,22.4462022
0.37950,20.61503575
0.38000,21.53061897
0.38050,20.61503575
0.38100,17.86828608
0.38150,19.69945253
0.38200,27.32931272
0.38250,30.99164561
0.38300,23.66697983
0.38350,13.29036996
0.38400,9.933231479
0.38450,11.15400911
0.38500,7.491676218
0.38550,1.082593656
0.38600,-1.358961606
0.38650,-2.579739236
0.38700,-9.599210613
0.38750,-17.83945962
0.38800,-10.20959943
0.38850,14.51114759
0.38900,36.48514495
0.38950,36.48514495
0.39000,21.53061897
0.39050,11.45920352
0.39100,13.59556437
0.39150,19.08906371
0.39200,18.4786749
0.39250,14.816342
0.39300,13.59556437
0.39350,15.73192523
0.39400,18.17348049
0.39450,19.69945253
0.39500,20.92023016
0.39550,22.14100779
0.39600,21.22542456
0.39650,19.08906371
0.39700,17.56309167
0.39750,19.39425812
0.39800,22.4462022
0.39850,24.27736864
0.39900,24.27736864
0.39950,23.66697983
0.40000,23.05659101
0.40050,21.53061897
0.40100,19.39425812
0.40150,19.39425812
0.40200,22.7513966
0.40250,28.24489594
0.40300,32.82281206
0.40350,34.95917291
0.40400,33.73839528
0.40450,28.55009035
0.40500,22.4462022
0.40550,19.39425812
0.40600,19.39425812
0.40650,18.4786749
0.40700,14.51114759
0.40750,9.628037072
0.40800,5.660509772
0.40850,-1.053767198
0.40900,-15.70309877
0.40950,-32.18359678
0.41000,-39.81345698
0.41050,-38.59267935
0.41100,-38.28748494
0.41150,-45.00176191
0.41200,-48.35890039
0.41250,-37.37190171
0.41300,-18.14465403
0.41350,-8.073238575
0.41400,-14.17712673
0.41450,-25.16412541
0.41500,-31.26801356
0.41550,-33.70956882
0.41600,-37.37190171
0.41650,-38.28748494
0.41700,-31.87840238
0.41750,-23.94334778
0.41800,-25.46931981
0.41850,-33.70956882
0.41900,-37.06670731
0.41950,-30.96281915
0.42000,-22.41737574
0.42050,-17.53426521
0.42100,-14.17712673
0.42150,-9.294016206
0.42200,-6.852460944
0.42250,-8.378432983
0.42300,-10.20959943
0.42350,-7.768044167
0.42400,-2.884933644
0.42450,2.608565695
0.42500,12.37478674
0.42550,27.32931272
0.42600,39.23189462
0.42650,39.23189462
0.42700,32.51761765
0.42750,30.6864512
0.42800,36.48514495
0.42850,39.84228343
0.42900,33.73839528
0.42950,24.88775746
0.43000,21.22542456
0.43050,20.00464693
0.43100,14.816342
0.43150,6.881287402
0.43200,2.303371287
0.43250,1.998176879
0.43300,0.7773992484
0.43350,-4.410905683
0.43400,-13.26154351
0.43450,-26.07970863
0.43500,-42.25501224
0.43550,-55.98876058
0.43600,-59.65109348
0.43650,-55.37837177
0.43700,-54.15759414
0.43750,-59.95628788
0.43800,-63.61862078
0.43850,-58.12512144
0.43900,-47.44331717
0.43950,-38.89787375
0.44000,-30.96281915
0.44050,-20.58620929
0.44100,-11.12518265
0.44150,-7.46284976
0.44200,-5.326488906
0.44250,1.387788064
0.44300,11.45920352
0.44350,16.64750845
0.44400,13.59556437
0.44450,7.796870626
0.44500,3.524148918
0.44550,2.608565695
0.44600,3.829343325
0.44650,6.576092995
0.44700,8.102065033
0.44750,7.18648181
0.44800,5.355315364
0.44850,6.576092995
0.44900,10.8488147
0.44950,14.816342
0.45000,16.34231404
0.45050,16.03711963
0.45100,15.42673082
0.45150,14.816342
0.45200,13.90075878
0.45250,11.15400911
0.45300,5.965704179
0.45350,-0.4433783824
0.45400,-6.547266536
0.45450,-10.51479384
0.45500,-13.26154351
0.45550,-12.04076588
0.45600,-4.410905683
0.45650,5.965704179
0.45700,11.15400911
0.45750,6.881287402
0.45800,-0.7485727901
0.45850,-5.936877721
0.45900,-8.073238575
0.45950,-9.599210613
0.46000,-9.294016206
0.46050,-6.242072129
0.46100,-4.71610009
0.46150,-6.852460944
0.46200,-6.242072129
0.46250,4.439732141
0.46300,23.05659101
0.46350,36.48514495
0.46400,40.75786666
0.46450,42.5890331
0.46500,47.47214363
0.46550,51.13447652
0.46600,51.74486533
0.46650,55.71239263
0.46700,67.61497454
0.46750,79.51755644
0.46800,78.90716762
0.46850,68.53055776
0.46900,60.90069757
0.46950,60.90069757
0.47000,59.37472553
0.47050,51.74486533
0.47100,45.64097718
0.47150,47.16694922
0.47200,43.80981073
0.47250,19.08906371
0.47300,-21.50179251
0.47350,-54.15759414
0.47400,-63.61862078
0.47450,-61.78745433
0.47500,-67.58614808
0.47550,-81.31989642
0.47600,-89.25495102
0.47650,-87.42378458
0.47700,-87.72897899
0.47750,-98.41078325
0.47800,-110.923754
0.47850,-111.5341428
0.47900,-100.5471441
0.47950,-88.64456221
0.48000,-81.93028524
0.48050,-77.04717472
0.48100,-70.33289775
0.48150,-62.39784315
0.48200,-54.15759414
0.48250,-46.52773395
0.48300,-39.81345698
0.48350,-35.54073527
0.48400,-31.57320797
0.48450,-24.55373659
0.48500,-16.31348758
0.48550,-10.20959943
0.48600,-6.547266536
0.48650,-2.579739236
0.48700,3.21895451
0.48750,8.407259441
0.48800,11.15400911
0.48850,10.8488147
0.48900,7.18648181
0.48950,0.4722048407
0.49000,-6.547266536
0.49050,-11.43037706
0.49100,-13.26154351
0.49150,-14.17712673
0.49200,-11.73557147
0.49250,-3.190128052
0.49300,9.017648256
0.49350,16.64750845
0.49400,15.73192523
0.49450,10.8488147
0.49500,7.796870626
0.49550,6.881287402
0.49600,6.270898587
0.49650,5.965704179
0.49700,5.965704179
0.49750,5.050120956
0.49800,2.608565695
0.49850,1.692982472
0.49900,5.050120956
0.49950,10.54362029
0.50000,13.90075878
0.50050,14.20595319
0.50100,13.59556437
0.50150,12.06959233
0.50200,9.017648256
0.50250,6.270898587
0.50300,5.965704179
0.50350,7.796870626
0.50400,9.322842664
0.50450,9.628037072
0.50500,9.933231479
0.50550,10.8488147
0.50600,11.45920352
0.50650,12.37478674
0.50700,13.90075878
0.50750,14.51114759
0.50800,12.67998115
0.50850,8.712453849
0.50900,5.965704179
0.50950,5.050120956
0.51000,5.050120956
0.51050,4.744926549
0.51100,5.355315364
0.51150,6.576092995
0.51200,7.18648181
0.51250,7.18648181
0.51300,9.017648256
0.51350,13.29036996
0.51400,16.64750845
0.51450,16.95270286
0.51500,17.25789726
0.51550,21.83581338
0.51600,31.29684002
0.51650,41.36825547
0.51700,47.77733803
0.51750,50.2188933
0.51800,50.2188933
0.51850,49.91369889
0.51900,50.2188933
0.51950,49.91369889
0.52000,48.08253244
0.52050,43.80981073
0.52100,40.14747784
0.52150,37.40072817
0.52200,34.6539785
0.52250,31.29684002
0.52300,30.3812568
0.52350,33.73839528
0.52400,36.48514495
0.52450,29.16047916
0.52500,10.54362029
0.52550,-10.20959943
0.52600,-23.02776455
0.52650,-25.77451422
0.52700,-23.02776455
0.52750,-21.50179251
0.52800,-23.63815337
0.52850,-28.52126389
0.52900,-33.40437441
0.52950,-34.62515204
0.53000,-32.48879119
0.53050,-33.40437441
0.53100,-42.25501224
0.53150,-55.07317736
0.53200,-61.17706551
0.53250,-56.5991494
0.53300,-49.57967802
0.53350,-50.19006684
0.53400,-56.5991494
0.53450,-58.43031585
0.53500,-51.71603888
0.53550,-41.94981783
0.53600,-34.93034645
0.53650,-28.52126389
0.53700,-20.58620929
0.53750,-14.78751554
0.53800,-13.87193232
0.53850,-13.56673791
0.53900,-11.12518265
0.53950,-10.20959943
0.54000,-13.87193232
0.54050,-14.17712673
0.54100,-2.274544829
0.54150,13.59556437
0.54200,17.86828608
0.54250,7.796870626
0.54300,-2.274544829
0.54350,-3.495322459
0.54400,-1.053767198
0.54450,-2.579739236
0.54500,-1.358961606
0.54550,10.54362029
0.54600,28.85528476
0.54650,40.14747784
0.54700,40.45267225
0.54750,36.17995054
0.54800,30.6864512
0.54850,23.36178542
0.54900,12.06959233
0.54950,0.167010433
0.55000,-7.157655352
0.55050,-8.68362739
0.55100,-4.71610009
0.55150,0.167010433
0.55200,1.692982472
0.55250,-1.358961606
0.55300,-6.852460944
0.55350,-12.34596028
0.55400,-18.14465403
0.55450,-22.72257014
0.55500,-23.63815337
0.55550,-20.58620929
0.55600,-16.31348758
0.55650,-13.56673791
0.55700,-12.34596028
0.55750,-11.12518265
0.55800,-8.988821798
0.55850,-5.936877721
0.55900,-1.358961606
0.55950,2.608565695
0.56000,5.050120956
0.56050,6.576092995
0.56100,9.322842664
0.56150,12.98517556
0.56200,15.12153641
0.56250,15.73192523
0.56300,16.64750845
0.56350,17.86828608
0.56400,17.56309167
0.56450,15.73192523
0.56500,14.816342
0.56550,16.64750845
0.56600,18.4786749
0.56650,18.4786749
0.56700,18.7838693
0.56750,20.30984134
0.56800,21.53061897
0.56850,20.30984134
0.56900,18.17348049
0.56950,16.34231404
0.57000,15.73192523
0.57050,16.34231404
0.57100,17.56309167
0.57150,17.25789726
0.57200,13.90075878
0.57250,8.102065033
0.57300,4.439732141
0.57350,4.439732141
0.57400,5.660509772
0.57450,5.965704179
0.57500,4.439732141
0.57550,0.4722048407
0.57600,-5.631683313
0.57650,-11.43037706
0.57700,-12.9563491
0.57750,-9.904405021
0.57800,-4.71610009
0.57850,0.167010433
0.57900,4.134537733
0.57950,2.608565695
0.58000,-4.410905683
0.58050,-9.904405021
0.58100,-3.800516867
0.58150,10.54362029
0.58200,20.92023016
0.58250,19.39425812
0.58300,11.76439793
0.58350,6.881287402
0.58400,6.576092995
0.58450,8.102065033
0.58500,11.15400911
0.58550,14.20595319
0.58600,13.59556437
0.58650,7.491676218
0.58700,1.387788064
0.58750,0.7773992484
0.58800,4.439732141
0.58850,6.270898587
0.58900,3.21895451
0.58950,-0.7485727901
0.59000,-2.579739236
0.59050,-0.7485727901
0.59100,2.303371287
0.59150,4.744926549
0.59200,5.050120956
0.59250,2.913760102
0.59300,0.7773992484
0.59350,0.167010433
0.59400,-0.7485727901
0.59450,-2.579739236
0.59500,-2.884933644
0.59550,-0.4433783824
0.59600,1.387788064
0.59650,-0.4433783824
0.59700,-6.852460944
0.59750,-13.56673791
0.59800,-17.53426521
0.59850,-17.22907081
0.59900,-10.20959943
0.59950,2.608565695
0.60000,13.59556437
0.60050,15.42673082
0.60100,11.15400911
0.60150,11.76439793
0.60200,18.17348049
0.60250,18.7838693
0.60300,9.322842664
0.60350,3.829343325
0.60400,16.64750845
0.60450,41.06306107
0.60500,56.93317027
0.60550,53.88122619
0.60600,38.6215058
0.60650,23.05659101
0.60700,10.8488147
0.60750,2.913760102
0.60800,1.082593656
0.60850,3.524148918
0.60900,4.134537733
0.60950,-1.053767198
0.61000,-10.51479384
0.61050,-19.36543166
0.61100,-27.30048626
0.61150,-34.01476323
0.61200,-37.67709612
0.61250,-38.28748494
0.61300,-37.67709612
0.61350,-37.67709612
0.61400,-38.28748494
0.61450,-39.20306816
0.61500,-41.03423461
0.61550,-41.94981783
0.61600,-38.89787375
0.61650,-30.04723593
0.61700,-16.61868199
0.61750,-4.71610009
0.61800,-0.1381839747
0.61850,-3.800516867
0.61900,-10.81998824
0.61950,-15.39790436
0.62000,-17.22907081
0.62050,-19.06023725
0.62100,-20.58620929
0.62150,-19.97582048
0.62200,-18.75504284
0.62250,-19.67062607
0.62300,-20.58620929
0.62350,-16.61868199
0.62400,-8.073238575
0.62450,-0.7485727901
0.62500,0.7773992484
0.62550,-1.053767198
0.62600,-6.242072129
0.62650,-13.56673791
0.62700,-19.97582048
0.62750,-20.8914037
0.62800,-18.44984844
0.62850,-19.97582048
0.62900,-26.69009744
0.62950,-28.8264583
0.63000,-17.53426521
0.63050,3.829343325
0.63100,24.88775746
0.63150,36.48514495
0.63200,37.09553376
0.63250,32.21242324
0.63300,29.46567357
0.63350,33.12800646
0.63400,39.23189462
0.63450,39.84228343
0.63500,33.43320087
0.63550,26.4137295
0.63600,24.27736864
0.63650,24.88775746
0.63700,24.58256305
0.63750,22.14100779
0.63800,19.39425812
0.63850,15.73192523
0.63900,12.06959233
0.63950,9.933231479
0.64000,9.628037072
0.64050,9.628037072
0.64100,9.017648256
0.64150,9.017648256
0.64200,8.712453849
0.64250,5.660509772
0.64300,-0.1381839747
0.64350,-6.242072129
0.64400,-9.904405021
0.64450,-12.34596028
0.64500,-13.56673791
0.64550,-12.34596028
0.64600,-10.20959943
0.64650,-11.12518265
0.64700,-15.70309877
0.64750,-20.58620929
0.64800,-21.50179251
0.64850,-20.58620929
0.64900,-20.58620929
0.64950,-20.28101488
0.65000,-15.09270995
0.65050,-4.71610009
0.65100,5.355315364
0.65150,10.8488147
0.65200,12.37478674
0.65250,12.67998115
0.65300,12.67998115
0.65350,13.59556437
0.65400,16.95270286
0.65450,21.83581338
0.65500,24.27736864
0.65550,22.7513966
0.65600,20.30984134
0.65650,20.30984134
0.65700,21.83581338
0.65750,23.05659101
0.65800,23.97217423
0.65850,27.02411831
0.65900,30.99164561
0.65950,30.07606239
0.66000,22.7513966
0.66050,12.98517556
0.66100,7.491676218
0.66150,7.796870626
0.66200,12.06959233
0.66250,16.34231404
0.66300,18.4786749
0.66350,18.17348049
0.66400,15.42673082
0.66450,10.23842589
0.66500,1.998176879
0.66550,-7.157655352
0.66600,-16.00829318
0.66650,-23.63815337
0.66700,-30.96281915
0.66750,-35.84592968
0.66800,-34.31995764
0.66850,-24.24854218
0.66900,-10.81998824
0.66950,-1.358961606
0.67000,1.082593656
0.67050,-0.4433783824
0.67100,-1.664156013
0.67150,-0.1381839747
0.67200,5.355315364
0.67250,13.59556437
0.67300,21.22542456
0.67350,27.32931272
0.67400,31.90722883
0.67450,35.56956173
0.67500,36.48514495
0.67550,32.51761765
0.67600,26.10853509
0.67650,21.22542456
0.67700,19.69945253
0.67750,18.17348049
0.67800,13.59556437
0.67850,4.134537733
0.67900,-8.073238575
0.67950,-22.11218133
0.68000,-34.31995764
0.68050,-42.56020665
0.68100,-47.44331717
0.68150,-50.49526125
0.68200,-52.02123328
0.68250,-52.32642769
0.68300,-51.71603888
0.68350,-48.96928921
0.68400,-42.25501224
0.68450,-33.09918001
0.68500,-27.91087508
0.68550,-29.43684711
0.68600,-32.18359678
0.68650,-31.57320797
0.68700,-29.13165271
0.68750,-26.38490304
0.68800,-20.8914037
0.68850,-12.04076588
0.68900,-6.547266536
0.68950,-9.599210613
0.69000,-14.48232114
0.69050,-15.09270995
0.69100,-16.31348758
0.69150,-23.63815337
0.69200,-27.30048626
0.69250,-12.9563491
0.69300,14.20595319
0.69350,32.51761765
0.69400,31.90722883
0.69450,23.66697983
0.69500,20.30984134
0.69550,20.61503575
0.69600,16.64750845
0.69650,7.491676218
0.69700,-1.664156013
0.69750,-8.073238575
0.69800,-7.46284976
0.69850,-1.664156013
0.69900,1.082593656
0.69950,-3.495322459
0.70000,-8.68362739
0.70050,-1.664156013
0.70100,13.59556437
0.70150,22.4462022
0.70200,19.39425812
0.70250,15.12153641
0.70300,16.34231404
0.70350,17.25789726
0.70400,12.98517556
0.70450,9.322842664
0.70500,11.76439793
0.70550,16.03711963
0.70600,16.34231404
0.70650,16.03711963
0.70700,20.00464693
0.70750,25.49814627
0.70800,27.02411831
0.70850,24.58256305
0.70900,21.83581338
0.70950,20.30984134
0.71000,18.4786749
0.71050,16.03711963
0.71100,14.816342
0.71150,16.34231404
0.71200,19.39425812
0.71250,20.30984134
0.71300,16.64750845
0.71350,10.54362029
0.71400,8.712453849
0.71450,14.51114759
0.71500,21.53061897
0.71550,22.4462022
0.71600,19.08906371
0.71650,18.4786749
0.71700,22.7513966
0.71750,27.32931272
0.71800,29.46567357
0.71850,32.21242324
0.71900,35.87475613
0.71950,34.3487841
0.72000,23.66697983
0.72050,5.660509772
0.72100,-10.51479384
0.72150,-17.83945962
0.72200,-13.56673791
0.72250,-1.053767198
0.72300,10.8488147
0.72350,14.20595319
0.72400,7.18648181
0.72450,-4.71610009
0.72500,-14.78751554
0.72550,-20.8914037
0.72600,-26.07970863
0.72650,-30.96281915
0.72700,-31.26801356
0.72750,-23.02776455
0.72800,-10.81998824
0.72850,-5.021294498
0.72900,-10.51479384
0.72950,-20.8914037
0.73000,-27.91087508
0.73050,-28.21606948
0.73100,-26.99529185
0.73150,-27.91087508
0.73200,-31.87840238
0.73250,-36.15112408
0.73300,-37.06670731
0.73350,-32.7939856
0.73400,-26.38490304
0.73450,-22.72257014
0.73500,-24.55373659
0.73550,-26.69009744
0.73600,-23.02776455
0.73650,-12.65115469
0.73700,-2.579739236
0.73750,0.4722048407
0.73800,-2.274544829
0.73850,-4.71610009
0.73900,-1.358961606
0.73950,6.270898587
0.74000,14.20595319
0.74050,19.39425812
0.74100,21.53061897
0.74150,20.92023016
0.74200,19.39425812
0.74250,19.69945253
0.74300,24.88775746
0.74350,32.51761765
0.74400,37.40072817
0.74450,39.23189462
0.74500,39.84228343
0.74550,39.53708903
0.74600,38.6215058
0.74650,38.92670021
0.74700,42.5890331
0.74750,44.42019955
0.74800,38.01111699
0.74850,27.32931272
0.74900,20.92023016
0.74950,19.08906371
0.75000,11.45920352
0.75050,-7.46284976
0.75100,-31.26801356
0.75150,-49.57967802
0.75200,-57.51473262
0.75250,-55.07317736
0.75300,-43.78098428
0.75350,-34.62515204
0.75400,-37.98229053
0.75450,-51.71603888
0.75500,-62.09264874
0.75550,-61.78745433
0.75600,-57.81992703
0.75650,-56.90434381
0.75700,-55.07317736
0.75750,-45.91734513
0.75800,-33.70956882
0.75850,-25.46931981
0.75900,-20.58620929
0.75950,-14.48232114
0.76000,-7.768044167
0.76050,-3.495322459
0.76100,-1.053767198
0.76150,1.082593656
0.76200,4.439732141
0.76250,7.491676218
0.76300,11.45920352
0.76350,15.42673082
0.76400,16.03711963
0.76450,12.67998115
0.76500,9.322842664
0.76550,9.628037072
0.76600,11.45920352
0.76650,12.67998115
0.76700,12.98517556
0.76750,13.59556437
0.76800,12.98517556
0.76850,9.933231479
0.76900,6.881287402
0.76950,6.576092995
0.77000,8.102065033
0.77050,8.712453849
0.77100,7.18648181
0.77150,6.270898587
0.77200,6.576092995
0.77250,5.965704179
0.77300,4.744926549
0.77350,6.576092995
0.77400,12.67998115
0.77450,20.00464693
0.77500,22.7513966
0.77550,20.00464693
0.77600,15.12153641
0.77650,11.45920352
0.77700,8.102065033
0.77750,5.355315364
0.77800,6.270898587
0.77850,14.816342
0.77900,29.77086798
0.77950,42.89422751
0.78000,47.16694922
0.78050,40.45267225
0.78100,26.4137295
0.78150,12.06959233
0.78200,2.303371287
0.78250,-1.358961606
0.78300,-3.495322459
0.78350,-7.768044167
0.78400,-12.65115469
0.78450,-15.39790436
0.78500,-16.00829318
0.78550,-19.06023725
0.78600,-24.55373659
0.78650,-27.91087508
0.78700,-24.55373659
0.78750,-15.09270995
0.78800,-3.495322459
0.78850,5.660509772
0.78900,10.23842589
0.78950,8.407259441
0.79000,2.303371287
0.79050,-4.105711275
0.79100,-7.768044167
0.79150,-8.073238575
0.79200,-5.021294498
0.79250,1.692982472
0.79300,9.628037072
0.79350,14.51114759
0.79400,15.42673082
0.79450,15.73192523
0.79500,17.86828608
0.79550,20.30984134
0.79600,22.14100779
0.79650,26.10853509
0.79700,33.43320087
0.79750,41.36825547
0.79800,46.86175481
0.79850,50.5240877
0.79900,51.13447652
0.79950,46.86175481
0.80000,39.84228343
0.80050,37.40072817
0.80100,41.67344988
0.80150,43.50461633
0.80200,34.95917291
0.80250,22.14100779
0.80300,18.4786749
0.80350,25.19295186
0.80400,31.90722883
0.80450,31.29684002
0.80500,26.4137295
0.80550,21.22542456
0.80600,14.20595319
0.80650,0.7773992484
0.80700,-17.83945962
0.80750,-38.28748494
0.80800,-55.98876058
0.80850,-67.28095367
0.80900,-72.4692586
0.80950,-74.60561945
0.81000,-77.35236912
0.81050,-78.87834116
0.81100,-76.4367859
0.81150,-70.63809215
0.81200,-65.44978722
0.81250,-62.09264874
0.81300,-59.04070466
0.81350,-55.37837177
0.81400,-51.71603888
0.81450,-47.74851158
0.81500,-41.33942901
0.81550,-31.57320797
0.81600,-20.28101488
0.81650,-11.12518265
0.81700,-5.021294498
0.81750,-1.358961606
0.81800,0.7773992484
0.81850,3.524148918
0.81900,7.18648181
0.81950,10.23842589
0.82000,10.8488147
0.82050,8.407259441
0.82100,5.355315364
0.82150,3.524148918
0.82200,3.21895451
0.82250,4.439732141
0.82300,6.576092995
0.82350,7.491676218
0.82400,5.965704179
0.82450,2.913760102
0.82500,0.167010433
0.82550,-1.053767198
0.82600,-2.274544829
0.82650,-2.579739236
0.82700,-0.1381839747
0.82750,4.744926549
0.82800,11.15400911
0.82850,15.12153641
0.82900,16.03711963
0.82950,14.816342
0.83000,13.29036996
0.83050,11.15400911
0.83100,9.017648256
0.83150,7.796870626
0.83200,7.796870626
0.83250,8.102065033
0.83300,7.18648181
0.83350,5.965704179
0.83400,5.355315364
0.83450,5.355315364
0.83500,4.134537733
0.83550,2.608565695
0.83600,1.998176879
0.83650,1.387788064
0.83700,-0.4433783824
0.83750,-3.800516867
0.83800,-5.326488906
0.83850,-3.800516867
0.83900,-2.274544829
0.83950,-2.579739236
0.84000,-2.884933644
0.84050,-0.7485727901
0.84100,1.998176879
0.84150,3.21895451
0.84200,3.21895451
0.84250,3.829343325
0.84300,5.050120956
0.84350,5.050120956
0.84400,2.303371287
0.84450,-1.358961606
0.84500,-3.800516867
0.84550,-3.190128052
0.84600,-1.358961606
0.84650,-0.4433783824
0.84700,-0.7485727901
0.84750,-0.1381839747
0.84800,2.608565695
0.84850,5.355315364
0.84900,5.965704179
0.84950,5.965704179
0.85000,9.017648256
0.85050,15.42673082
0.85100,21.22542456
0.85150,24.88775746
0.85200,26.7189239
0.85250,28.85528476
0.85300,34.6539785
0.85350,49.30331007
0.85400,73.71886269
0.85450,99.04999853
0.85500,112.1733581
0.85550,111.5629692
0.85600,106.3746643
0.85650,101.7967482
0.85700,93.8616936
0.85750,81.34872288
0.85800,73.71886269
0.85850,77.68638999
0.85900,85.31625018
0.85950,81.65391729
0.86000,64.25783605
0.86050,41.36825547
0.86100,17.56309167
0.86150,-8.988821798
0.86200,-38.59267935
0.86250,-61.17706551
0.86300,-70.63809215
0.86350,-75.82639708
0.86400,-88.94975662
0.86450,-112.449726
0.86500,-135.9496954
0.86550,-150.599027
0.86600,-155.1769431
0.86650,-154.5665543
0.86700,-152.124999
0.86750,-147.2418885
0.86800,-139.6120283
0.86850,-127.0990576
0.86900,-108.4821987
0.86950,-86.50820135
0.87000,-65.75498163
0.87050,-49.27448361
0.87100,-33.40437441
0.87150,-15.70309877
0.87200,-0.1381839747
0.87250,5.660509772
0.87300,2.913760102
0.87350,-1.358961606
0.87400,-1.053767198
0.87450,2.913760102
0.87500,9.322842664
0.87550,16.64750845
0.87600,21.22542456
0.87650,17.25789726
0.87700,5.965704179
0.87750,-4.410905683
0.87800,-8.378432983
0.87850,-7.768044167
0.87900,-7.46284976
0.87950,-5.631683313
0.88000,1.998176879
0.88050,13.90075878
0.88100,23.36178542
0.88150,29.16047916
0.88200,34.3487841
0.88250,40.45267225
0.88300,44.42019955
0.88350,43.80981073
0.88400,38.92670021
0.88450,32.21242324
0.88500,25.80334068
0.88550,21.53061897
0.88600,19.39425812
0.88650,17.25789726
0.88700,12.37478674
0.88750,7.18648181
0.88800,4.439732141
0.88850,2.913760102
0.88900,-1.358961606
0.88950,-8.988821798
0.89000,-16.9238764
0.89050,-21.50179251
0.89100,-22.72257014
0.89150,-21.19659811
0.89200,-16.61868199
0.89250,-11.43037706
0.89300,-8.68362739
0.89350,-9.294016206
0.89400,-11.43037706
0.89450,-12.9563491
0.89500,-15.39790436
0.89550,-21.50179251
0.89600,-30.96281915
0.89650,-40.11865138
0.89700,-45.61215072
0.89750,-47.74851158
0.89800,-48.6640948
0.89850,-49.57967802
0.89900,-48.96928921
0.89950,-45.61215072
0.90000,-39.81345698
0.90050,-33.40437441
0.90100,-27.30048626
0.90150,-22.41737574
0.90200,-19.67062607
0.90250,-18.44984844
0.90300,-16.00829318
0.90350,-11.12518265
0.90400,-5.021294498
0.90450,-1.053767198
0.90500,0.7773992484
0.90550,2.913760102
0.90600,5.050120956
0.90650,5.355315364
0.90700,4.744926549
0.90750,5.965704179
0.90800,8.712453849
0.90850,7.491676218
0.90900,1.998176879
0.90950,-1.664156013
0.91000,1.082593656
0.91050,8.102065033
0.91100,11.76439793
0.91150,10.23842589
0.91200,8.712453849
0.91250,10.23842589
0.91300,12.06959233
0.91350,12.06959233
0.91400,10.8488147
0.91450,10.54362029
0.91500,9.628037072
0.91550,7.18648181
0.91600,4.134537733
0.91650,1.692982472
0.91700,-1.053767198
0.91750,-4.410905683
0.91800,-4.105711275
0.91850,4.439732141
0.91900,18.17348049
0.91950,27.63450713
0.92000,28.24489594
0.92050,24.27736864
0.92100,21.83581338
0.92150,22.4462022
0.92200,21.53061897
0.92250,17.86828608
0.92300,14.816342
0.92350,14.816342
0.92400,16.64750845
0.92450,16.95270286
0.92500,15.73192523
0.92550,15.42673082
0.92600,16.95270286
0.92650,19.08906371
0.92700,19.08906371
0.92750,16.95270286
0.92800,13.90075878
0.92850,12.06959233
0.92900,11.15400911
0.92950,10.8488147
0.93000,11.45920352
0.93050,11.76439793
0.93100,10.8488147
0.93150,9.933231479
0.93200,9.933231479
0.93250,9.628037072
0.93300,7.796870626
0.93350,4.134537733
0.93400,0.7773992484
0.93450,-0.1381839747
0.93500,1.082593656
0.93550,3.21895451
0.93600,5.660509772
0.93650,6.576092995
0.93700,5.050120956
0.93750,4.744926549
0.93800,8.407259441
0.93850,13.59556437
0.93900,15.73192523
0.93950,15.12153641
0.94000,19.08906371
0.94050,29.46567357
0.94100,38.01111699
0.94150,37.09553376
0.94200,30.6864512
0.94250,30.07606239
0.94300,36.79033936
0.94350,42.5890331
0.94400,41.06306107
0.94450,36.17995054
0.94500,34.6539785
0.94550,37.09553376
0.94600,36.17995054
0.94650,26.4137295
0.94700,11.45920352
0.94750,-2.274544829
0.94800,-12.34596028
0.94850,-18.75504284
0.94900,-19.36543166
0.94950,-12.9563491
0.95000,-5.631683313
0.95050,-6.547266536
0.95100,-14.78751554
0.95150,-17.22907081
0.95200,-5.326488906
0.95250,10.54362029
0.95300,16.34231404
0.95350,10.23842589
0.95400,-0.7485727901
0.95450,-14.78751554
0.95500,-31.87840238
0.95550,-43.78098428
0.95600,-39.81345698
0.95650,-22.41737574
0.95700,-5.021294498
0.95750,6.881287402
0.95800,14.51114759
0.95850,15.42673082
0.95900,4.439732141
0.95950,-12.04076588
0.96000,-20.28101488
0.96050,-18.75504284
0.96100,-18.75504284
0.96150,-26.38490304
0.96200,-34.31995764
0.96250,-36.7615129
0.96300,-38.28748494
0.96350,-40.7290402
0.96400,-38.28748494
0.96450,-30.04723593
0.96500,-23.02776455
0.96550,-21.50179251
0.96600,-17.53426521
0.96650,-5.021294498
0.96700,9.017648256
0.96750,17.25789726
0.96800,20.30984134
0.96850,22.7513966
0.96900,23.05659101
0.96950,19.08906371
0.97000,12.06959233
0.97050,5.355315364
0.97100,-1.664156013
0.97150,-9.294016206
0.97200,-15.39790436
0.97250,-20.28101488
0.97300,-28.21606948
0.97350,-39.50826257
0.97400,-48.35890039
0.97450,-49.27448361
0.97500,-44.39137309
0.97550,-38.59267935
0.97600,-34.31995764
0.97650,-33.09918001
0.97700,-35.23554086
0.97750,-38.89787375
0.97800,-38.28748494
0.97850,-31.57320797
0.97900,-23.63815337
0.97950,-18.44984844
0.98000,-14.17712673
0.98050,-10.20959943
0.98100,-9.294016206
0.98150,-11.43037706
0.98200,-12.65115469
0.98250,-9.294016206
0.98300,-3.800516867
0.98350,2.303371287
0.98400,11.15400911
0.98450,22.7513966
0.98500,30.6864512
0.98550,27.63450713
0.98600,17.56309167
0.98650,9.628037072
0.98700,9.017648256
0.98750,12.06959233
0.98800,13.59556437
0.98850,12.67998115
0.98900,10.54362029
0.98950,7.796870626
0.99000,5.965704179
0.99050,6.576092995
0.99100,7.796870626
0.99150,7.18648181
0.99200,5.355315364
0.99250,5.050120956
0.99300,6.881287402
0.99350,6.270898587
0.99400,-0.7485727901
0.99450,-9.904405021
0.99500,-12.34596028
0.99550,-4.71610009
0.99600,6.270898587
0.99650,13.29036996
0.99700,11.76439793
0.99750,3.21895451
0.99800,-5.936877721
0.99850,-7.768044167
0.99900,1.998176879
0.99950,17.56309167
1.00000,24.88775746
1.00050,19.69945253
1.00100,10.8488147
1.00150,9.628037072
1.00200,16.64750845
1.00250,23.05659101
1.00300,23.97217423
1.00350,22.7513966
1.00400,22.7513966
1.00450,23.66697983
1.00500,24.27736864
1.00550,25.19295186
1.00600,27.32931272
1.00650,29.77086798
1.00700,31.90722883
1.00750,34.04358969
1.00800,35.26436732
1.00850,34.6539785
1.00900,33.73839528
1.00950,34.3487841
1.01000,34.95917291
1.01050,33.12800646
1.01100,29.16047916
1.01150,26.4137295
1.01200,23.97217423
1.01250,18.7838693
1.01300,9.933231479
1.01350,0.7773992484
1.01400,-6.242072129
1.01450,-12.9563491
1.01500,-19.67062607
1.01550,-26.07970863
1.01600,-30.65762474
1.01650,-35.23554086
1.01700,-37.98229053
1.01750,-37.06670731
1.01800,-31.87840238
1.01850,-26.99529185
1.01900,-27.60568067
1.01950,-33.09918001
1.02000,-37.37190171
1.02050,-32.18359678
1.02100,-15.70309877
1.02150,5.355315364
1.02200,18.4786749
1.02250,16.64750845
1.02300,5.050120956
1.02350,-3.800516867
1.02400,-5.021294498
1.02450,-3.190128052
1.02500,-3.495322459
1.02550,-3.800516867
1.02600,-2.884933644
1.02650,-4.105711275
1.02700,-9.294016206
1.02750,-15.39790436
1.02800,-16.61868199
1.02850,-15.09270995
1.02900,-14.78751554
1.02950,-16.31348758
1.03000,-16.00829318
1.03050,-12.65115469
1.03100,-9.294016206
1.03150,-7.157655352
1.03200,-5.326488906
1.03250,-3.495322459
1.03300,-2.884933644
1.03350,-2.274544829
1.03400,-0.1381839747
1.03450,2.608565695
1.03500,3.21895451
1.03550,1.387788064
1.03600,1.082593656
1.03650,3.21895451
1.03700,4.439732141
1.03750,2.913760102
1.03800,1.692982472
1.03850,1.692982472
1.03900,1.692982472
1.03950,0.4722048407
1.04000,-0.1381839747
1.04050,1.082593656
1.04100,2.303371287
1.04150,3.524148918
1.04200,5.965704179
1.04250,11.15400911
1.04300,16.34231404
1.04350,18.17348049
1.04400,16.64750845
1.04450,13.90075878
1.04500,12.67998115
1.04550,14.20595319
1.04600,18.4786749
1.04650,24.58256305
1.04700,30.3812568
1.04750,34.3487841
1.04800,34.6539785
1.04850,30.07606239
1.04900,21.22542456
1.04950,11.76439793
1.05000,7.18648181
1.05050,11.76439793
1.05100,27.02411831
1.05150,47.77733803
1.05200,62.73186401
1.05250,63.34225283
1.05300,52.96564297
1.05350,42.2838387
1.05400,34.04358969
1.05450,19.69945253
1.05500,-2.579739236
1.05550,-20.58620929
1.05600,-24.24854218
1.05650,-22.41737574
1.05700,-25.46931981
1.05750,-25.46931981
1.05800,-11.73557147
1.05850,1.692982472
1.05900,-11.43037706
1.05950,-50.19006684
1.06000,-80.09911879
1.06050,-76.74198031
1.06100,-57.20953821
1.06150,-49.57967802
1.06200,-55.98876058
1.06250,-59.95628788
1.06300,-56.29395499
1.06350,-53.85239973
1.06400,-49.88487243
1.06450,-30.65762474
1.06500,5.355315364
1.06550,37.09553376
1.06600,46.251366
1.06650,37.70592258
1.06700,28.85528476
1.06750,27.93970153
1.06800,30.3812568
1.06850,31.60203443
1.06900,32.21242324
1.06950,34.6539785
1.07000,38.3163114
1.07050,41.36825547
1.07100,41.36825547
1.07150,36.79033936
1.07200,30.99164561
1.07250,26.7189239
1.07300,22.14100779
1.07350,11.76439793
1.07400,-3.190128052
1.07450,-16.61868199
1.07500,-24.55373659
1.07550,-31.57320797
1.07600,-38.28748494
1.07650,-34.31995764
1.07700,-12.9563491
1.07750,14.20595319
1.07800,26.10853509
1.07850,14.20595319
1.07900,-9.599210613
1.07950,-32.48879119
1.08000,-49.27448361
1.08050,-59.95628788
1.08100,-62.70303755
1.08150,-59.04070466
1.08200,-54.46278855
1.08250,-52.02123328
1.08300,-49.57967802
1.08350,-45.91734513
1.08400,-42.25501224
1.08450,-37.98229053
1.08500,-29.74204152
1.08550,-18.44984844
1.08600,-9.599210613
1.08650,-5.326488906
1.08700,-1.969350421
1.08750,0.7773992484
1.08800,1.998176879
1.08850,1.998176879
1.08900,7.18648181
1.08950,17.56309167
1.09000,24.27736864
1.09050,22.7513966
1.09100,18.17348049
1.09150,15.42673082
1.09200,12.98517556
1.09250,9.628037072
1.09300,9.628037072
1.09350,14.51114759
1.09400,18.4786749
1.09450,19.08906371
1.09500,20.00464693
1.09550,21.53061897
1.09600,15.12153641
1.09650,-1.053767198
1.09700,-12.34596028
1.09750,-5.936877721
1.09800,8.102065033
1.09850,10.8488147
1.09900,1.692982472
1.09950,-2.579739236
1.10000,5.050120956
1.10050,14.20595319
1.10100,14.816342
1.10150,11.76439793
1.10200,12.67998115
1.10250,16.03711963
1.10300,16.64750845
1.10350,16.34231404
1.10400,18.4786749
1.10450,20.00464693
1.10500,17.25789726
1.10550,13.29036996
1.10600,13.29036996
1.10650,16.64750845
1.10700,17.86828608
1.10750,14.816342
1.10800,9.322842664
1.10850,4.134537733
1.10900,1.082593656
1.10950,1.082593656
1.11000,0.7773992484
1.11050,-3.495322459
1.11100,-11.12518265
1.11150,-14.78751554
1.11200,-12.04076588
1.11250,-7.768044167
1.11300,-6.547266536
1.11350,-5.631683313
1.11400,-2.884933644
1.11450,-2.579739236
1.11500,-7.157655352
1.11550,-12.04076588
1.11600,-12.34596028
1.11650,-10.81998824
1.11700,-12.9563491
1.11750,-14.17712673
1.11800,-6.852460944
1.11850,6.576092995
1.11900,14.51114759
1.11950,9.628037072
1.12000,-0.7485727901
1.12050,-4.71610009
1.12100,0.4722048407
1.12150,6.881287402
1.12200,4.134537733
1.12250,-7.768044167
1.12300,-15.70309877
1.12350,-8.073238575
1.12400,7.796870626
1.12450,13.59556437
1.12500,2.913760102
1.12550,-5.021294498
1.12600,6.576092995
1.12650,30.3812568
1.12700,43.19942192
1.12750,36.48514495
1.12800,22.4462022
1.12850,14.51114759
1.12900,12.37478674
1.12950,10.8488147
1.13000,9.322842664
1.13050,8.712453849
1.13100,7.18648181
1.13150,3.829343325
1.13200,2.303371287
1.13250,3.829343325
1.13300,5.660509772
1.13350,5.355315364
1.13400,3.21895451
1.13450,1.387788064
1.13500,0.7773992484
1.13550,1.387788064
1.13600,1.387788064
1.13650,0.4722048407
1.13700,-1.053767198
1.13750,-1.969350421
1.13800,-1.358961606
1.13850,-1.664156013
1.13900,-3.800516867
1.13950,-5.021294498
1.14000,-3.495322459
1.14050,-1.969350421
1.14100,-2.884933644
1.14150,-3.800516867
1.14200,-1.969350421
1.14250,1.387788064
1.14300,2.913760102
1.14350,3.21895451
1.14400,4.134537733
1.14450,5.355315364
1.14500,4.439732141
1.14550,2.608565695
1.14600,1.998176879
1.14650,2.608565695
1.14700,1.998176879
1.14750,0.167010433
1.14800,-1.053767198
1.14850,-2.579739236
1.14900,-4.71610009
1.14950,-6.242072129
1.15000,-5.326488906
1.15050,-2.579739236
1.15100,-0.1381839747
1.15150,3.524148918
1.15200,9.322842664
1.15250,16.64750845
1.15300,22.7513966
1.15350,27.02411831
1.15400,30.07606239
1.15450,32.21242324
1.15500,33.73839528
1.15550,36.17995054
1.15600,38.6215058
1.15650,38.92670021
1.15700,34.95917291
1.15750,29.46567357
1.15800,24.88775746
1.15850,20.00464693
1.15900,12.06959233
1.15950,3.21895451
1.16000,-4.71610009
1.16050,-14.78751554
1.16100,-29.43684711
1.16150,-44.6965675
1.16200,-53.54720532
1.16250,-56.29395499
1.16300,-58.43031585
1.16350,-60.87187111
1.16400,-60.5666767
1.16450,-57.20953821
1.16500,-52.32642769
1.16550,-42.56020665
1.16600,-26.38490304
1.16650,-9.599210613
1.16700,0.167010433
1.16750,5.660509772
1.16800,16.34231404
1.16850,32.21242324
1.16900,42.5890331
1.16950,41.97864429
1.17000,33.73839528
1.17050,24.88775746
1.17100,20.30984134
1.17150,26.7189239
1.17200,41.97864429
1.17250,45.94617159
1.17300,20.30984134
1.17350,-20.28101488
1.17400,-37.37190171
1.17450,-16.00829318
1.17500,15.73192523
1.17550,23.05659101
1.17600,3.21895451
1.17650,-23.02776455
1.17700,-42.56020665
1.17750,-55.37837177
1.17800,-61.78745433
1.17850,-62.39784315
1.17900,-63.61862078
1.17950,-70.02770334
1.18000,-73.99523064
1.18050,-70.02770334
1.18100,-62.70303755
1.18150,-57.81992703
1.18200,-49.88487243
1.18250,-35.54073527
1.18300,-26.07970863
1.18350,-32.18359678
1.18400,-41.64462342
1.18450,-34.93034645
1.18500,-12.9563491
1.18550,0.167010433
1.18600,-6.852460944
1.18650,-21.80698692
1.18700,-26.38490304
1.18750,-19.67062607
1.18800,-12.34596028
1.18850,-10.51479384
1.18900,-11.73557147
1.18950,-13.56673791
1.19000,-13.87193232
1.19050,-13.87193232
1.19100,-15.39790436
1.19150,-20.58620929
1.19200,-25.46931981
1.19250,-25.46931981
1.19300,-21.50179251
1.19350,-18.44984844
1.19400,-16.00829318
1.19450,-7.157655352
1.19500,9.628037072
1.19550,23.97217423
1.19600,25.19295186
1.19650,14.51114759
1.19700,4.134537733
1.19750,3.21895451
1.19800,9.322842664
1.19850,14.816342
1.19900,14.816342
1.19950,10.8488147
1.20000,7.491676218
1.20050,8.407259441
1.20100,12.98517556
1.20150,16.64750845
1.20200,16.34231404
1.20250,14.51114759
1.20300,16.03711963
1.20350,20.61503575
1.20400,22.4462022
1.20450,19.39425812
1.20500,15.12153641
1.20550,13.90075878
1.20600,14.816342
1.20650,13.90075878
1.20700,10.54362029
1.20750,7.18648181
1.20800,5.050120956
1.20850,4.744926549
1.20900,5.965704179
1.20950,7.796870626
1.21000,7.796870626
1.21050,4.744926549
1.21100,1.998176879
1.21150,2.303371287
1.21200,3.524148918
1.21250,3.524148918
1.21300,3.829343325
1.21350,6.270898587
1.21400,9.628037072
1.21450,9.628037072
1.21500,6.881287402
1.21550,4.134537733
1.21600,2.913760102
1.21650,2.303371287
1.21700,3.829343325
1.21750,7.491676218
1.21800,9.933231479
1.21850,7.796870626
1.21900,3.829343325
1.21950,2.303371287
1.22000,3.829343325
1.22050,4.134537733
1.22100,3.21895451
1.22150,3.829343325
1.22200,3.524148918
1.22250,-2.884933644
1.22300,-13.26154351
1.22350,-15.39790436
1.22400,-4.105711275
1.22450,12.37478674
1.22500,21.53061897
1.22550,22.14100779
1.22600,22.14100779
1.22650,23.36178542
1.22700,18.4786749
1.22750,5.050120956
1.22800,-8.988821798
1.22850,-16.31348758
1.22900,-18.44984844
1.22950,-23.63815337
1.23000,-33.09918001
1.23050,-37.37190171
1.23100,-28.8264583
1.23150,-9.904405021
1.23200,9.322842664
1.23250,19.39425812
1.23300,16.03711963
1.23350,5.660509772
1.23400,2.913760102
1.23450,16.64750845
1.23500,37.70592258
1.23550,46.5565604
1.23600,35.87475613
1.23650,18.4786749
1.23700,9.628037072
1.23750,8.712453849
1.23800,9.017648256
1.23850,9.322842664
1.23900,13.29036996
1.23950,18.17348049
1.24000,18.17348049
1.24050,14.20595319
1.24100,13.29036996
1.24150,15.42673082
1.24200,15.42673082
1.24250,12.67998115
1.24300,13.90075878
1.24350,20.00464693
1.24400,25.49814627
1.24450,25.19295186
1.24500,20.00464693
1.24550,12.98517556
1.24600,3.21895451
1.24650,-7.157655352
1.24700,-13.56673791
1.24750,-12.9563491
1.24800,-9.599210613
1.24850,-6.852460944
1.24900,-3.495322459
1.24950,0.7773992484
1.25000,2.608565695
1.25050,-0.1381839747
1.25100,-4.71610009
1.25150,-8.68362739
1.25200,-12.34596028
1.25250,-16.00829318
1.25300,-16.9238764
1.25350,-12.04076588
1.25400,-4.71610009
1.25450,-1.969350421
1.25500,-5.021294498
1.25550,-7.46284976
1.25600,-6.547266536
1.25650,-5.631683313
1.25700,-9.904405021
1.25750,-18.75504284
1.25800,-24.858931
1.25850,-21.80698692
1.25900,-10.20959943
1.25950,2.303371287
1.26000,9.017648256
1.26050,7.491676218
1.26100,2.913760102
1.26150,0.4722048407
1.26200,0.167010433
1.26250,-1.053767198
1.26300,-4.71610009
1.26350,-5.936877721
1.26400,-2.579739236
1.26450,1.692982472
1.26500,1.998176879
1.26550,-2.884933644
1.26600,-9.294016206
1.26650,-12.9563491
1.26700,-13.26154351
1.26750,-11.73557147
1.26800,-9.294016206
1.26850,-6.242072129
1.26900,-3.495322459
1.26950,-1.664156013
1.27000,-0.1381839747
1.27050,2.913760102
1.27100,6.270898587
1.27150,8.102065033
1.27200,8.102065033
1.27250,9.017648256
1.27300,12.67998115
1.27350,16.34231404
1.27400,17.25789726
1.27450,15.12153641
1.27500,12.06959233
1.27550,11.15400911
1.27600,11.15400911
1.27650,10.23842589
1.27700,6.881287402
1.27750,1.692982472
1.27800,-3.495322459
1.27850,-7.46284976
1.27900,-9.599210613
1.27950,-11.43037706
1.28000,-16.31348758
1.28050,-24.55373659
1.28100,-34.31995764
1.28150,-44.08617868
1.28200,-53.24201091
1.28250,-58.73551025
1.28300,-53.54720532
1.28350,-34.93034645
1.28400,-10.51479384
1.28450,5.965704179
1.28500,7.796870626
1.28550,-2.274544829
1.28600,-16.61868199
1.28650,-30.04723593
1.28700,-39.81345698
1.28750,-41.64462342
1.28800,-33.09918001
1.28850,-16.61868199
1.28900,1.692982472
1.28950,15.12153641
1.29000,18.7838693
1.29050,14.20595319
1.29100,9.322842664
1.29150,9.017648256
1.29200,9.017648256
1.29250,3.21895451
1.29300,-5.326488906
1.29350,-7.46284976
1.29400,-1.053767198
1.29450,5.050120956
1.29500,4.439732141
1.29550,1.082593656
1.29600,1.082593656
1.29650,4.439732141
1.29700,6.576092995
1.29750,5.965704179
1.29800,3.524148918
1.29850,-0.1381839747
1.29900,-4.71610009
1.29950,-8.988821798
1.30000,-14.17712673
1.30050,-20.28101488
1.30100,-21.80698692
1.30150,-12.9563491
1.30200,-1.053767198
1.30250,1.692982472
1.30300,-1.969350421
1.30350,2.303371287
1.30400,18.7838693
1.30450,30.07606239
1.30500,21.22542456
1.30550,3.829343325
1.30600,0.7773992484
1.30650,18.17348049
1.30700,43.19942192
1.30750,64.25783605
1.30800,77.9915844
1.30850,80.12794525
1.30900,66.0890025
1.30950,40.75786666
1.31000,18.4786749
1.31050,7.18648181
1.31100,2.303371287
1.31150,-3.190128052
1.31200,-11.12518265
1.31250,-18.75504284
1.31300,-22.72257014
1.31350,-21.80698692
1.31400,-16.61868199
1.31450,-11.12518265
1.31500,-10.51479384
1.31550,-12.65115469
1.31600,-13.26154351
1.31650,-10.81998824
1.31700,-9.294016206
1.31750,-10.20959943
1.31800,-9.294016206
1.31850,-4.105711275
1.31900,3.524148918
1.31950,11.76439793
1.32000,20.30984134
1.32050,28.85528476
1.32100,31.90722883
1.32150,25.49814627
1.32200,13.29036996
1.32250,5.660509772
1.32300,7.18648181
1.32350,12.98517556
1.32400,14.51114759
1.32450,9.322842664
1.32500,2.608565695
1.32550,-1.664156013
1.32600,-4.105711275
1.32650,-8.68362739
1.32700,-18.14465403
1.32750,-30.35243034
1.32800,-40.11865138
1.32850,-43.47578987
1.32900,-40.42384579
1.32950,-34.93034645
1.33000,-32.18359678
1.33050,-32.7939856
1.33100,-35.54073527
1.33150,-37.37190171
1.33200,-34.93034645
1.33250,-26.07970863
1.33300,-14.78751554
1.33350,-7.157655352
1.33400,-5.326488906
1.33450,-5.936877721
1.33500,-6.852460944
1.33550,-11.12518265
1.33600,-19.97582048
1.33650,-23.94334778
1.33700,-12.04076588
1.33750,10.23842589
1.33800,26.10853509
1.33850,26.10853509
1.33900,18.17348049
1.33950,12.98517556
1.34000,10.8488147
1.34050,8.407259441
1.34100,8.407259441
1.34150,16.03711963
1.34200,27.93970153
1.34250,36.17995054
1.34300,38.01111699
1.34350,36.79033936
1.34400,34.3487841
1.34450,30.3812568
1.34500,26.7189239
1.34550,25.80334068
1.34600,26.4137295
1.34650,24.58256305
1.34700,21.53061897
1.34750,20.61503575
1.34800,23.66697983
1.34850,27.32931272
1.34900,29.46567357
1.34950,28.85528476
1.35000,23.97217423
1.35050,14.20595319
1.35100,2.608565695
1.35150,-6.242072129
1.35200,-12.9563491
1.35250,-20.58620929
1.35300,-30.04723593
1.35350,-36.45631849
1.35400,-35.23554086
1.35450,-29.13165271
1.35500,-25.46931981
1.35550,-26.69009744
1.35600,-27.91087508
1.35650,-24.55373659
1.35700,-19.06023725
1.35750,-17.22907081
1.35800,-17.83945962
1.35850,-14.48232114
1.35900,-6.242072129
1.35950,-0.1381839747
1.36000,2.303371287
1.36050,5.660509772
1.36100,11.45920352
1.36150,10.8488147
1.36200,-0.1381839747
1.36250,-11.12518265
1.36300,-10.51479384
1.36350,-2.579739236
1.36400,0.167010433
1.36450,-2.884933644
1.36500,-3.800516867
1.36550,-0.4433783824
1.36600,2.608565695
1.36650,5.965704179
1.36700,14.816342
1.36750,29.46567357
1.36800,38.92670021
1.36850,37.09553376
1.36900,28.55009035
1.36950,20.30984134
1.37000,14.816342
1.37050,10.8488147
1.37100,7.796870626
1.37150,5.050120956
1.37200,2.913760102
1.37250,3.524148918
1.37300,7.18648181
1.37350,9.628037072
1.37400,4.134537733
1.37450,-5.326488906
1.37500,-9.599210613
1.37550,-3.495322459
1.37600,5.355315364
1.37650,9.322842664
1.37700,7.18648181
1.37750,2.303371287
1.37800,-1.969350421
1.37850,-5.326488906
1.37900,-6.852460944
1.37950,-7.46284976
1.38000,-7.157655352
1.38050,-7.157655352
1.38100,-7.46284976
1.38150,-9.599210613
1.38200,-13.26154351
1.38250,-16.61868199
1.38300,-17.83945962
1.38350,-18.75504284
1.38400,-22.41737574
1.38450,-27.91087508
1.38500,-32.18359678
1.38550,-35.23554086
1.38600,-38.89787375
1.38650,-42.25501224
1.38700,-41.64462342
1.38750,-38.59267935
1.38800,-36.7615129
1.38850,-37.06670731
1.38900,-35.84592968
1.38950,-33.09918001
1.39000,-31.26801356
1.39050,-30.35243034
1.39100,-25.77451422
1.39150,-15.39790436
1.39200,-4.71610009
1.39250,-0.1381839747
1.39300,-0.1381839747
1.39350,0.7773992484
1.39400,3.829343325
1.39450,6.576092995
1.39500,7.491676218
1.39550,8.712453849
1.39600,11.76439793
1.39650,15.12153641
1.39700,15.73192523
1.39750,13.90075878
1.39800,11.15400911
1.39850,9.628037072
1.39900,9.322842664
1.39950,11.45920352
1.40000,16.64750845
1.40050,22.7513966
1.40100,26.7189239
1.40150,28.55009035
1.40200,28.55009035
1.40250,27.02411831
1.40300,23.05659101
1.40350,18.4786749
1.40400,17.25789726
1.40450,18.7838693
1.40500,17.56309167
1.40550,12.06959233
1.40600,7.491676218
1.40650,6.881287402
1.40700,3.21895451
1.40750,-6.242072129
1.40800,-10.20959943
1.40850,4.744926549
1.40900,33.73839528
1.40950,55.40719823
1.41000,58.1539479
1.41050,48.08253244
1.41100,35.56956173
1.41150,23.36178542
1.41200,14.816342
1.41250,13.90075878
1.41300,18.4786749
1.41350,16.64750845
1.41400,4.134537733
1.41450,-9.294016206
1.41500,-12.34596028
1.41550,-7.46284976
1.41600,-4.105711275
1.41650,-4.71610009
1.41700,-4.71610009
1.41750,-4.71610009
1.41800,-8.378432983
1.41850,-15.09270995
1.41900,-17.53426521
1.41950,-13.26154351
1.42000,-6.242072129
1.42050,-1.053767198
1.42100,1.387788064
1.42150,2.608565695
1.42200,3.524148918
1.42250,5.050120956
1.42300,7.796870626
1.42350,10.54362029
1.42400,9.933231479
1.42450,7.18648181
1.42500,5.050120956
1.42550,5.965704179
1.42600,8.102065033
1.42650,9.017648256
1.42700,7.796870626
1.42750,5.660509772
1.42800,6.270898587
1.42850,11.15400911
1.42900,18.4786749
1.42950,24.27736864
1.43000,26.10853509
1.43050,26.4137295
1.43100,26.7189239
1.43150,26.10853509
1.43200,23.36178542
1.43250,20.92023016
1.43300,21.53061897
1.43350,22.4462022
1.43400,20.30984134
1.43450,16.34231404
1.43500,13.59556437
1.43550,11.15400911
1.43600,4.744926549
1.43650,-4.410905683
1.43700,-11.73557147
1.43750,-14.17712673
1.43800,-12.04076588
1.43850,-6.547266536
1.43900,1.692982472
1.43950,8.712453849
1.44000,8.102065033
1.44050,0.4722048407
1.44100,-5.936877721
1.44150,-5.631683313
1.44200,-1.664156013
1.44250,-0.1381839747
1.44300,-0.7485727901
1.44350,-2.274544829
1.44400,-2.884933644
1.44450,-3.190128052
1.44500,-2.579739236
1.44550,-1.358961606
1.44600,-1.969350421
1.44650,-6.547266536
1.44700,-11.73557147
1.44750,-12.9563491
1.44800,-10.51479384
1.44850,-9.599210613
1.44900,-12.34596028
1.44950,-16.9238764
1.45000,-19.97582048
1.45050,-19.97582048
1.45100,-16.61868199
1.45150,-12.04076588
1.45200,-8.073238575
1.45250,-5.936877721
1.45300,-5.021294498
1.45350,-4.105711275
1.45400,-3.190128052
1.45450,-3.495322459
1.45500,-3.495322459
1.45550,-1.969350421
1.45600,1.998176879
1.45650,5.660509772
1.45700,6.881287402
1.45750,5.660509772
1.45800,3.524148918
1.45850,2.608565695
1.45900,2.913760102
1.45950,5.050120956
1.46000,6.881287402
1.46050,6.881287402
1.46100,4.744926549
1.46150,2.608565695
1.46200,1.998176879
1.46250,1.692982472
1.46300,1.082593656
1.46350,0.7773992484
1.46400,0.4722048407
1.46450,-0.1381839747
1.46500,-1.969350421
1.46550,-2.884933644
1.46600,-2.274544829
1.46650,-2.274544829
1.46700,-4.71610009
1.46750,-7.157655352
1.46800,-7.768044167
1.46850,-7.46284976
1.46900,-8.68362739
1.46950,-11.73557147
1.47000,-13.56673791
1.47050,-13.87193232
1.47100,-11.73557147
1.47150,-6.852460944
1.47200,-0.1381839747
1.47250,4.744926549
1.47300,5.355315364
1.47350,4.134537733
1.47400,3.829343325
1.47450,3.829343325
1.47500,1.692982472
1.47550,-0.1381839747
1.47600,2.608565695
1.47650,11.45920352
1.47700,19.39425812
1.47750,18.4786749
1.47800,10.54362029
1.47850,3.829343325
1.47900,4.439732141
1.47950,11.15400911
1.48000,17.86828608
1.48050,18.4786749
1.48100,12.37478674
1.48150,2.608565695
1.48200,-7.157655352
1.48250,-16.31348758
1.48300,-22.41737574
1.48350,-22.72257014
1.48400,-14.17712673
1.48450,1.082593656
1.48500,17.56309167
1.48550,27.93970153
1.48600,26.4137295
1.48650,14.816342
1.48700,-0.1381839747
1.48750,-11.43037706
1.48800,-18.44984844
1.48850,-22.72257014
1.48900,-24.24854218
1.48950,-22.72257014
1.49000,-19.06023725
1.49050,-16.9238764
1.49100,-16.61868199
1.49150,-12.65115469
1.49200,-3.800516867
1.49250,3.829343325
1.49300,5.660509772
1.49350,3.524148918
1.49400,3.21895451
1.49450,4.744926549
1.49500,4.134537733
1.49550,0.7773992484
1.49600,-1.053767198
1.49650,-0.7485727901
1.49700,-1.053767198
1.49750,-3.190128052
1.49800,-4.105711275
1.49850,-1.358961606
1.49900,3.524148918
1.49950,7.796870626
1.50000,8.712453849
1.50050,5.355315364
1.50100,-0.7485727901
1.50150,-6.547266536
1.50200,-6.547266536
1.50250,-0.1381839747
1.50300,7.796870626
1.50350,13.29036996
1.50400,15.42673082
1.50450,16.03711963
1.50500,17.25789726
1.50550,18.7838693
1.50600,18.4786749
1.50650,14.51114759
1.50700,6.881287402
1.50750,-1.358961606
1.50800,-7.157655352
1.50850,-8.988821798
1.50900,-9.294016206
1.50950,-9.599210613
1.51000,-11.12518265
1.51050,-13.87193232
1.51100,-16.9238764
1.51150,-19.36543166
1.51200,-18.75504284
1.51250,-16.61868199
1.51300,-15.39790436
1.51350,-15.09270995
1.51400,-14.17712673
1.51450,-12.34596028
1.51500,-11.43037706
1.51550,-11.43037706
1.51600,-9.599210613
1.51650,-5.326488906
1.51700,-1.053767198
1.51750,0.167010433
1.51800,0.4722048407
1.51850,1.082593656
1.51900,2.303371287
1.51950,2.303371287
1.52000,1.692982472
1.52050,2.303371287
1.52100,3.21895451
1.52150,1.998176879
1.52200,-1.664156013
1.52250,-4.71610009
1.52300,-3.495322459
1.52350,-0.1381839747
1.52400,0.4722048407
1.52450,-1.664156013
1.52500,-3.495322459
1.52550,-1.053767198
1.52600,3.21895451
1.52650,5.660509772
1.52700,3.21895451
1.52750,-1.053767198
1.52800,-4.71610009
1.52850,-5.326488906
1.52900,-3.800516867
1.52950,-1.358961606
1.53000,-0.4433783824
1.53050,-2.579739236
1.53100,-6.547266536
1.53150,-8.988821798
1.53200,-9.294016206
1.53250,-9.904405021
1.53300,-11.73557147
1.53350,-13.56673791
1.53400,-12.9563491
1.53450,-10.20959943
1.53500,-7.46284976
1.53550,-5.936877721
1.53600,-5.936877721
1.53650,-6.547266536
1.53700,-5.936877721
1.53750,-3.800516867
1.53800,-1.969350421
1.53850,-1.664156013
1.53900,-1.053767198
1.53950,1.387788064
1.54000,5.355315364
1.54050,7.18648181
1.54100,5.965704179
1.54150,3.829343325
1.54200,2.608565695
1.54250,0.7773992484
1.54300,-1.358961606
1.54350,-3.495322459
1.54400,-4.105711275
1.54450,-4.410905683
1.54500,-5.021294498
1.54550,-5.021294498
1.54600,-3.190128052
1.54650,-1.358961606
1.54700,-1.358961606
1.54750,-2.579739236
1.54800,-3.495322459
1.54850,-3.190128052
1.54900,-2.274544829
1.54950,-1.053767198
1.55000,-1.053767198
1.55050,-3.495322459
1.55100,-7.46284976
1.55150,-10.51479384
1.55200,-12.04076588
1.55250,-12.34596028
1.55300,-11.73557147
1.55350,-9.294016206
1.55400,-6.852460944
1.55450,-6.242072129
1.55500,-6.852460944
1.55550,-5.326488906
1.55600,-0.4433783824
1.55650,3.829343325
1.55700,5.355315364
1.55750,5.965704179
1.55800,8.407259441
1.55850,10.8488147
1.55900,9.933231479
1.55950,6.576092995
1.56000,4.439732141
1.56050,4.439732141
1.56100,4.744926549
1.56150,3.524148918
1.56200,2.303371287
1.56250,2.913760102
1.56300,4.744926549
1.56350,5.355315364
1.56400,2.913760102
1.56450,-0.1381839747
1.56500,1.692982472
1.56550,8.712453849
1.56600,14.816342
1.56650,13.90075878
1.56700,8.102065033
1.56750,2.608565695
1.56800,0.167010433
1.56850,-0.7485727901
1.56900,-0.7485727901
1.56950,1.082593656
1.57000,2.608565695
1.57050,-0.1381839747
1.57100,-5.021294498
1.57150,-7.157655352
1.57200,-7.768044167
1.57250,-13.26154351
1.57300,-21.19659811
1.57350,-19.67062607
1.57400,-5.936877721
1.57450,7.491676218
1.57500,9.628037072
1.57550,3.829343325
1.57600,-0.1381839747
1.57650,-1.664156013
1.57700,-5.326488906
1.57750,-10.51479384
1.57800,-13.56673791
1.57850,-15.70309877
1.57900,-17.83945962
1.57950,-16.61868199
1.58000,-6.852460944
1.58050,5.050120956
1.58100,9.322842664
1.58150,4.134537733
1.58200,-2.274544829
1.58250,-5.021294498
1.58300,-4.410905683
1.58350,-1.053767198
1.58400,5.050120956
1.58450,12.98517556
1.58500,17.25789726
1.58550,17.25789726
1.58600,14.816342
1.58650,10.23842589
1.58700,1.998176879
1.58750,-6.242072129
1.58800,-8.68362739
1.58850,-5.631683313
1.58900,-3.800516867
1.58950,-5.631683313
1.59000,-5.021294498
1.59050,0.4722048407
1.59100,6.576092995
1.59150,7.491676218
1.59200,5.965704179
1.59250,6.881287402
1.59300,10.23842589
1.59350,12.06959233
1.59400,10.23842589
1.59450,6.881287402
1.59500,3.524148918
1.59550,0.4722048407
1.59600,-0.7485727901
1.59650,-0.1381839747
1.59700,0.4722048407
1.59750,-0.4433783824
1.59800,-3.190128052
1.59850,-5.326488906
1.59900,-5.021294498
1.59950,-2.579739236
1.60000,1.387788064
1.60050,5.660509772
1.60100,8.712453849
1.60150,9.017648256
1.60200,6.881287402
1.60250,4.744926549
1.60300,6.881287402
1.60350,14.51114759
1.60400,24.58256305
1.60450,30.99164561
1.60500,30.99164561
1.60550,26.7189239
1.60600,22.4462022
1.60650,19.08906371
1.60700,15.73192523
1.60750,11.45920352
1.60800,6.881287402
1.60850,2.913760102
1.60900,-0.1381839747
1.60950,-1.358961606
1.61000,-0.7485727901
1.61050,-1.053767198
1.61100,-4.71610009
1.61150,-10.51479384
1.61200,-16.00829318
1.61250,-19.97582048
1.61300,-22.41737574
1.61350,-22.41737574
1.61400,-19.36543166
1.61450,-17.22907081
1.61500,-23.02776455
1.61550,-37.06670731
1.61600,-50.49526125
1.61650,-55.37837177
1.61700,-49.88487243
1.61750,-37.37190171
1.61800,-21.50179251
1.61850,-7.768044167
1.61900,-2.884933644
1.61950,-7.46284976
1.62000,-10.20959943
1.62050,-1.053767198
1.62100,14.51114759
1.62150,20.30984134
1.62200,11.45920352
1.62250,2.303371287
1.62300,6.881287402
1.62350,20.61503575
1.62400,27.32931272
1.62450,22.4462022
1.62500,15.42673082
1.62550,13.59556437
1.62600,13.29036996
1.62650,8.712453849
1.62700,1.387788064
1.62750,-2.884933644
1.62800,-5.021294498
1.62850,-9.294016206
1.62900,-17.53426521
1.62950,-26.07970863
1.63000,-31.87840238
1.63050,-33.09918001
1.63100,-30.04723593
1.63150,-25.46931981
1.63200,-22.41737574
1.63250,-22.11218133
1.63300,-21.80698692
1.63350,-17.83945962
1.63400,-9.904405021
1.63450,-3.495322459
1.63500,-1.969350421
1.63550,-4.410905683
1.63600,-7.46284976
1.63650,-8.68362739
1.63700,-7.768044167
1.63750,-1.358961606
1.63800,11.76439793
1.63850,27.32931272
1.63900,36.17995054
1.63950,33.43320087
1.64000,23.05659101
1.64050,12.37478674
1.64100,5.050120956
1.64150,0.7773992484
1.64200,-0.4433783824
1.64250,0.167010433
1.64300,3.829343325
1.64350,7.796870626
1.64400,10.54362029
1.64450,10.8488147
1.64500,8.712453849
1.64550,5.355315364
1.64600,2.913760102
1.64650,2.608565695
1.64700,4.134537733
1.64750,5.050120956
1.64800,3.829343325
1.64850,1.387788064
1.64900,-0.1381839747
1.64950,0.4722048407
1.65000,1.387788064
1.65050,0.4722048407
1.65100,-2.579739236
1.65150,-6.547266536
1.65200,-10.51479384
1.65250,-14.17712673
1.65300,-15.09270995
1.65350,-11.12518265
1.65400,-2.884933644
1.65450,4.439732141
1.65500,7.491676218
1.65550,6.881287402
1.65600,5.355315364
1.65650,5.355315364
1.65700,7.491676218
1.65750,10.23842589
1.65800,12.67998115
1.65850,12.98517556
1.65900,13.59556437
1.65950,16.03711963
1.66000,20.30984134
1.66050,22.14100779
1.66100,19.39425812
1.66150,14.20595319
1.66200,9.017648256
1.66250,4.134537733
1.66300,-1.664156013
1.66350,-8.073238575
1.66400,-10.20959943
1.66450,-4.105711275
1.66500,10.23842589
1.66550,26.10853509
1.66600,34.3487841
1.66650,33.12800646
1.66700,32.21242324
1.66750,39.84228343
1.66800,50.82928211
1.66850,53.88122619
1.66900,46.86175481
1.66950,39.53708903
1.67000,35.87475613
1.67050,30.07606239
1.67100,16.64750845
1.67150,2.913760102
1.67200,-3.190128052
1.67250,-5.326488906
1.67300,-12.04076588
1.67350,-26.07970863
1.67400,-42.86540105
1.67450,-59.65109348
1.67500,-74.60561945
1.67550,-85.59261813
1.67600,-90.78092306
1.67650,-92.91728392
1.67700,-95.05364477
1.67750,-97.19000562
1.67800,-95.96922799
1.67850,-91.39131188
1.67900,-84.3718405
1.67950,-72.77445301
1.68000,-55.37837177
1.68050,-34.01476323
1.68100,-16.00829318
1.68150,-6.242072129
1.68200,-5.021294498
1.68250,-7.768044167
1.68300,-8.68362739
1.68350,-3.800516867
1.68400,4.439732141
1.68450,10.8488147
1.68500,10.8488147
1.68550,7.491676218
1.68600,6.270898587
1.68650,8.102065033
1.68700,10.8488147
1.68750,12.98517556
1.68800,14.51114759
1.68850,14.20595319
1.68900,11.15400911
1.68950,7.796870626
1.69000,8.102065033
1.69050,12.67998115
1.69100,16.95270286
1.69150,18.17348049
1.69200,17.25789726
1.69250,15.73192523
1.69300,11.45920352
1.69350,2.608565695
1.69400,-6.242072129
1.69450,-9.904405021
1.69500,-9.904405021
1.69550,-14.48232114
1.69600,-26.07970863
1.69650,-35.23554086
1.69700,-33.70956882
1.69750,-23.94334778
1.69800,-16.00829318
1.69850,-14.78751554
1.69900,-15.70309877
1.69950,-14.48232114
1.70000,-10.20959943
1.70050,-4.71610009
1.70100,1.387788064
1.70150,6.270898587
1.70200,7.796870626
1.70250,6.881287402
1.70300,6.881287402
1.70350,7.18648181
1.70400,5.660509772
1.70450,5.355315364
1.70500,12.06959233
1.70550,26.10853509
1.70600,38.01111699
1.70650,41.67344988
1.70700,40.14747784
1.70750,39.84228343
1.70800,40.14747784
1.70850,36.48514495
1.70900,30.3812568
1.70950,27.32931272
1.71000,29.16047916
1.71050,31.90722883
1.71100,30.07606239
1.71150,24.88775746
1.71200,19.39425812
1.71250,14.816342
1.71300,10.23842589
1.71350,5.050120956
1.71400,1.387788064
1.71450,1.692982472
1.71500,3.21895451
1.71550,2.303371287
1.71600,-1.664156013
1.71650,-4.105711275
1.71700,-1.358961606
1.71750,4.134537733
1.71800,6.881287402
1.71850,4.744926549
1.71900,1.082593656
1.71950,-1.053767198
1.72000,-2.274544829
1.72050,-2.579739236
1.72100,-0.4433783824
1.72150,2.913760102
1.72200,5.050120956
1.72250,4.439732141
1.72300,1.387788064
1.72350,-1.969350421
1.72400,-5.631683313
1.72450,-7.157655352
1.72500,-5.631683313
1.72550,-1.969350421
1.72600,0.4722048407
1.72650,-0.1381839747
1.72700,-2.274544829
1.72750,-2.884933644
1.72800,-2.274544829
1.72850,-0.7485727901
1.72900,1.387788064
1.72950,6.270898587
1.73000,12.06959233
1.73050,16.64750845
1.73100,18.7838693
1.73150,19.69945253
1.73200,19.39425812
1.73250,18.17348049
1.73300,18.4786749
1.73350,22.7513966
1.73400,31.29684002
1.73450,39.53708903
1.73500,42.5890331
1.73550,39.84228343
1.73600,33.43320087
1.73650,26.7189239
1.73700,21.53061897
1.73750,17.25789726
1.73800,12.67998115
1.73850,8.407259441
1.73900,8.712453849
1.73950,13.59556437
1.74000,16.64750845
1.74050,9.628037072
1.74100,-4.71610009
1.74150,-15.70309877
1.74200,-13.87193232
1.74250,-2.884933644
1.74300,7.491676218
1.74350,12.37478674
1.74400,12.37478674
1.74450,8.102065033
1.74500,-0.1381839747
1.74550,-8.68362739
1.74600,-13.56673791
1.74650,-12.9563491
1.74700,-10.20959943
1.74750,-6.547266536
1.74800,-0.4433783824
1.74850,8.712453849
1.74900,18.17348049
1.74950,22.4462022
1.75000,20.92023016
1.75050,16.64750845
1.75100,13.29036996
1.75150,12.06959233
1.75200,13.90075878
1.75250,17.56309167
1.75300,20.61503575
1.75350,19.39425812
1.75400,12.06959233
1.75450,-0.1381839747
1.75500,-13.56673791
1.75550,-23.94334778
1.75600,-28.52126389
1.75650,-27.60568067
1.75700,-24.24854218
1.75750,-21.80698692
1.75800,-21.50179251
1.75850,-23.02776455
1.75900,-24.55373659
1.75950,-23.94334778
1.76000,-19.97582048
1.76050,-13.26154351
1.76100,-6.242072129
1.76150,0.4722048407
1.76200,9.017648256
1.76250,18.7838693
1.76300,24.88775746
1.76350,22.7513966
1.76400,13.59556437
1.76450,4.134537733
1.76500,-0.1381839747
1.76550,0.167010433
1.76600,1.692982472
1.76650,1.998176879
1.76700,1.998176879
1.76750,3.524148918
1.76800,6.576092995
1.76850,8.102065033
1.76900,7.796870626
1.76950,6.270898587
1.77000,5.355315364
1.77050,6.270898587
1.77100,9.628037072
1.77150,16.95270286
1.77200,27.32931272
1.77250,35.87475613
1.77300,37.09553376
1.77350,32.51761765
1.77400,29.46567357
1.77450,30.99164561
1.77500,32.21242324
1.77550,27.93970153
1.77600,20.92023016
1.77650,16.95270286
1.77700,16.03711963
1.77750,12.98517556
1.77800,6.881287402
1.77850,1.692982472
1.77900,-1.664156013
1.77950,-6.852460944
1.78000,-14.48232114
1.78050,-19.97582048
1.78100,-23.33295896
1.78150,-27.60568067
1.78200,-33.40437441
1.78250,-32.7939856
1.78300,-19.67062607
1.78350,-0.1381839747
1.78400,13.90075878
1.78450,17.56309167
1.78500,14.816342
1.78550,11.15400911
1.78600,7.491676218
1.78650,3.21895451
1.78700,-0.7485727901
1.78750,-5.326488906
1.78800,-11.73557147
1.78850,-20.58620929
1.78900,-29.74204152
1.78950,-38.28748494
1.79000,-47.74851158
1.79050,-57.20953821
1.79100,-63.00823196
1.79150,-62.09264874
1.79200,-59.04070466
1.79250,-61.17706551
1.79300,-68.5017313
1.79350,-73.99523064
1.79400,-71.55367538
1.79450,-66.36537045
1.79500,-64.83939841
1.79550,-67.89134248
1.79600,-68.5017313
1.79650,-63.00823196
1.79700,-54.46278855
1.79750,-45.61215072
1.79800,-35.23554086
1.79850,-23.63815337
1.79900,-13.56673791
1.79950,-7.157655352
1.80000,-1.969350421
1.80050,4.134537733
1.80100,9.933231479
1.80150,12.67998115
1.80200,13.59556437
1.80250,15.73192523
1.80300,19.08906371
1.80350,22.14100779
1.80400,23.05659101
1.80450,21.53061897
1.80500,15.12153641
1.80550,5.050120956
1.80600,-3.800516867
1.80650,-6.547266536
1.80700,-5.021294498
1.80750,-3.495322459
1.80800,-2.884933644
1.80850,0.7773992484
1.80900,9.322842664
1.80950,17.86828608
1.81000,21.83581338
1.81050,22.14100779
1.81100,21.53061897
1.81150,20.61503575
1.81200,18.7838693
1.81250,17.56309167
1.81300,18.17348049
1.81350,19.39425812
1.81400,18.4786749
1.81450,15.73192523
1.81500,15.12153641
1.81550,19.69945253
1.81600,27.93970153
1.81650,35.56956173
1.81700,40.14747784
1.81750,40.14747784
1.81800,34.04358969
1.81850,20.92023016
1.81900,4.439732141
1.81950,-6.547266536
1.82000,-5.936877721
1.82050,2.913760102
1.82100,10.23842589
1.82150,8.102065033
1.82200,-0.4433783824
1.82250,-7.46284976
1.82300,-10.20959943
1.82350,-12.9563491
1.82400,-17.22907081
1.82450,-19.67062607
1.82500,-17.83945962
1.82550,-15.09270995
1.82600,-13.87193232
1.82650,-11.43037706
1.82700,-5.631683313
1.82750,0.7773992484
1.82800,2.608565695
1.82850,0.4722048407
1.82900,-0.7485727901
1.82950,-0.7485727901
1.83000,-3.800516867
1.83050,-9.599210613
1.83100,-12.65115469
1.83150,-8.073238575
1.83200,-0.7485727901
1.83250,2.303371287
1.83300,0.4722048407
1.83350,0.167010433
1.83400,5.660509772
1.83450,13.59556437
1.83500,16.64750845
1.83550,12.37478674
1.83600,5.965704179
1.83650,3.524148918
1.83700,6.881287402
1.83750,12.98517556
1.83800,18.17348049
1.83850,20.30984134
1.83900,18.7838693
1.83950,13.59556437
1.84000,8.102065033
1.84050,3.21895451
1.84100,-1.969350421
1.84150,-8.68362739
1.84200,-10.81998824
1.84250,-7.157655352
1.84300,-5.021294498
1.84350,-11.73557147
1.84400,-23.94334778
1.84450,-30.35243034
1.84500,-27.60568067
1.84550,-23.02776455
1.84600,-19.36543166
1.84650,-11.73557147
1.84700,1.998176879
1.84750,14.20595319
1.84800,17.86828608
1.84850,16.03711963
1.84900,16.95270286
1.84950,21.53061897
1.85000,24.58256305
1.85050,24.58256305
1.85100,23.66697983
1.85150,25.19295186
1.85200,26.7189239
1.85250,25.19295186
1.85300,19.08906371
1.85350,11.76439793
1.85400,7.18648181
1.85450,6.576092995
1.85500,6.881287402
1.85550,3.829343325
1.85600,-4.410905683
1.85650,-16.00829318
1.85700,-26.99529185
1.85750,-30.96281915
1.85800,-24.55373659
1.85850,-11.43037706
1.85900,-0.7485727901
1.85950,3.21895451
1.86000,5.050120956
1.86050,10.54362029
1.86100,19.08906371
1.86150,25.19295186
1.86200,25.80334068
1.86250,23.36178542
1.86300,21.22542456
1.86350,22.4462022
1.86400,26.10853509
1.86450,29.77086798
1.86500,29.16047916
1.86550,22.7513966
1.86600,12.67998115
1.86650,2.303371287
1.86700,-6.852460944
1.86750,-16.00829318
1.86800,-24.858931
1.86850,-32.18359678
1.86900,-36.45631849
1.86950,-38.89787375
1.87000,-43.17059546
1.87050,-51.10565006
1.87100,-59.04070466
1.87150,-62.39784315
1.87200,-61.78745433
1.87250,-63.92381518
1.87300,-71.24848097
1.87350,-77.65756353
1.87400,-72.16406419
1.87450,-52.6316221
1.87500,-27.91087508
1.87550,-10.51479384
1.87600,-4.71610009
1.87650,-4.71610009
1.87700,-2.274544829
1.87750,3.524148918
1.87800,7.18648181
1.87850,4.134537733
1.87900,-0.1381839747
1.87950,3.829343325
1.88000,16.64750845
1.88050,27.93970153
1.88100,26.7189239
1.88150,16.64750845
1.88200,9.322842664
1.88250,11.15400911
1.88300,16.64750845
1.88350,18.7838693
1.88400,18.7838693
1.88450,23.05659101
1.88500,28.24489594
1.88550,25.80334068
1.88600,13.29036996
1.88650,2.303371287
1.88700,4.439732141
1.88750,16.95270286
1.88800,26.10853509
1.88850,24.27736864
1.88900,17.56309167
1.88950,14.816342
1.89000,16.03711963
1.89050,16.03711963
1.89100,12.67998115
1.89150,9.322842664
1.89200,8.712453849
1.89250,9.628037072
1.89300,8.102065033
1.89350,2.913760102
1.89400,-4.410905683
1.89450,-9.599210613
1.89500,-8.378432983
1.89550,-2.274544829
1.89600,4.439732141
1.89650,9.628037072
1.89700,14.51114759
1.89750,19.08906371
1.89800,20.61503575
1.89850,20.30984134
1.89900,21.83581338
1.89950,25.80334068
1.90000,29.46567357
1.90050,30.07606239
1.90100,29.77086798
1.90150,31.60203443
1.90200,33.43320087
1.90250,32.82281206
1.90300,31.60203443
1.90350,31.60203443
1.90400,31.90722883
1.90450,28.55009035
1.90500,20.92023016
1.90550,13.29036996
1.90600,7.18648181
1.90650,2.913760102
1.90700,-0.1381839747
1.90750,-1.969350421
1.90800,-4.410905683
1.90850,-9.599210613
1.90900,-18.75504284
1.90950,-30.04723593
1.91000,-41.94981783
1.91050,-52.02123328
1.91100,-58.43031585
1.91150,-61.17706551
1.91200,-61.78745433
1.91250,-61.78745433
1.91300,-59.34589907
1.91350,-51.71603888
1.91400,-39.81345698
1.91450,-29.13165271
1.91500,-23.94334778
1.91550,-23.94334778
1.91600,-24.24854218
1.91650,-23.63815337
1.91700,-24.24854218
1.91750,-26.07970863
1.91800,-24.24854218
1.91850,-14.17712673
1.91900,-0.1381839747
1.91950,9.017648256
1.92000,6.881287402
1.92050,-0.1381839747
1.92100,-2.579739236
1.92150,1.998176879
1.92200,7.796870626
1.92250,10.23842589
1.92300,11.45920352
1.92350,14.816342
1.92400,19.39425812
1.92450,21.22542456
1.92500,17.86828608
1.92550,10.8488147
1.92600,5.050120956
1.92650,5.050120956
1.92700,9.933231479
1.92750,13.90075878
1.92800,11.76439793
1.92850,5.355315364
1.92900,0.7773992484
1.92950,1.387788064
1.93000,4.134537733
1.93050,5.050120956
1.93100,5.050120956
1.93150,6.576092995
1.93200,9.322842664
1.93250,10.8488147
1.93300,9.322842664
1.93350,7.18648181
1.93400,6.270898587
1.93450,6.881287402
1.93500,9.017648256
1.93550,11.45920352
1.93600,12.67998115
1.93650,12.06959233
1.93700,9.933231479
1.93750,6.270898587
1.93800,3.524148918
1.93850,1.998176879
1.93900,2.913760102
1.93950,5.355315364
1.94000,7.18648181
1.94050,6.576092995
1.94100,2.913760102
1.94150,-0.4433783824
1.94200,-0.1381839747
1.94250,4.744926549
1.94300,7.491676218
1.94350,2.608565695
1.94400,-5.326488906
1.94450,-7.768044167
1.94500,-2.884933644
1.94550,1.387788064
1.94600,0.4722048407
1.94650,-1.969350421
1.94700,-0.7485727901
1.94750,5.050120956
1.94800,12.67998115
1.94850,20.00464693
1.94900,23.97217423
1.94950,19.69945253
1.95000,7.796870626
1.95050,-2.274544829
1.95100,-4.105711275
1.95150,-0.4433783824
1.95200,0.7773992484
1.95250,-1.358961606
1.95300,-2.884933644
1.95350,-0.7485727901
1.95400,3.524148918
1.95450,8.407259441
1.95500,11.76439793
1.95550,11.45920352
1.95600,7.796870626
1.95650,3.524148918
1.95700,1.692982472
1.95750,0.7773992484
1.95800,-0.1381839747
1.95850,1.387788064
1.95900,6.270898587
1.95950,9.933231479
1.96000,6.576092995
1.96050,-0.1381839747
1.96100,-2.274544829
1.96150,2.608565695
1.96200,8.712453849
1.96250,10.54362029
1.96300,9.017648256
1.96350,8.102065033
1.96400,8.407259441
1.96450,7.491676218
1.96500,4.134537733
1.96550,-0.4433783824
1.96600,-3.800516867
1.96650,-3.495322459
1.96700,-1.969350421
1.96750,-2.274544829
1.96800,-4.71610009
1.96850,-1.969350421
1.96900,11.45920352
1.96950,29.16047916
1.97000,37.40072817
1.97050,33.12800646
1.97100,25.49814627
1.97150,23.66697983
1.97200,24.27736864
1.97250,19.08906371
1.97300,9.933231479
1.97350,6.576092995
1.97400,8.407259441
1.97450,4.134537733
1.97500,-10.51479384
1.97550,-23.33295896
1.97600,-19.97582048
1.97650,-5.021294498
1.97700,3.829343325
1.97750,-0.7485727901
1.97800,-12.04076588
1.97850,-18.75504284
1.97900,-20.28101488
1.97950,-20.28101488
1.98000,-20.8914037
1.98050,-21.19659811
1.98100,-21.80698692
1.98150,-21.19659811
1.98200,-16.9238764
1.98250,-10.51479384
1.98300,-7.46284976
1.98350,-8.988821798
1.98400,-10.81998824
1.98450,-10.81998824
1.98500,-11.73557147
1.98550,-14.78751554
1.98600,-14.17712673
1.98650,-6.547266536
1.98700,2.913760102
1.98750,8.102065033
1.98800,8.712453849
1.98850,7.796870626
1.98900,4.744926549
1.98950,-0.1381839747
1.99000,-3.495322459
1.99050,-3.190128052
1.99100,-4.410905683
1.99150,-12.04076588
1.99200,-20.58620929
1.99250,-22.72257014
1.99300,-18.44984844
1.99350,-14.78751554
1.99400,-14.17712673
1.99450,-14.78751554
1.99500,-15.70309877
1.99550,-17.22907081
1.99600,-18.14465403
1.99650,-15.39790436
1.99700,-10.51479384
1.99750,-8.073238575
1.99800,-9.294016206
1.99850,-10.81998824
1.99900,-10.20959943
1.99950,-7.768044167
2.00000,-5.936877721
2.00050,-5.326488906
2.00100,-5.326488906
2.00150,-3.495322459
2.00200,1.692982472
2.00250,7.491676218
2.00300,7.796870626
2.00350,2.303371287
2.00400,-2.274544829
2.00450,-2.579739236
2.00500,-1.358961606
2.00550,-0.4433783824
2.00600,3.524148918
2.00650,13.29036996
2.00700,22.14100779
2.00750,24.88775746
2.00800,24.88775746
2.00850,26.7189239
2.00900,29.16047916
2.00950,27.63450713
2.01000,23.36178542
2.01050,20.30984134
2.01100,17.56309167
2.01150,12.06959233
2.01200,5.355315364
2.01250,0.4722048407
2.01300,-2.884933644
2.01350,-8.073238575
2.01400,-12.04076588
2.01450,-12.04076588
2.01500,-11.12518265
2.01550,-14.48232114
2.01600,-19.97582048
2.01650,-21.50179251
2.01700,-19.97582048
2.01750,-20.58620929
2.01800,-21.80698692
2.01850,-16.9238764
2.01900,-4.71610009
2.01950,6.270898587
2.02000,12.06959233
2.02050,15.12153641
2.02100,18.7838693
2.02150,19.39425812
2.02200,15.73192523
2.02250,13.29036996
2.02300,15.73192523
2.02350,19.69945253
2.02400,22.14100779
2.02450,24.88775746
2.02500,29.16047916
2.02550,30.07606239
2.02600,23.66697983
2.02650,15.73192523
2.02700,13.59556437
2.02750,14.816342
2.02800,13.29036996
2.02850,9.933231479
2.02900,9.017648256
2.02950,11.45920352
2.03000,12.67998115
2.03050,11.76439793
2.03100,9.322842664
2.03150,5.965704179
2.03200,2.913760102
2.03250,3.524148918
2.03300,8.712453849
2.03350,12.67998115
2.03400,11.15400911
2.03450,8.102065033
2.03500,6.881287402
2.03550,2.608565695
2.03600,-7.157655352
2.03650,-19.06023725
2.03700,-26.99529185
2.03750,-34.93034645
2.03800,-44.39137309
2.03850,-46.52773395
2.03900,-32.48879119
2.03950,-10.81998824
2.04000,1.387788064
2.04050,-0.7485727901
2.04100,-8.68362739
2.04150,-13.26154351
2.04200,-14.78751554
2.04250,-14.78751554
2.04300,-13.87193232
2.04350,-15.70309877
2.04400,-24.55373659
2.04450,-35.84592968
2.04500,-39.50826257
2.04550,-31.57320797
2.04600,-15.70309877
2.04650,2.608565695
2.04700,20.61503575
2.04750,33.12800646
2.04800,34.95917291
2.04850,27.93970153
2.04900,18.17348049
2.04950,9.933231479
2.05000,2.608565695
2.05050,-1.969350421
2.05100,-3.190128052
2.05150,-3.190128052
2.05200,-5.936877721
2.05250,-10.51479384
2.05300,-12.9563491
2.05350,-12.04076588
2.05400,-10.81998824
2.05450,-12.04076588
2.05500,-14.48232114
2.05550,-14.78751554
2.05600,-8.988821798
2.05650,1.387788064
2.05700,12.06959233
2.05750,15.73192523
2.05800,11.15400911
2.05850,1.998176879
2.05900,-5.021294498
2.05950,-6.852460944
2.06000,-2.274544829
2.06050,4.744926549
2.06100,9.322842664
2.06150,7.18648181
2.06200,0.7773992484
2.06250,-5.021294498
2.06300,-8.378432983
2.06350,-7.46284976
2.06400,-1.664156013
2.06450,5.660509772
2.06500,7.18648181
2.06550,-0.1381839747
2.06600,-6.242072129
2.06650,-3.495322459
2.06700,3.524148918
2.06750,3.829343325
2.06800,-1.053767198
2.06850,0.167010433
2.06900,9.322842664
2.06950,12.98517556
2.07000,4.439732141
2.07050,-3.190128052
2.07100,1.692982472
2.07150,15.42673082
2.07200,22.4462022
2.07250,20.30984134
2.07300,18.7838693
2.07350,21.53061897
2.07400,21.53061897
2.07450,12.98517556
2.07500,0.7773992484
2.07550,-6.852460944
2.07600,-8.68362739
2.07650,-6.547266536
2.07700,-1.358961606
2.07750,6.270898587
2.07800,14.51114759
2.07850,19.39425812
2.07900,18.7838693
2.07950,11.76439793
2.08000,1.082593656
2.08050,-8.073238575
2.08100,-11.43037706
2.08150,-8.073238575
2.08200,-3.800516867
2.08250,-4.105711275
2.08300,-8.988821798
2.08350,-14.48232114
2.08400,-19.06023725
2.08450,-23.02776455
2.08500,-25.16412541
2.08550,-23.63815337
2.08600,-19.06023725
2.08650,-16.31348758
2.08700,-18.14465403
2.08750,-20.8914037
2.08800,-19.97582048
2.08850,-17.22907081
2.08900,-16.00829318
2.08950,-17.53426521
2.09000,-18.75504284
2.09050,-18.75504284
2.09100,-19.97582048
2.09150,-21.19659811
2.09200,-18.14465403
2.09250,-11.43037706
2.09300,-5.631683313
2.09350,-5.021294498
2.09400,-6.242072129
2.09450,-5.326488906
2.09500,-3.190128052
2.09550,-3.190128052
2.09600,-5.021294498
2.09650,-4.71610009
2.09700,-1.664156013
2.09750,1.082593656
2.09800,1.692982472
2.09850,0.4722048407
2.09900,-1.053767198
2.09950,-4.105711275
2.10000,-7.157655352
2.10050,-8.378432983
2.10100,-7.768044167
2.10150,-7.46284976
2.10200,-8.988821798
2.10250,-10.51479384
2.10300,-10.81998824
2.10350,-10.51479384
2.10400,-11.12518265
2.10450,-12.9563491
2.10500,-16.31348758
2.10550,-18.75504284
2.10600,-19.06023725
2.10650,-16.61868199
2.10700,-14.78751554
2.10750,-16.31348758
2.10800,-19.97582048
2.10850,-20.8914037
2.10900,-17.22907081
2.10950,-10.51479384
2.11000,-6.242072129
2.11050,-8.073238575
2.11100,-14.78751554
2.11150,-21.50179251
2.11200,-23.33295896
2.11250,-21.50179251
2.11300,-20.8914037
2.11350,-22.41737574
2.11400,-20.28101488
2.11450,-12.04076588
2.11500,-6.547266536
2.11550,-13.26154351
2.11600,-28.8264583
2.11650,-40.42384579
2.11700,-41.03423461
2.11750,-32.48879119
2.11800,-17.53426521
2.11850,5.355315364
2.11900,31.90722883
2.11950,47.47214363
2.12000,42.89422751
2.12050,23.05659101
2.12100,2.608565695
2.12150,-7.768044167
2.12200,-8.073238575
2.12250,-5.326488906
2.12300,-6.852460944
2.12350,-12.9563491
2.12400,-15.09270995
2.12450,-7.768044167
2.12500,3.21895451
2.12550,6.881287402
2.12600,1.998176879
2.12650,-0.7485727901
2.12700,2.913760102
2.12750,7.796870626
2.12800,5.050120956
2.12850,-2.274544829
2.12900,-5.631683313
2.12950,-1.664156013
2.13000,4.134537733
2.13050,6.270898587
2.13100,2.303371287
2.13150,-4.71610009
2.13200,-11.43037706
2.13250,-16.00829318
2.13300,-17.83945962
2.13350,-16.9238764
2.13400,-13.26154351
2.13450,-9.294016206
2.13500,-8.68362739
2.13550,-12.34596028
2.13600,-14.78751554
2.13650,-11.73557147
2.13700,-5.631683313
2.13750,-2.579739236
2.13800,-3.190128052
2.13850,-2.579739236
2.13900,-0.1381839747
2.13950,1.998176879
2.14000,4.439732141
2.14050,9.628037072
2.14100,16.34231404
2.14150,19.69945253
2.14200,18.4786749
2.14250,16.34231404
2.14300,15.42673082
2.14350,14.20595319
2.14400,11.15400911
2.14450,8.712453849
2.14500,8.712453849
2.14550,8.407259441
2.14600,5.355315364
2.14650,1.082593656
2.14700,-1.053767198
2.14750,-1.053767198
2.14800,-1.053767198
2.14850,-0.1381839747
2.14900,4.134537733
2.14950,11.45920352
2.15000,16.34231404
2.15050,16.03711963
2.15100,13.29036996
2.15150,13.90075878
2.15200,18.7838693
2.15250,22.14100779
2.15300,21.22542456
2.15350,18.17348049
2.15400,16.64750845
2.15450,16.64750845
2.15500,16.64750845
2.15550,17.25789726
2.15600,18.7838693
2.15650,21.22542456
2.15700,24.58256305
2.15750,30.3812568
2.15800,37.40072817
2.15850,40.75786666
2.15900,36.79033936
2.15950,29.77086798
2.16000,25.49814627
2.16050,23.66697983
2.16100,21.22542456
2.16150,18.4786749
2.16200,17.56309167
2.16250,16.64750845
2.16300,10.8488147
2.16350,0.7773992484
2.16400,-8.073238575
2.16450,-13.56673791
2.16500,-15.70309877
2.16550,-15.09270995
2.16600,-12.65115469
2.16650,-11.73557147
2.16700,-17.53426521
2.16750,-30.04723593
2.16800,-45.00176191
2.16850,-59.95628788
2.16900,-72.77445301
2.16950,-80.70950761
2.17000,-80.4043132
2.17050,-77.35236912
2.17100,-78.87834116
2.17150,-81.31989642
2.17200,-75.21600827
2.17250,-60.5666767
2.17300,-49.88487243
2.17350,-49.27448361
2.17400,-47.44331717
2.17450,-33.40437441
2.17500,-11.43037706
2.17550,4.134537733
2.17600,9.933231479
2.17650,10.23842589
2.17700,8.712453849
2.17750,3.524148918
2.17800,-3.800516867
2.17850,-10.20959943
2.17900,-15.70309877
2.17950,-19.67062607
2.18000,-18.75504284
2.18050,-12.9563491
2.18100,-10.20959943
2.18150,-19.67062607
2.18200,-37.37190171
2.18250,-48.35890039
2.18300,-42.86540105
2.18350,-26.07970863
2.18400,-8.68362739
2.18450,4.744926549
2.18500,16.03711963
2.18550,23.36178542
2.18600,23.97217423
2.18650,18.17348049
2.18700,13.29036996
2.18750,15.12153641
2.18800,21.22542456
2.18850,20.61503575
2.18900,7.796870626
2.18950,-11.12518265
2.19000,-26.38490304
2.19050,-35.54073527
2.19100,-43.78098428
2.19150,-52.32642769
2.19200,-54.15759414
2.19250,-46.52773395
2.19300,-36.15112408
2.19350,-30.65762474
2.19400,-29.74204152
2.19450,-27.60568067
2.19500,-21.50179251
2.19550,-13.26154351
2.19600,-5.631683313
2.19650,0.4722048407
2.19700,6.576092995
2.19750,13.59556437
2.19800,23.66697983
2.19850,36.79033936
2.19900,49.91369889
2.19950,59.98511434
2.20000,64.86822487
2.20050,63.34225283
2.20100,56.32278145
2.20150,46.5565604
2.20200,39.23189462
2.20250,34.3487841
2.20300,30.99164561
2.20350,28.85528476
2.20400,27.32931272
2.20450,23.97217423
2.20500,16.64750845
2.20550,10.8488147
2.20600,13.29036996
2.20650,24.58256305
2.20700,36.48514495
2.20750,44.11500514
2.20800,50.82928211
2.20850,59.06953112
2.20900,64.86822487
2.20950,61.81628079
2.21000,52.05005974
2.21050,44.11500514
2.21100,43.50461633
2.21150,47.47214363
2.21200,49.30331007
2.21250,45.03058837
2.21300,37.40072817
2.21350,30.6864512
2.21400,26.7189239
2.21450,23.05659101
2.21500,17.56309167
2.21550,12.67998115
2.21600,10.54362029
2.21650,9.628037072
2.21700,5.050120956
2.21750,-2.274544829
2.21800,-7.157655352
2.21850,-5.326488906
2.21900,0.4722048407
2.21950,6.881287402
2.22000,13.59556437
2.22050,22.7513966
2.22100,31.90722883
2.22150,35.26436732
2.22200,30.6864512
2.22250,23.66697983
2.22300,22.4462022
2.22350,28.55009035
2.22400,34.6539785
2.22450,32.82281206
2.22500,21.22542456
2.22550,6.270898587
2.22600,-6.852460944
2.22650,-19.06023725
2.22700,-29.13165271
2.22750,-32.7939856
2.22800,-25.46931981
2.22850,-12.04076588
2.22900,-2.579739236
2.22950,0.167010433
2.23000,1.387788064
2.23050,5.050120956
2.23100,8.102065033
2.23150,6.576092995
2.23200,2.608565695
2.23250,0.7773992484
2.23300,1.387788064
2.23350,1.387788064
2.23400,0.4722048407
2.23450,1.387788064
2.23500,5.355315364
2.23550,10.8488147
2.23600,13.59556437
2.23650,13.29036996
2.23700,12.37478674
2.23750,14.20595319
2.23800,18.7838693
2.23850,22.7513966
2.23900,23.36178542
2.23950,21.83581338
2.24000,18.4786749
2.24050,13.59556437
2.24100,6.576092995
2.24150,1.692982472
2.24200,3.524148918
2.24250,10.54362029
2.24300,15.12153641
2.24350,12.98517556
2.24400,6.881287402
2.24450,2.303371287
2.24500,-0.1381839747
2.24550,-1.969350421
2.24600,-4.105711275
2.24650,-4.410905683
2.24700,-4.105711275
2.24750,-4.71610009
2.24800,-5.936877721
2.24850,-4.105711275
2.24900,-0.1381839747
2.24950,1.387788064
2.25000,-1.053767198
2.25050,-5.326488906
2.25100,-5.936877721
2.25150,-3.800516867
2.25200,-1.969350421
2.25250,-1.969350421
2.25300,-1.969350421
2.25350,0.4722048407
2.25400,6.881287402
2.25450,14.51114759
2.25500,20.61503575
2.25550,22.7513966
2.25600,19.69945253
2.25650,12.98517556
2.25700,6.881287402
2.25750,5.355315364
2.25800,9.628037072
2.25850,15.73192523
2.25900,19.69945253
2.25950,20.92023016
2.26000,19.08906371
2.26050,13.59556437
2.26100,3.829343325
2.26150,-6.852460944
2.26200,-10.81998824
2.26250,-4.410905683
2.26300,6.270898587
2.26350,13.29036996
2.26400,14.816342
2.26450,15.42673082
2.26500,20.00464693
2.26550,26.7189239
2.26600,30.07606239
2.26650,27.32931272
2.26700,21.83581338
2.26750,17.25789726
2.26800,16.64750845
2.26850,20.61503575
2.26900,27.02411831
2.26950,33.43320087
2.27000,35.56956173
2.27050,30.6864512
2.27100,20.92023016
2.27150,10.23842589
2.27200,1.082593656
2.27250,-5.631683313
2.27300,-10.81998824
2.27350,-12.65115469
2.27400,-12.9563491
2.27450,-16.31348758
2.27500,-25.16412541
2.27550,-33.70956882
2.27600,-34.93034645
2.27650,-28.8264583
2.27700,-23.02776455
2.27750,-21.50179251
2.27800,-22.11218133
2.27850,-20.8914037
2.27900,-16.31348758
2.27950,-9.904405021
2.28000,-2.579739236
2.28050,3.829343325
2.28100,6.881287402
2.28150,3.21895451
2.28200,-5.936877721
2.28250,-17.22907081
2.28300,-27.30048626
2.28350,-34.31995764
2.28400,-37.67709612
2.28450,-37.37190171
2.28500,-32.18359678
2.28550,-20.8914037
2.28600,-5.326488906
2.28650,6.881287402
2.28700,10.8488147
2.28750,7.796870626
2.28800,4.439732141
2.28850,5.660509772
2.28900,12.67998115
2.28950,24.27736864
2.29000,38.6215058
2.29050,52.35525415
2.29100,62.1214752
2.29150,67.30978013
2.29200,69.75133539
2.29250,70.66691861
2.29300,68.83575217
2.29350,64.56303046
2.29400,58.76433671
2.29450,51.43967093
2.29500,40.14747784
2.29550,25.80334068
2.29600,10.23842589
2.29650,-4.410905683
2.29700,-19.06023725
2.29750,-30.65762474
2.29800,-34.93034645
2.29850,-32.7939856
2.29900,-29.74204152
2.29950,-28.8264583
2.30000,-29.43684711
2.30050,-28.8264583
2.30100,-26.69009744
2.30150,-23.94334778
2.30200,-21.80698692
2.30250,-23.02776455
2.30300,-29.74204152
2.30350,-39.81345698
2.30400,-49.57967802
2.30450,-55.37837177
2.30500,-56.29395499
2.30550,-51.71603888
2.30600,-43.47578987
2.30650,-36.7615129
2.30700,-35.54073527
2.30750,-37.06670731
2.30800,-35.54073527
2.30850,-30.65762474
2.30900,-26.69009744
2.30950,-23.63815337
2.31000,-19.67062607
2.31050,-16.61868199
2.31100,-18.44984844
2.31150,-23.02776455
2.31200,-22.41737574
2.31250,-14.17712673
2.31300,-5.631683313
2.31350,-3.800516867
2.31400,-7.157655352
2.31450,-11.43037706
2.31500,-15.39790436
2.31550,-19.36543166
2.31600,-22.11218133
2.31650,-21.19659811
2.31700,-16.00829318
2.31750,-9.904405021
2.31800,-5.631683313
2.31850,-3.495322459
2.31900,-0.4433783824
2.31950,8.407259441
2.32000,21.83581338
2.32050,33.73839528
2.32100,39.84228343
2.32150,44.42019955
2.32200,53.27083737
2.32250,64.56303046
2.32300,72.49808506
2.32350,75.24483473
2.32400,72.80327947
2.32450,64.25783605
2.32500,48.99811567
2.32550,31.90722883
2.32600,17.86828608
2.32650,5.660509772
2.32700,-8.378432983
2.32750,-24.55373659
2.32800,-36.45631849
2.32850,-42.25501224
2.32900,-44.39137309
2.32950,-45.91734513
2.33000,-47.74851158
2.33050,-49.57967802
2.33100,-50.19006684
2.33150,-45.61215072
2.33200,-36.15112408
2.33250,-26.69009744
2.33300,-19.06023725
2.33350,-9.294016206
2.33400,5.660509772
2.33450,20.61503575
2.33500,29.46567357
2.33550,33.73839528
2.33600,39.84228343
2.33650,47.47214363
2.33700,52.35525415
2.33750,54.491615
2.33800,57.23836467
2.33850,58.1539479
2.33900,50.5240877
2.33950,34.95917291
2.34000,20.30984134
2.34050,13.59556437
2.34100,13.29036996
2.34150,15.12153641
2.34200,15.73192523
2.34250,14.51114759
2.34300,9.933231479
2.34350,4.744926549
2.34400,2.913760102
2.34450,3.829343325
2.34500,3.21895451
2.34550,-0.1381839747
2.34600,-5.021294498
2.34650,-10.81998824
2.34700,-19.36543166
2.34750,-28.21606948
2.34800,-30.04723593
2.34850,-21.50179251
2.34900,-9.904405021
2.34950,-2.884933644
2.35000,0.167010433
2.35050,3.21895451
2.35100,6.576092995
2.35150,8.712453849
2.35200,10.8488147
2.35250,14.20595319
2.35300,16.03711963
2.35350,15.73192523
2.35400,18.17348049
2.35450,26.7189239
2.35500,35.87475613
2.35550,36.79033936
2.35600,30.07606239
2.35650,23.05659101
2.35700,20.61503575
2.35750,19.08906371
2.35800,14.51114759
2.35850,7.18648181
2.35900,-0.1381839747
2.35950,-8.378432983
2.36000,-17.22907081
2.36050,-23.94334778
2.36100,-27.30048626
2.36150,-28.8264583
2.36200,-30.35243034
2.36250,-29.43684711
2.36300,-25.46931981
2.36350,-22.72257014
2.36400,-23.63815337
2.36450,-24.55373659
2.36500,-18.14465403
2.36550,-3.800516867
2.36600,9.017648256
2.36650,13.59556437
2.36700,13.29036996
2.36750,16.95270286
2.36800,26.7189239
2.36850,34.6539785
2.36900,34.3487841
2.36950,27.93970153
2.37000,22.14100779
2.37050,19.08906371
2.37100,17.86828608
2.37150,19.08906371
2.37200,22.7513966
2.37250,24.58256305
2.37300,20.30984134
2.37350,11.45920352
2.37400,4.744926549
2.37450,3.21895451
2.37500,3.524148918
2.37550,4.439732141
2.37600,5.965704179
2.37650,6.881287402
2.37700,4.744926549
2.37750,0.7773992484
2.37800,-1.053767198
2.37850,-2.274544829
2.37900,-8.378432983
2.37950,-19.36543166
2.38000,-27.60568067
2.38050,-30.65762474
2.38100,-34.31995764
2.38150,-45.61215072
2.38200,-59.34589907
2.38250,-67.89134248
2.38300,-70.02770334
2.38350,-71.85886978
2.38400,-74.60561945
2.38450,-73.07964742
2.38500,-64.83939841
2.38550,-52.6316221
2.38600,-41.33942901
2.38650,-30.35243034
2.38700,-18.14465403
2.38750,-4.410905683
2.38800,9.628037072
2.38850,22.14100779
2.38900,30.6864512
2.38950,31.90722883
2.39000,26.4137295
2.39050,17.56309167
2.39100,11.45920352
2.39150,11.15400911
2.39200,16.03711963
2.39250,21.83581338
2.39300,21.53061897
2.39350,12.06959233
2.39400,-4.71610009
2.39450,-23.02776455
2.39500,-38.28748494
2.39550,-49.88487243
2.39600,-59.34589907
2.39650,-67.89134248
2.39700,-74.91081386
2.39750,-77.96275794
2.39800,-75.21600827
2.39850,-65.75498163
2.39900,-52.02123328
2.39950,-36.45631849
2.40000,-22.41737574
2.40050,-12.04076588
2.40100,-5.936877721
2.40150,-4.105711275
2.40200,-5.326488906
2.40250,-8.378432983
2.40300,-10.20959943
2.40350,-5.936877721
2.40400,3.829343325
2.40450,12.37478674
2.40500,10.8488147
2.40550,0.4722048407
2.40600,-8.378432983
2.40650,-10.51479384
2.40700,-11.12518265
2.40750,-18.75504284
2.40800,-30.65762474
2.40850,-37.37190171
2.40900,-32.7939856
2.40950,-22.41737574
2.41000,-13.87193232
2.41050,-8.988821798
2.41100,-5.021294498
2.41150,-0.4433783824
2.41200,2.608565695
2.41250,2.913760102
2.41300,1.387788064
2.41350,0.167010433
2.41400,-0.7485727901
2.41450,-3.190128052
2.41500,-6.547266536
2.41550,-9.904405021
2.41600,-12.65115469
2.41650,-16.61868199
2.41700,-20.58620929
2.41750,-17.22907081
2.41800,-2.884933644
2.41850,12.98517556
2.41900,16.34231404
2.41950,4.744926549
2.42000,-6.852460944
2.42050,-4.410905683
2.42100,7.491676218
2.42150,12.98517556
2.42200,5.050120956
2.42250,-6.242072129
2.42300,-10.81998824
2.42350,-8.073238575
2.42400,-5.326488906
2.42450,-3.190128052
2.42500,2.303371287
2.42550,11.45920352
2.42600,19.08906371
2.42650,20.30984134
2.42700,17.25789726
2.42750,15.73192523
2.42800,19.08906371
2.42850,24.58256305
2.42900,26.7189239
2.42950,22.14100779
2.43000,13.29036996
2.43050,6.270898587
2.43100,3.524148918
2.43150,4.439732141
2.43200,4.439732141
2.43250,1.387788064
2.43300,-3.800516867
2.43350,-10.51479384
2.43400,-16.00829318
2.43450,-17.83945962
2.43500,-17.22907081
2.43550,-17.22907081
2.43600,-20.58620929
2.43650,-27.30048626
2.43700,-34.01476323
2.43750,-37.98229053
2.43800,-37.37190171
2.43850,-31.26801356
2.43900,-20.8914037
2.43950,-11.43037706
2.44000,-4.71610009
2.44050,-0.1381839747
2.44100,4.744926549
2.44150,7.18648181
2.44200,6.576092995
2.44250,5.965704179
2.44300,9.628037072
2.44350,15.73192523
2.44400,18.17348049
2.44450,14.816342
2.44500,9.017648256
2.44550,6.270898587
2.44600,7.18648181
2.44650,10.54362029
2.44700,15.12153641
2.44750,18.4786749
2.44800,19.69945253
2.44850,19.69945253
2.44900,22.14100779
2.44950,26.7189239
2.45000,27.02411831
2.45050,17.56309167
2.45100,0.4722048407
2.45150,-13.56673791
2.45200,-17.53426521
2.45250,-12.65115469
2.45300,-5.326488906
2.45350,0.7773992484
2.45400,8.407259441
2.45450,16.03711963
2.45500,20.00464693
2.45550,19.08906371
2.45600,16.95270286
2.45650,17.86828608
2.45700,20.92023016
2.45750,23.97217423
2.45800,24.58256305
2.45850,21.53061897
2.45900,12.67998115
2.45950,-0.1381839747
2.46000,-10.20959943
2.46050,-12.65115469
2.46100,-9.294016206
2.46150,-5.631683313
2.46200,-4.105711275
2.46250,-3.800516867
2.46300,-5.021294498
2.46350,-8.988821798
2.46400,-14.17712673
2.46450,-16.9238764
2.46500,-16.61868199
2.46550,-14.78751554
2.46600,-12.04076588
2.46650,-9.904405021
2.46700,-11.73557147
2.46750,-17.53426521
2.46800,-22.11218133
2.46850,-19.67062607
2.46900,-14.17712673
2.46950,-14.17712673
2.47000,-18.44984844
2.47050,-16.61868199
2.47100,-3.800516867
2.47150,14.51114759
2.47200,29.46567357
2.47250,38.6215058
2.47300,42.89422751
2.47350,41.67344988
2.47400,35.87475613
2.47450,30.07606239
2.47500,27.02411831
2.47550,26.10853509
2.47600,27.63450713
2.47650,32.82281206
2.47700,38.92670021
2.47750,38.92670021
2.47800,30.3812568
2.47850,19.39425812
2.47900,13.59556437
2.47950,12.06959233
2.48000,12.06959233
2.48050,15.42673082
2.48100,22.4462022
2.48150,24.88775746
2.48200,15.12153641
2.48250,-2.884933644
2.48300,-19.36543166
2.48350,-28.52126389
2.48400,-34.31995764
2.48450,-38.89787375
2.48500,-38.59267935
2.48550,-30.65762474
2.48600,-19.67062607
2.48650,-12.34596028
2.48700,-10.51479384
2.48750,-8.988821798
2.48800,-5.326488906
2.48850,-1.053767198
2.48900,-0.1381839747
2.48950,-1.969350421
2.49000,-5.326488906
2.49050,-9.294016206
2.49100,-14.78751554
2.49150,-23.02776455
2.49200,-32.7939856
2.49250,-41.33942901
2.49300,-47.44331717
2.49350,-50.49526125
2.49400,-50.19006684
2.49450,-49.27448361
2.49500,-49.88487243
2.49550,-51.41084447
2.49600,-49.57967802
2.49650,-41.94981783
2.49700,-33.09918001
2.49750,-29.13165271
2.49800,-27.91087508
2.49850,-24.55373659
2.49900,-19.36543166
2.49950,-17.53426521
2.50000,-19.06023725
2.50050,-17.53426521
2.50100,-10.20959943
2.50150,-1.969350421
2.50200,2.303371287
2.50250,7.18648181
2.50300,15.12153641
2.50350,22.4462022
2.50400,23.36178542
2.50450,20.92023016
2.50500,21.53061897
2.50550,25.49814627
2.50600,27.63450713
2.50650,25.80334068
2.50700,23.97217423
2.50750,24.27736864
2.50800,23.36178542
2.50850,20.00464693
2.50900,14.816342
2.50950,7.491676218
2.51000,-1.664156013
2.51050,-9.904405021
2.51100,-12.34596028
2.51150,-9.294016206
2.51200,-5.631683313
2.51250,-3.495322459
2.51300,-2.579739236
2.51350,-4.105711275
2.51400,-11.43037706
2.51450,-21.50179251
2.51500,-27.60568067
2.51550,-29.43684711
2.51600,-33.09918001
2.51650,-39.20306816
2.51700,-36.45631849
2.51750,-19.67062607
2.51800,2.913760102
2.51850,18.7838693
2.51900,26.7189239
2.51950,32.21242324
2.52000,37.09553376
2.52050,38.92670021
2.52100,39.23189462
2.52150,41.67344988
2.52200,43.19942192
2.52250,38.92670021
2.52300,29.16047916
2.52350,20.30984134
2.52400,15.42673082
2.52450,11.45920352
2.52500,7.491676218
2.52550,4.744926549
2.52600,4.439732141
2.52650,5.660509772
2.52700,8.407259441
2.52750,14.51114759
2.52800,24.58256305
2.52850,37.09553376
2.52900,50.82928211
2.52950,65.17341927
2.53000,77.9915844
2.53050,87.14741663
2.53100,92.94611037
2.53150,96.30324886
2.53200,95.99805445
2.53250,91.11494393
2.53300,83.79027814
2.53350,78.60197321
2.53400,74.93964032
2.53450,67.30978013
2.53500,50.5240877
2.53550,25.19295186
2.53600,-5.936877721
2.53650,-43.47578987
2.53700,-85.59261813
2.53750,-125.5730855
2.53800,-153.650971
2.53850,-165.8587474
2.53900,-166.1639418
2.53950,-160.9756368
2.54000,-152.124999
2.54050,-140.2224171
2.54100,-127.7094464
2.54150,-115.5016701
2.54200,-99.93675529
2.54250,-77.35236912
2.54300,-50.49526125
2.54350,-28.8264583
2.54400,-15.09270995
2.54450,-5.326488906
2.54500,2.303371287
2.54550,5.660509772
2.54600,2.303371287
2.54650,-0.7485727901
2.54700,3.829343325
2.54750,16.95270286
2.54800,30.6864512
2.54850,38.01111699
2.54900,34.95917291
2.54950,25.49814627
2.55000,16.64750845
2.55050,15.12153641
2.55100,18.7838693
2.55150,19.69945253
2.55200,17.56309167
2.55250,19.08906371
2.55300,28.24489594
2.55350,38.92670021
2.55400,44.72539396
2.55450,46.86175481
2.55500,46.86175481
2.55550,44.42019955
2.55600,42.89422751
2.55650,49.30331007
2.55700,60.59550316
2.55750,64.25783605
2.55800,54.491615
2.55850,40.14747784
2.55900,26.7189239
2.55950,5.660509772
2.56000,-26.07970863
2.56050,-53.24201091
2.56100,-61.48225992
2.56150,-60.87187111
2.56200,-71.55367538
2.56250,-89.56014543
2.56300,-89.86533984
2.56350,-63.92381518
2.56400,-32.18359678
2.56450,-17.53426521
2.56500,-21.80698692
2.56550,-33.09918001
2.56600,-43.78098428
2.56650,-54.76798295
2.56700,-64.534204
2.56750,-69.41731452
2.56800,-66.97575926
2.56850,-59.04070466
2.56900,-48.96928921
2.56950,-39.50826257
2.57000,-30.96281915
2.57050,-23.33295896
2.57100,-17.83945962
2.57150,-15.39790436
2.57200,-13.56673791
2.57250,-8.378432983
2.57300,-0.1381839747
2.57350,5.050120956
2.57400,5.355315364
2.57450,6.270898587
2.57500,11.76439793
2.57550,18.17348049
2.57600,18.4786749
2.57650,14.20595319
2.57700,12.37478674
2.57750,17.86828608
2.57800,27.32931272
2.57850,33.73839528
2.57900,34.3487841
2.57950,30.99164561
2.58000,30.3812568
2.58050,36.79033936
2.58100,47.47214363
2.58150,55.71239263
2.58200,57.23836467
2.58250,52.96564297
2.58300,45.33578277
2.58350,34.6539785
2.58400,22.7513966
2.58450,15.73192523
2.58500,16.64750845
2.58550,20.30984134
2.58600,19.69945253
2.58650,15.12153641
2.58700,13.90075878
2.58750,18.7838693
2.58800,26.4137295
2.58850,31.60203443
2.58900,34.6539785
2.58950,37.40072817
2.59000,39.84228343
2.59050,40.14747784
2.59100,38.92670021
2.59150,38.3163114
2.59200,39.53708903
2.59250,42.5890331
2.59300,46.5565604
2.59350,51.43967093
2.59400,57.54355908
2.59450,62.1214752
2.59500,60.29030875
2.59550,48.99811567
2.59600,31.90722883
2.59650,17.25789726
2.59700,12.37478674
2.59750,18.17348049
2.59800,30.07606239
2.59850,40.45267225
2.59900,44.42019955
2.59950,42.5890331
2.60000,38.92670021
2.60050,36.17995054
2.60100,32.82281206
2.60150,25.80334068
2.60200,16.64750845
2.60250,9.933231479
2.60300,6.576092995
2.60350,2.608565695
2.60400,-2.579739236
2.60450,-6.242072129
2.60500,-4.410905683
2.60550,-0.1381839747
2.60600,1.998176879
2.60650,1.692982472
2.60700,3.829343325
2.60750,9.322842664
2.60800,13.90075878
2.60850,15.42673082
2.60900,15.42673082
2.60950,14.20595319
2.61000,8.407259441
2.61050,-2.274544829
2.61100,-11.12518265
2.61150,-12.9563491
2.61200,-12.34596028
2.61250,-18.75504284
2.61300,-34.93034645
2.61350,-53.24201091
2.61400,-65.44978722
2.61450,-70.02770334
2.61500,-72.16406419
2.61550,-73.69003623
2.61600,-71.85886978
2.61650,-64.22900959
2.61700,-51.71603888
2.61750,-39.50826257
2.61800,-29.74204152
2.61850,-23.02776455
2.61900,-21.19659811
2.61950,-26.38490304
2.62000,-40.11865138
2.62050,-55.98876058
2.62100,-64.22900959
2.62150,-58.73551025
2.62200,-42.86540105
2.62250,-25.77451422
2.62300,-16.9238764
2.62350,-19.06023725
2.62400,-28.52126389
2.62450,-37.37190171
2.62500,-39.50826257
2.62550,-35.23554086
2.62600,-30.35243034
2.62650,-29.43684711
2.62700,-28.8264583
2.62750,-23.94334778
2.62800,-15.39790436
2.62850,-8.988821798
2.62900,-3.190128052
2.62950,7.796870626
2.63000,25.19295186
2.63050,36.79033936
2.63100,33.12800646
2.63150,18.17348049
2.63200,4.744926549
2.63250,-3.495322459
2.63300,-13.56673791
2.63350,-29.43684711
2.63400,-46.22253954
2.63450,-59.65109348
2.63500,-68.5017313
2.63550,-73.38484182
2.63600,-72.77445301
2.63650,-65.75498163
2.63700,-52.93681651
2.63750,-34.93034645
2.63800,-10.20959943
2.63850,19.08906371
2.63900,47.16694922
2.63950,67.00458572
2.64000,77.38119558
2.64050,85.01105577
2.64100,96.91363767
2.64150,112.7837469
2.64200,124.07594
2.64250,123.7707456
2.64300,112.1733581
2.64350,94.47208241
2.64400,73.41366828
2.64450,51.74486533
2.64500,38.92670021
2.64550,43.80981073
2.64600,61.51108638
2.64650,73.71886269
2.64700,66.0890025
2.64750,43.50461633
2.64800,19.69945253
2.64850,4.439732141
2.64900,-0.1381839747
2.64950,5.050120956
2.65000,18.17348049
2.65050,29.46567357
2.65100,30.6864512
2.65150,22.4462022
2.65200,12.06959233
2.65250,2.608565695
2.65300,-8.073238575
2.65350,-19.36543166
2.65400,-26.38490304
2.65450,-28.52126389
2.65500,-30.65762474
2.65550,-34.31995764
2.65600,-36.45631849
2.65650,-34.93034645
2.65700,-31.87840238
2.65750,-26.69009744
2.65800,-16.31348758
2.65850,-1.969350421
2.65900,9.628037072
2.65950,13.59556437
2.66000,13.90075878
2.66050,15.73192523
2.66100,18.7838693
2.66150,18.17348049
2.66200,11.45920352
2.66250,1.998176879
2.66300,-7.768044167
2.66350,-16.31348758
2.66400,-21.50179251
2.66450,-18.75504284
2.66500,-7.768044167
2.66550,6.881287402
2.66600,18.17348049
2.66650,23.05659101
2.66700,24.58256305
2.66750,26.7189239
2.66800,30.6864512
2.66850,32.21242324
2.66900,26.4137295
2.66950,12.37478674
2.67000,-4.410905683
2.67050,-18.14465403
2.67100,-26.38490304
2.67150,-30.65762474
2.67200,-34.62515204
2.67250,-39.50826257
2.67300,-44.6965675
2.67350,-48.6640948
2.67400,-51.41084447
2.67450,-53.54720532
2.67500,-54.46278855
2.67550,-51.10565006
2.67600,-45.30695631
2.67650,-41.94981783
2.67700,-41.94981783
2.67750,-39.50826257
2.67800,-29.13165271
2.67850,-15.09270995
2.67900,-7.157655352
2.67950,-6.547266536
2.68000,-5.631683313
2.68050,0.7773992484
2.68100,7.796870626
2.68150,8.712453849
2.68200,3.829343325
2.68250,-1.358961606
2.68300,-4.410905683
2.68350,-3.800516867
2.68400,0.4722048407
2.68450,6.881287402
2.68500,9.933231479
2.68550,7.796870626
2.68600,3.524148918
2.68650,1.082593656
2.68700,0.167010433
2.68750,-1.053767198
2.68800,-3.190128052
2.68850,-3.800516867
2.68900,-1.969350421
2.68950,0.4722048407
2.69000,4.439732141
2.69050,9.017648256
2.69100,12.98517556
2.69150,14.816342
2.69200,14.816342
2.69250,14.816342
2.69300,15.42673082
2.69350,15.12153641
2.69400,13.29036996
2.69450,10.8488147
2.69500,10.54362029
2.69550,15.12153641
2.69600,22.7513966
2.69650,27.02411831
2.69700,22.7513966
2.69750,13.59556437
2.69800,8.407259441
2.69850,9.933231479
2.69900,12.37478674
2.69950,9.628037072
2.70000,2.913760102
2.70050,-5.326488906
2.70100,-16.61868199
2.70150,-30.96281915
2.70200,-41.94981783
2.70250,-41.94981783
2.70300,-34.31995764
2.70350,-29.13165271
2.70400,-31.26801356
2.70450,-37.06670731
2.70500,-40.7290402
2.70550,-40.7290402
2.70600,-39.20306816
2.70650,-39.50826257
2.70700,-42.25501224
2.70750,-42.56020665
2.70800,-33.40437441
2.70850,-12.65115469
2.70900,9.933231479
2.70950,23.97217423
2.71000,29.46567357
2.71050,35.56956173
2.71100,45.64097718
2.71150,53.88122619
2.71200,52.96564297
2.71250,43.19942192
2.71300,29.77086798
2.71350,16.03711963
2.71400,5.050120956
2.71450,0.4722048407
2.71500,3.524148918
2.71550,12.06959233
2.71600,21.22542456
2.71650,27.63450713
2.71700,29.46567357
2.71750,25.49814627
2.71800,18.17348049
2.71850,12.67998115
2.71900,11.76439793
2.71950,11.15400911
2.72000,6.881287402
2.72050,0.7773992484
2.72100,-0.4433783824
2.72150,2.303371287
2.72200,2.608565695
2.72250,-4.71610009
2.72300,-16.31348758
2.72350,-22.41737574
2.72400,-19.97582048
2.72450,-13.87193232
2.72500,-10.20959943
2.72550,-9.599210613
2.72600,-9.294016206
2.72650,-4.71610009
2.72700,3.524148918
2.72750,14.20595319
2.72800,22.14100779
2.72850,24.27736864
2.72900,23.05659101
2.72950,22.7513966
2.73000,23.66697983
2.73050,23.97217423
2.73100,23.05659101
2.73150,25.80334068
2.73200,32.51761765
2.73250,36.79033936
2.73300,33.12800646
2.73350,24.58256305
2.73400,16.64750845
2.73450,8.712453849
2.73500,-4.410905683
2.73550,-20.58620929
2.73600,-32.18359678
2.73650,-36.45631849
2.73700,-37.37190171
2.73750,-37.37190171
2.73800,-32.7939856
2.73850,-23.94334778
2.73900,-14.78751554
2.73950,-7.46284976
2.74000,3.21895451
2.74050,18.7838693
2.74100,31.29684002
2.74150,32.51761765
2.74200,27.02411831
2.74250,25.19295186
2.74300,28.85528476
2.74350,31.29684002
2.74400,27.93970153
2.74450,22.4462022
2.74500,17.56309167
2.74550,9.322842664
2.74600,-5.326488906
2.74650,-23.94334778
2.74700,-41.33942901
2.74750,-55.98876058
2.74800,-67.89134248
2.74850,-76.74198031
2.74900,-81.93028524
2.74950,-83.45625728
2.75000,-82.23547965
2.75050,-78.57314675
2.75100,-74.30042505
2.75150,-70.94328656
2.75200,-67.58614808
2.75250,-58.12512144
2.75300,-39.81345698
2.75350,-16.9238764
2.75400,2.608565695
2.75450,15.73192523
2.75500,20.92023016
2.75550,19.39425812
2.75600,12.67998115
2.75650,5.965704179
2.75700,5.050120956
2.75750,11.15400911
2.75800,20.00464693
2.75850,27.93970153
2.75900,34.6539785
2.75950,41.06306107
2.76000,44.72539396
2.76050,42.89422751
2.76100,34.04358969
2.76150,20.61503575
2.76200,6.270898587
2.76250,-5.631683313
2.76300,-12.34596028
2.76350,-12.34596028
2.76400,-9.904405021
2.76450,-10.51479384
2.76500,-14.48232114
2.76550,-15.70309877
2.76600,-9.599210613
2.76650,0.167010433
2.76700,8.102065033
2.76750,13.59556437
2.76800,18.4786749
2.76850,20.00464693
2.76900,12.98517556
2.76950,0.4722048407
2.77000,-7.46284976
2.77050,-5.631683313
2.77100,-0.1381839747
2.77150,3.21895451
2.77200,5.660509772
2.77250,10.23842589
2.77300,16.03711963
2.77350,20.00464693
2.77400,21.53061897
2.77450,21.53061897
2.77500,19.08906371
2.77550,14.20595319
2.77600,10.23842589
2.77650,10.23842589
2.77700,11.15400911
2.77750,9.628037072
2.77800,7.491676218
2.77850,9.017648256
2.77900,12.98517556
2.77950,15.42673082
2.78000,15.73192523
2.78050,14.816342
2.78100,12.67998115
2.78150,8.407259441
2.78200,3.829343325
2.78250,2.303371287
2.78300,3.21895451
2.78350,3.21895451
2.78400,2.608565695
2.78450,5.050120956
2.78500,9.933231479
2.78550,12.37478674
2.78600,9.322842664
2.78650,5.050120956
2.78700,4.744926549
2.78750,9.017648256
2.78800,14.51114759
2.78850,17.25789726
2.78900,16.64750845
2.78950,15.42673082
2.79000,16.34231404
2.79050,20.00464693
2.79100,22.4462022
2.79150,20.00464693
2.79200,12.67998115
2.79250,2.913760102
2.79300,-5.936877721
2.79350,-14.17712673
2.79400,-20.8914037
2.79450,-26.07970863
2.79500,-29.43684711
2.79550,-31.87840238
2.79600,-32.48879119
2.79650,-31.87840238
2.79700,-31.87840238
2.79750,-33.40437441
2.79800,-33.40437441
2.79850,-29.43684711
2.79900,-22.72257014
2.79950,-15.09270995
2.80000,-7.46284976
2.80050,1.692982472
2.80100,10.23842589
2.80150,15.42673082
2.80200,15.42673082
2.80250,13.29036996
2.80300,10.8488147
2.80350,8.102065033
2.80400,6.270898587
2.80450,5.660509772
2.80500,6.270898587
2.80550,5.660509772
2.80600,4.134537733
2.80650,3.21895451
2.80700,3.524148918
2.80750,4.439732141
2.80800,4.744926549
2.80850,5.355315364
2.80900,6.270898587
2.80950,6.576092995
2.81000,6.576092995
2.81050,5.965704179
2.81100,4.134537733
2.81150,2.608565695
2.81200,3.21895451
2.81250,6.270898587
2.81300,9.017648256
2.81350,9.322842664
2.81400,7.18648181
2.81450,5.355315364
2.81500,2.913760102
2.81550,-0.4433783824
2.81600,-5.021294498
2.81650,-7.157655352
2.81700,-4.71610009
2.81750,1.998176879
2.81800,10.54362029
2.81850,17.86828608
2.81900,20.92023016
2.81950,20.61503575
2.82000,18.17348049
2.82050,16.64750845
2.82100,16.03711963
2.82150,16.95270286
2.82200,18.4786749
2.82250,20.61503575
2.82300,22.4462022
2.82350,24.27736864
2.82400,24.58256305
2.82450,18.7838693
2.82500,3.524148918
2.82550,-15.70309877
2.82600,-27.60568067
2.82650,-24.55373659
2.82700,-14.48232114
2.82750,-10.20959943
2.82800,-17.53426521
2.82850,-29.74204152
2.82900,-38.28748494
2.82950,-42.25501224
2.83000,-45.91734513
2.83050,-52.6316221
2.83100,-58.12512144
2.83150,-56.5991494
2.83200,-44.6965675
2.83250,-27.60568067
2.83300,-14.17712673
2.83350,-8.073238575
2.83400,-6.852460944
2.83450,-5.021294498
2.83500,-0.7485727901
2.83550,3.21895451
2.83600,5.050120956
2.83650,6.881287402
2.83700,11.15400911
2.83750,17.25789726
2.83800,22.4462022
2.83850,27.63450713
2.83900,35.87475613
2.83950,47.16694922
2.84000,54.491615
2.84050,51.43967093
2.84100,41.06306107
2.84150,31.29684002
2.84200,26.10853509
2.84250,21.22542456
2.84300,13.29036996
2.84350,4.744926549
2.84400,-1.053767198
2.84450,-5.021294498
2.84500,-9.294016206
2.84550,-14.48232114
2.84600,-19.36543166
2.84650,-23.33295896
2.84700,-24.858931
2.84750,-19.36543166
2.84800,-5.936877721
2.84850,10.23842589
2.84900,20.92023016
2.84950,23.66697983
2.85000,23.66697983
2.85050,25.49814627
2.85100,27.93970153
2.85150,28.24489594
2.85200,27.63450713
2.85250,28.24489594
2.85300,29.46567357
2.85350,27.93970153
2.85400,22.7513966
2.85450,16.64750845
2.85500,10.8488147
2.85550,3.524148918
2.85600,-7.157655352
2.85650,-19.06023725
2.85700,-29.74204152
2.85750,-39.20306816
2.85800,-48.05370598
2.85850,-54.15759414
2.85900,-55.07317736
2.85950,-53.85239973
2.86000,-54.46278855
2.86050,-56.29395499
2.86100,-54.76798295
2.86150,-50.49526125
2.86200,-47.44331717
2.86250,-44.6965675
2.86300,-34.62515204
2.86350,-15.70309877
2.86400,2.608565695
2.86450,11.76439793
2.86500,13.59556437
2.86550,13.90075878
2.86600,12.98517556
2.86650,7.491676218
2.86700,-1.053767198
2.86750,-8.073238575
2.86800,-12.04076588
2.86850,-14.48232114
2.86900,-16.00829318
2.86950,-16.00829318
2.87000,-14.17712673
2.87050,-12.34596028
2.87100,-11.43037706
2.87150,-14.78751554
2.87200,-24.24854218
2.87250,-31.87840238
2.87300,-26.38490304
2.87350,-5.631683313
2.87400,16.64750845
2.87450,30.6864512
2.87500,37.70592258
2.87550,46.251366
2.87600,53.88122619
2.87650,52.35525415
2.87700,40.75786666
2.87750,25.80334068
2.87800,12.98517556
2.87850,1.692982472
2.87900,-7.768044167
2.87950,-15.70309877
2.88000,-22.11218133
2.88050,-27.60568067
2.88100,-29.13165271
2.88150,-24.55373659
2.88200,-18.14465403
2.88250,-15.39790436
2.88300,-16.31348758
2.88350,-16.00829318
2.88400,-11.12518265
2.88450,-4.410905683
2.88500,-0.1381839747
2.88550,0.4722048407
2.88600,-1.053767198
2.88650,-3.800516867
2.88700,-5.021294498
2.88750,-3.495322459
2.88800,-0.1381839747
2.88850,3.21895451
2.88900,6.881287402
2.88950,11.15400911
2.89000,14.816342
2.89050,18.7838693
2.89100,24.88775746
2.89150,33.12800646
2.89200,38.6215058
2.89250,38.3163114
2.89300,32.51761765
2.89350,24.58256305
2.89400,16.03711963
2.89450,7.796870626
2.89500,0.167010433
2.89550,-6.547266536
2.89600,-13.87193232
2.89650,-19.97582048
2.89700,-19.97582048
2.89750,-13.26154351
2.89800,-5.631683313
2.89850,-3.190128052
2.89900,-6.547266536
2.89950,-11.43037706
2.90000,-14.48232114
2.90050,-14.17712673
2.90100,-11.43037706
2.90150,-8.378432983
2.90200,-7.157655352
2.90250,-7.768044167
2.90300,-6.852460944
2.90350,-3.800516867
2.90400,-0.7485727901
2.90450,-0.1381839747
2.90500,-0.4433783824
2.90550,-0.1381839747
2.90600,1.998176879
2.90650,5.050120956
2.90700,11.15400911
2.90750,19.69945253
2.90800,26.7189239
2.90850,29.77086798
2.90900,30.07606239
2.90950,30.07606239
2.91000,29.16047916
2.91050,25.49814627
2.91100,19.69945253
2.91150,12.67998115
2.91200,4.134537733
2.91250,-5.936877721
2.91300,-14.48232114
2.91350,-17.53426521
2.91400,-16.00829318
2.91450,-14.48232114
2.91500,-15.09270995
2.91550,-14.17712673
2.91600,-9.599210613
2.91650,-5.021294498
2.91700,-5.631683313
2.91750,-11.12518265
2.91800,-13.56673791
2.91850,-5.631683313
2.91900,9.628037072
2.91950,21.53061897
2.92000,22.4462022
2.92050,19.08906371
2.92100,23.36178542
2.92150,37.70592258
2.92200,52.35525415
2.92250,59.06953112
2.92300,57.54355908
2.92350,54.491615
2.92400,53.88122619
2.92450,55.10200382
2.92500,57.23836467
2.92550,58.1539479
2.92600,55.71239263
2.92650,48.08253244
2.92700,36.48514495
2.92750,23.05659101
2.92800,8.102065033
2.92850,-9.904405021
2.92900,-29.74204152
2.92950,-46.22253954
2.93000,-54.15759414
2.93050,-51.41084447
2.93100,-43.17059546
2.93150,-34.31995764
2.93200,-27.30048626
2.93250,-19.97582048
2.93300,-9.904405021
2.93350,0.4722048407
2.93400,9.017648256
2.93450,15.73192523
2.93500,23.05659101
2.93550,28.85528476
2.93600,26.7189239
2.93650,16.03711963
2.93700,5.355315364
2.93750,1.692982472
2.93800,1.692982472
2.93850,-3.800516867
2.93900,-15.39790436
2.93950,-26.99529185
2.94000,-36.45631849
2.94050,-48.35890039
2.94100,-63.61862078
2.94150,-78.57314675
