type,name,time_units,begin_time,frequency,count,units
signal,"Noraxon Ultium-RT LAT. TRICEPS","s",0.00000,2000,61720,"uV"

time,value
0.00000,-16.75625588
0.00050,-16.75625588
0.00100,-16.14586707
0.00150,-15.23028384
0.00200,-12.78872858
0.00250,-8.821201281
0.00300,-5.769257204
0.00350,-3.938090758
0.00400,-2.106924312
0.00450,0.02943654207
0.00500,1.555408581
0.00550,1.860602988
0.00600,1.555408581
0.00650,1.555408581
0.00700,1.555408581
0.00750,0.02943654207
0.00800,-1.496535496
0.00850,-2.106924312
0.00900,-1.496535496
0.00950,-0.2757578656
0.01000,0.3346309498
0.01050,1.250214173
0.01100,2.776186211
0.01150,4.607352658
0.01200,6.133324696
0.01250,6.743713512
0.01300,5.828130288
0.01350,3.996963842
0.01400,3.386575027
0.01450,4.607352658
0.01500,5.828130288
0.01550,5.522935881
0.01600,3.996963842
0.01650,2.470991804
0.01700,0.9450197652
0.01750,0.3346309498
0.01800,0.02943654207
0.01850,0.02943654207
0.01900,0.02943654207
0.01950,0.02943654207
0.02000,1.250214173
0.02050,4.607352658
0.02100,7.354102327
0.02150,8.574879958
0.02200,8.26968555
0.02250,8.26968555
0.02300,8.574879958
0.02350,9.795657589
0.02400,11.01643522
0.02450,11.93201844
0.02500,12.84760167
0.02550,13.76318489
0.02600,14.67876811
0.02650,14.98396252
0.02700,15.28915693
0.02750,16.20474015
0.02800,18.0359066
0.02850,20.17226745
0.02900,20.78265627
0.02950,20.47746186
0.03000,20.78265627
0.03050,21.08785067
0.03100,19.86707304
0.03150,15.89954574
0.03200,11.01643522
0.03250,6.438519104
0.03300,3.386575027
0.03350,2.470991804
0.03400,3.386575027
0.03450,3.996963842
0.03500,3.996963842
0.03550,4.607352658
0.03600,6.133324696
0.03650,6.743713512
0.03700,4.607352658
0.03750,2.165797396
0.03800,0.6398253575
0.03850,0.02943654207
0.03900,-2.717313127
0.03950,-5.464062797
0.04000,-5.464062797
0.04050,-4.548479573
0.04100,-6.074451612
0.04150,-10.65236773
0.04200,-14.92508944
0.04250,-16.14586707
0.04300,-16.75625588
0.04350,-18.58742233
0.04400,-20.11339437
0.04450,-19.19781114
0.04500,-17.6718391
0.04550,-16.75625588
0.04600,-14.92508944
0.04650,-11.56795095
0.04700,-8.821201281
0.04750,-8.821201281
0.04800,-9.736784504
0.04850,-8.210812466
0.04900,-5.158868389
0.04950,-3.022507535
0.05000,-2.717313127
0.05050,-3.327701943
0.05100,-4.243285166
0.05150,-6.37964602
0.05200,-9.431590097
0.05250,-10.95756214
0.05300,-11.56795095
0.05350,-11.87314536
0.05400,-11.87314536
0.05450,-11.26275654
0.05500,-10.65236773
0.05550,-11.56795095
0.05600,-12.78872858
0.05650,-12.78872858
0.05700,-12.48353417
0.05750,-13.09392299
0.05800,-13.3991174
0.05850,-12.17833977
0.05900,-10.34717332
0.05950,-9.126395689
0.06000,-8.516006874
0.06050,-6.684840427
0.06100,-3.938090758
0.06150,-1.801729904
0.06200,-1.496535496
0.06250,-0.2757578656
0.06300,2.165797396
0.06350,3.996963842
0.06400,3.691769434
0.06450,3.081380619
0.06500,4.30215825
0.06550,6.438519104
0.06600,7.659296735
0.06650,8.880074365
0.06700,10.71124081
0.06750,12.54240726
0.06800,12.84760167
0.06850,12.84760167
0.06900,13.45799048
0.06950,13.76318489
0.07000,12.54240726
0.07050,11.01643522
0.07100,11.93201844
0.07150,14.3735737
0.07200,15.28915693
0.07250,14.0683793
0.07300,12.23721285
0.07350,11.62682403
0.07400,11.32162963
0.07450,10.100852
0.07500,9.490463181
0.07550,9.490463181
0.07600,8.26968555
0.07650,4.912547065
0.07700,0.3346309498
0.07750,-3.63289635
0.07800,-7.905618058
0.07850,-11.87314536
0.07900,-15.23028384
0.07950,-17.6718391
0.08000,-19.50300555
0.08050,-21.02897759
0.08100,-21.334172
0.08150,-20.11339437
0.08200,-17.97703351
0.08250,-15.23028384
0.08300,-11.56795095
0.08350,-6.684840427
0.08400,-2.41211872
0.08450,0.02943654207
0.08500,1.250214173
0.08550,3.691769434
0.08600,7.048907919
0.08650,10.100852
0.08700,12.54240726
0.08750,14.0683793
0.08800,15.28915693
0.08850,15.89954574
0.08900,16.50993456
0.08950,17.42551778
0.09000,17.73071219
0.09050,17.12032337
0.09100,17.42551778
0.09150,18.64629541
0.09200,19.86707304
0.09250,18.95148982
0.09300,16.81512897
0.09350,15.89954574
0.09400,16.81512897
0.09450,18.0359066
0.09500,18.0359066
0.09550,17.42551778
0.09600,17.73071219
0.09650,18.95148982
0.09700,19.56187863
0.09750,18.95148982
0.09800,16.81512897
0.09850,11.93201844
0.09900,6.133324696
0.09950,0.9450197652
0.10000,-2.41211872
0.10050,-5.464062797
0.10100,-8.821201281
0.10150,-13.09392299
0.10200,-18.28222792
0.10250,-23.16533844
0.10300,-26.21728252
0.10350,-26.21728252
0.10400,-23.77572726
0.10450,-22.55494963
0.10500,-23.77572726
0.10550,-25.3016993
0.10600,-25.91208811
0.10650,-25.3016993
0.10700,-25.3016993
0.10750,-25.3016993
0.10800,-23.16533844
0.10850,-18.58742233
0.10900,-13.7043118
0.10950,-10.04197891
0.11000,-6.990034835
0.11050,-4.853673981
0.11100,-4.243285166
0.11150,-4.853673981
0.11200,-5.464062797
0.11250,-6.074451612
0.11300,-6.990034835
0.11350,-6.990034835
0.11400,-6.37964602
0.11450,-4.853673981
0.11500,-3.327701943
0.11550,-2.106924312
0.11600,0.02943654207
0.11650,2.165797396
0.11700,3.691769434
0.11750,3.996963842
0.11800,4.30215825
0.11850,3.691769434
0.11900,2.165797396
0.11950,-0.2757578656
0.12000,-2.106924312
0.12050,-1.496535496
0.12100,0.02943654207
0.12150,1.250214173
0.12200,3.081380619
0.12250,4.912547065
0.12300,6.133324696
0.12350,6.438519104
0.12400,7.354102327
0.12450,8.574879958
0.12500,9.185268773
0.12550,9.490463181
0.12600,10.71124081
0.12650,13.45799048
0.12700,15.59435133
0.12750,14.98396252
0.12800,12.23721285
0.12850,10.100852
0.12900,9.795657589
0.12950,10.100852
0.13000,9.795657589
0.13050,9.795657589
0.13100,10.100852
0.13150,9.490463181
0.13200,8.26968555
0.13250,7.659296735
0.13300,8.574879958
0.13350,9.795657589
0.13400,9.795657589
0.13450,8.26968555
0.13500,6.133324696
0.13550,3.386575027
0.13600,0.9450197652
0.13650,-1.191341089
0.13700,-2.106924312
0.13750,-2.106924312
0.13800,-2.106924312
0.13850,-3.022507535
0.13900,-3.327701943
0.13950,-2.41211872
0.14000,-0.5809522733
0.14050,0.3346309498
0.14100,0.6398253575
0.14150,0.9450197652
0.14200,2.165797396
0.14250,3.691769434
0.14300,4.912547065
0.14350,6.438519104
0.14400,8.574879958
0.14450,11.32162963
0.14500,13.15279607
0.14550,13.45799048
0.14600,12.84760167
0.14650,12.23721285
0.14700,11.93201844
0.14750,11.62682403
0.14800,12.23721285
0.14850,13.15279607
0.14900,13.15279607
0.14950,11.93201844
0.15000,11.01643522
0.15050,11.62682403
0.15100,12.84760167
0.15150,13.45799048
0.15200,13.45799048
0.15250,13.76318489
0.15300,13.15279607
0.15350,11.93201844
0.15400,10.71124081
0.15450,11.32162963
0.15500,11.62682403
0.15550,9.795657589
0.15600,6.438519104
0.15650,4.30215825
0.15700,3.691769434
0.15750,1.860602988
0.15800,-1.801729904
0.15850,-6.074451612
0.15900,-8.516006874
0.15950,-9.736784504
0.16000,-11.87314536
0.16050,-14.00950621
0.16100,-15.84067266
0.16150,-17.06145029
0.16200,-17.6718391
0.16250,-17.06145029
0.16300,-15.23028384
0.16350,-14.61989503
0.16400,-16.14586707
0.16450,-19.80819996
0.16500,-22.24975522
0.16550,-22.24975522
0.16600,-20.72378318
0.16650,-17.06145029
0.16700,-12.78872858
0.16750,-8.821201281
0.16800,-6.37964602
0.16850,-5.158868389
0.16900,-2.41211872
0.16950,1.555408581
0.17000,6.133324696
0.17050,8.880074365
0.17100,10.100852
0.17150,10.4060464
0.17200,9.795657589
0.17250,8.26968555
0.17300,6.743713512
0.17350,6.743713512
0.17400,7.964491142
0.17450,9.185268773
0.17500,9.490463181
0.17550,10.4060464
0.17600,12.23721285
0.17650,13.76318489
0.17700,14.67876811
0.17750,14.67876811
0.17800,14.98396252
0.17850,15.28915693
0.17900,13.45799048
0.17950,8.574879958
0.18000,2.165797396
0.18050,-3.63289635
0.18100,-8.210812466
0.18150,-12.17833977
0.18200,-15.53547825
0.18250,-17.06145029
0.18300,-16.14586707
0.18350,-15.53547825
0.18400,-17.3666447
0.18450,-21.94456081
0.18500,-26.52247693
0.18550,-29.2692266
0.18600,-29.87961541
0.18650,-28.96403219
0.18700,-26.52247693
0.18750,-22.86014404
0.18800,-19.80819996
0.18850,-18.89261674
0.18900,-19.50300555
0.18950,-20.11339437
0.19000,-18.89261674
0.19050,-17.3666447
0.19100,-17.6718391
0.19150,-19.19781114
0.19200,-18.89261674
0.19250,-15.84067266
0.19300,-13.09392299
0.19350,-12.78872858
0.19400,-13.09392299
0.19450,-11.87314536
0.19500,-9.126395689
0.19550,-7.295229243
0.19600,-6.684840427
0.19650,-5.464062797
0.19700,-3.63289635
0.19750,-3.022507535
0.19800,-3.63289635
0.19850,-2.717313127
0.19900,0.02943654207
0.19950,2.776186211
0.20000,3.081380619
0.20050,3.081380619
0.20100,4.912547065
0.20150,7.659296735
0.20200,9.185268773
0.20250,9.185268773
0.20300,9.490463181
0.20350,10.100852
0.20400,10.4060464
0.20450,10.71124081
0.20500,12.54240726
0.20550,15.28915693
0.20600,16.50993456
0.20650,16.50993456
0.20700,17.12032337
0.20750,18.64629541
0.20800,20.47746186
0.20850,21.39304508
0.20900,22.0034339
0.20950,22.61382271
0.21000,22.91901712
0.21050,22.91901712
0.21100,23.22421153
0.21150,22.61382271
0.21200,20.47746186
0.21250,17.42551778
0.21300,13.76318489
0.21350,10.100852
0.21400,6.133324696
0.21450,2.470991804
0.21500,0.02943654207
0.21550,-0.886146681
0.21600,-1.801729904
0.21650,-1.801729904
0.21700,-0.886146681
0.21750,0.02943654207
0.21800,-0.886146681
0.21850,-4.548479573
0.21900,-8.821201281
0.21950,-11.87314536
0.22000,-14.00950621
0.22050,-16.14586707
0.22100,-17.6718391
0.22150,-18.89261674
0.22200,-19.19781114
0.22250,-18.89261674
0.22300,-16.75625588
0.22350,-13.7043118
0.22400,-10.95756214
0.22450,-9.431590097
0.22500,-9.126395689
0.22550,-8.821201281
0.22600,-8.210812466
0.22650,-7.60042365
0.22700,-6.37964602
0.22750,-4.243285166
0.22800,-2.41211872
0.22850,-1.496535496
0.22900,-0.2757578656
0.22950,1.860602988
0.23000,5.522935881
0.23050,7.659296735
0.23100,7.659296735
0.23150,7.354102327
0.23200,7.964491142
0.23250,8.880074365
0.23300,9.185268773
0.23350,9.185268773
0.23400,9.185268773
0.23450,9.490463181
0.23500,9.795657589
0.23550,9.795657589
0.23600,9.490463181
0.23650,8.880074365
0.23700,8.574879958
0.23750,9.185268773
0.23800,9.795657589
0.23850,9.795657589
0.23900,8.574879958
0.23950,7.354102327
0.24000,7.964491142
0.24050,8.880074365
0.24100,8.574879958
0.24150,6.133324696
0.24200,4.607352658
0.24250,5.522935881
0.24300,7.659296735
0.24350,8.574879958
0.24400,6.743713512
0.24450,4.30215825
0.24500,2.776186211
0.24550,2.776186211
0.24600,3.386575027
0.24650,4.912547065
0.24700,6.133324696
0.24750,6.133324696
0.24800,4.912547065
0.24850,3.691769434
0.24900,4.30215825
0.24950,6.438519104
0.25000,8.574879958
0.25050,11.32162963
0.25100,15.28915693
0.25150,20.78265627
0.25200,25.66576679
0.25250,28.41251646
0.25300,29.32809968
0.25350,29.32809968
0.25400,29.02290527
0.25450,29.02290527
0.25500,28.71771087
0.25550,28.41251646
0.25600,28.10732205
0.25650,28.10732205
0.25700,28.71771087
0.25750,29.02290527
0.25800,28.41251646
0.25850,26.88654442
0.25900,24.75018357
0.25950,22.3086283
0.26000,20.17226745
0.26050,18.341101
0.26100,15.59435133
0.26150,11.01643522
0.26200,4.30215825
0.26250,-2.41211872
0.26300,-7.905618058
0.26350,-13.09392299
0.26400,-20.11339437
0.26450,-28.35364337
0.26500,-36.28869797
0.26550,-41.47700291
0.26600,-44.52894698
0.26650,-46.36011343
0.26700,-46.66530784
0.26750,-45.1393358
0.26800,-41.47700291
0.26850,-37.2042812
0.26900,-32.93155949
0.26950,-29.87961541
0.27000,-28.35364337
0.27050,-28.35364337
0.27100,-28.96403219
0.27150,-28.96403219
0.27200,-27.43806015
0.27250,-24.08092167
0.27300,-19.80819996
0.27350,-16.14586707
0.27400,-14.31470062
0.27450,-13.7043118
0.27500,-13.3991174
0.27550,-13.3991174
0.27600,-13.09392299
0.27650,-12.48353417
0.27700,-12.17833977
0.27750,-13.3991174
0.27800,-16.45106147
0.27850,-17.97703351
0.27900,-16.45106147
0.27950,-14.31470062
0.28000,-14.00950621
0.28050,-15.53547825
0.28100,-15.53547825
0.28150,-13.7043118
0.28200,-12.17833977
0.28250,-11.26275654
0.28300,-10.04197891
0.28350,-7.60042365
0.28400,-6.37964602
0.28450,-7.60042365
0.28500,-10.04197891
0.28550,-10.95756214
0.28600,-10.34717332
0.28650,-10.04197891
0.28700,-10.34717332
0.28750,-11.26275654
0.28800,-11.87314536
0.28850,-10.95756214
0.28900,-9.126395689
0.28950,-6.990034835
0.29000,-4.853673981
0.29050,-3.63289635
0.29100,-3.022507535
0.29150,-3.63289635
0.29200,-4.243285166
0.29250,-5.464062797
0.29300,-6.37964602
0.29350,-7.295229243
0.29400,-8.516006874
0.29450,-9.431590097
0.29500,-9.126395689
0.29550,-6.990034835
0.29600,-4.853673981
0.29650,-3.327701943
0.29700,-3.022507535
0.29750,-2.106924312
0.29800,0.02943654207
0.29850,2.470991804
0.29900,5.522935881
0.29950,7.659296735
0.30000,7.354102327
0.30050,4.30215825
0.30100,0.9450197652
0.30150,0.02943654207
0.30200,0.9450197652
0.30250,2.470991804
0.30300,2.776186211
0.30350,2.470991804
0.30400,2.470991804
0.30450,3.081380619
0.30500,3.081380619
0.30550,2.776186211
0.30600,2.470991804
0.30650,2.470991804
0.30700,2.165797396
0.30750,1.555408581
0.30800,1.860602988
0.30850,3.081380619
0.30900,5.217741473
0.30950,6.743713512
0.31000,7.048907919
0.31050,6.438519104
0.31100,6.743713512
0.31150,7.964491142
0.31200,9.185268773
0.31250,9.490463181
0.31300,8.880074365
0.31350,9.185268773
0.31400,10.71124081
0.31450,13.15279607
0.31500,14.67876811
0.31550,15.28915693
0.31600,15.89954574
0.31650,16.81512897
0.31700,17.42551778
0.31750,16.20474015
0.31800,14.0683793
0.31850,12.54240726
0.31900,13.15279607
0.31950,14.67876811
0.32000,15.28915693
0.32050,13.76318489
0.32100,11.93201844
0.32150,10.4060464
0.32200,9.490463181
0.32250,8.574879958
0.32300,8.880074365
0.32350,10.4060464
0.32400,11.01643522
0.32450,8.26968555
0.32500,3.691769434
0.32550,0.6398253575
0.32600,1.555408581
0.32650,4.30215825
0.32700,3.996963842
0.32750,-0.5809522733
0.32800,-8.210812466
0.32850,-16.14586707
0.32900,-23.47053285
0.32950,-29.574421
0.33000,-33.2367539
0.33050,-34.76272594
0.33100,-35.37311475
0.33150,-36.89908679
0.33200,-37.81467001
0.33250,-35.98350357
0.33300,-31.40558745
0.33350,-25.91208811
0.33400,-21.94456081
0.33450,-19.19781114
0.33500,-17.06145029
0.33550,-14.92508944
0.33600,-12.78872858
0.33650,-10.04197891
0.33700,-6.37964602
0.33750,-2.106924312
0.33800,1.250214173
0.33850,3.081380619
0.33900,3.996963842
0.33950,4.607352658
0.34000,5.522935881
0.34050,7.048907919
0.34100,9.185268773
0.34150,11.93201844
0.34200,13.76318489
0.34250,14.3735737
0.34300,14.0683793
0.34350,14.3735737
0.34400,15.28915693
0.34450,15.59435133
0.34500,14.67876811
0.34550,14.3735737
0.34600,16.20474015
0.34650,18.95148982
0.34700,19.86707304
0.34750,18.341101
0.34800,14.98396252
0.34850,11.01643522
0.34900,5.217741473
0.34950,-2.41211872
0.35000,-10.65236773
0.35050,-15.84067266
0.35100,-18.58742233
0.35150,-20.72378318
0.35200,-24.38611607
0.35250,-28.04844897
0.35300,-29.574421
0.35350,-30.79519864
0.35400,-33.2367539
0.35450,-35.98350357
0.35500,-36.59389238
0.35550,-35.37311475
0.35600,-34.45753153
0.35650,-33.84714271
0.35700,-32.32117067
0.35750,-30.18480982
0.35800,-28.96403219
0.35850,-29.2692266
0.35900,-28.65883778
0.35950,-25.6068937
0.36000,-22.24975522
0.36050,-19.80819996
0.36100,-17.06145029
0.36150,-14.61989503
0.36200,-13.7043118
0.36250,-15.23028384
0.36300,-17.06145029
0.36350,-17.3666447
0.36400,-16.75625588
0.36450,-15.84067266
0.36500,-13.09392299
0.36550,-8.210812466
0.36600,-3.63289635
0.36650,-0.886146681
0.36700,0.3346309498
0.36750,3.081380619
0.36800,6.133324696
0.36850,8.26968555
0.36900,9.795657589
0.36950,11.93201844
0.37000,13.76318489
0.37050,14.3735737
0.37100,14.67876811
0.37150,15.28915693
0.37200,14.98396252
0.37250,13.45799048
0.37300,12.84760167
0.37350,13.45799048
0.37400,14.0683793
0.37450,12.84760167
0.37500,11.62682403
0.37550,11.93201844
0.37600,12.54240726
0.37650,12.23721285
0.37700,11.32162963
0.37750,11.62682403
0.37800,12.54240726
0.37850,12.54240726
0.37900,12.84760167
0.37950,14.0683793
0.38000,14.3735737
0.38050,13.76318489
0.38100,12.84760167
0.38150,14.0683793
0.38200,15.89954574
0.38250,17.42551778
0.38300,18.0359066
0.38350,18.64629541
0.38400,19.25668423
0.38450,18.0359066
0.38500,16.50993456
0.38550,15.59435133
0.38600,14.3735737
0.38650,12.54240726
0.38700,11.32162963
0.38750,12.54240726
0.38800,15.59435133
0.38850,17.42551778
0.38900,17.12032337
0.38950,16.20474015
0.39000,16.50993456
0.39050,18.0359066
0.39100,19.56187863
0.39150,19.56187863
0.39200,18.341101
0.39250,17.12032337
0.39300,17.12032337
0.39350,17.73071219
0.39400,18.0359066
0.39450,18.341101
0.39500,18.95148982
0.39550,19.25668423
0.39600,18.64629541
0.39650,17.42551778
0.39700,16.81512897
0.39750,17.42551778
0.39800,17.12032337
0.39850,16.50993456
0.39900,17.12032337
0.39950,19.25668423
0.40000,20.17226745
0.40050,18.0359066
0.40100,15.28915693
0.40150,13.15279607
0.40200,12.54240726
0.40250,11.01643522
0.40300,8.574879958
0.40350,6.133324696
0.40400,4.912547065
0.40450,4.607352658
0.40500,4.912547065
0.40550,5.828130288
0.40600,5.828130288
0.40650,5.217741473
0.40700,4.912547065
0.40750,4.30215825
0.40800,2.165797396
0.40850,-0.886146681
0.40900,-2.41211872
0.40950,-0.886146681
0.41000,0.3346309498
0.41050,-1.496535496
0.41100,-5.158868389
0.41150,-6.990034835
0.41200,-5.158868389
0.41250,-2.717313127
0.41300,-2.717313127
0.41350,-4.243285166
0.41400,-5.769257204
0.41450,-7.295229243
0.41500,-8.516006874
0.41550,-9.126395689
0.41600,-8.821201281
0.41650,-7.60042365
0.41700,-6.074451612
0.41750,-4.853673981
0.41800,-3.327701943
0.41850,-3.022507535
0.41900,-3.938090758
0.41950,-5.464062797
0.42000,-7.60042365
0.42050,-9.736784504
0.42100,-11.26275654
0.42150,-10.95756214
0.42200,-9.126395689
0.42250,-7.295229243
0.42300,-6.37964602
0.42350,-6.074451612
0.42400,-5.464062797
0.42450,-4.548479573
0.42500,-3.938090758
0.42550,-3.938090758
0.42600,-4.853673981
0.42650,-5.158868389
0.42700,-4.243285166
0.42750,-2.106924312
0.42800,-0.2757578656
0.42850,-0.2757578656
0.42900,-0.886146681
0.42950,-0.5809522733
0.43000,0.02943654207
0.43050,0.02943654207
0.43100,-0.5809522733
0.43150,-0.2757578656
0.43200,1.860602988
0.43250,4.607352658
0.43300,5.522935881
0.43350,4.607352658
0.43400,3.691769434
0.43450,3.386575027
0.43500,3.386575027
0.43550,2.776186211
0.43600,1.555408581
0.43650,1.250214173
0.43700,2.165797396
0.43750,4.30215825
0.43800,5.522935881
0.43850,5.217741473
0.43900,4.912547065
0.43950,5.828130288
0.44000,7.354102327
0.44050,7.048907919
0.44100,5.217741473
0.44150,4.30215825
0.44200,5.217741473
0.44250,5.828130288
0.44300,4.607352658
0.44350,2.470991804
0.44400,0.9450197652
0.44450,1.250214173
0.44500,2.470991804
0.44550,3.386575027
0.44600,4.30215825
0.44650,4.607352658
0.44700,3.691769434
0.44750,2.470991804
0.44800,1.860602988
0.44850,2.470991804
0.44900,4.607352658
0.44950,7.048907919
0.45000,7.964491142
0.45050,7.659296735
0.45100,7.354102327
0.45150,8.26968555
0.45200,10.4060464
0.45250,11.62682403
0.45300,11.93201844
0.45350,11.93201844
0.45400,12.54240726
0.45450,13.15279607
0.45500,13.76318489
0.45550,14.67876811
0.45600,15.89954574
0.45650,16.50993456
0.45700,17.12032337
0.45750,18.0359066
0.45800,19.86707304
0.45850,21.69823949
0.45900,23.22421153
0.45950,26.2761556
0.46000,30.2436829
0.46050,32.99043257
0.46100,33.60082139
0.46150,34.2112102
0.46200,36.34757106
0.46250,38.48393191
0.46300,38.48393191
0.46350,36.04237665
0.46400,34.51640461
0.46450,34.2112102
0.46500,34.2112102
0.46550,33.29562698
0.46600,32.68523817
0.46650,33.60082139
0.46700,34.82159902
0.46750,34.51640461
0.46800,32.68523817
0.46850,31.15926613
0.46900,31.46446054
0.46950,32.07484935
0.47000,31.76965494
0.47050,30.2436829
0.47100,28.10732205
0.47150,24.44498916
0.47200,17.73071219
0.47250,7.659296735
0.47300,-3.938090758
0.47350,-17.6718391
0.47400,-32.93155949
0.47450,-47.88608547
0.47500,-58.26269533
0.47550,-61.92502822
0.47600,-61.92502822
0.47650,-61.61983381
0.47700,-62.53541704
0.47750,-62.84061144
0.47800,-62.23022263
0.47850,-62.23022263
0.47900,-62.84061144
0.47950,-62.53541704
0.48000,-60.39905618
0.48050,-57.0419177
0.48100,-53.68477921
0.48150,-50.32764073
0.48200,-46.36011343
0.48250,-41.78219731
0.48300,-36.89908679
0.48350,-32.01597627
0.48400,-26.52247693
0.48450,-22.24975522
0.48500,-19.80819996
0.48550,-19.19781114
0.48600,-18.89261674
0.48650,-17.6718391
0.48700,-16.14586707
0.48750,-14.92508944
0.48800,-14.00950621
0.48850,-13.3991174
0.48900,-12.17833977
0.48950,-11.56795095
0.49000,-12.48353417
0.49050,-14.00950621
0.49100,-14.92508944
0.49150,-14.31470062
0.49200,-12.48353417
0.49250,-11.26275654
0.49300,-10.04197891
0.49350,-9.126395689
0.49400,-9.126395689
0.49450,-9.736784504
0.49500,-9.431590097
0.49550,-8.210812466
0.49600,-6.074451612
0.49650,-4.853673981
0.49700,-3.938090758
0.49750,-1.191341089
0.49800,3.386575027
0.49850,9.490463181
0.49900,14.67876811
0.49950,18.341101
0.50000,20.47746186
0.50050,20.17226745
0.50100,18.0359066
0.50150,15.59435133
0.50200,14.3735737
0.50250,14.3735737
0.50300,14.3735737
0.50350,13.76318489
0.50400,12.84760167
0.50450,11.93201844
0.50500,11.01643522
0.50550,10.4060464
0.50600,9.795657589
0.50650,9.490463181
0.50700,9.185268773
0.50750,8.574879958
0.50800,7.964491142
0.50850,7.048907919
0.50900,6.438519104
0.50950,5.828130288
0.51000,5.828130288
0.51050,6.133324696
0.51100,5.828130288
0.51150,5.522935881
0.51200,5.522935881
0.51250,5.522935881
0.51300,5.522935881
0.51350,5.828130288
0.51400,6.438519104
0.51450,7.354102327
0.51500,9.185268773
0.51550,11.01643522
0.51600,12.84760167
0.51650,14.0683793
0.51700,14.98396252
0.51750,16.20474015
0.51800,17.42551778
0.51850,18.341101
0.51900,18.64629541
0.51950,18.95148982
0.52000,18.95148982
0.52050,18.0359066
0.52100,16.20474015
0.52150,14.98396252
0.52200,14.0683793
0.52250,14.0683793
0.52300,15.28915693
0.52350,18.341101
0.52400,20.17226745
0.52450,18.0359066
0.52500,13.15279607
0.52550,9.490463181
0.52600,9.795657589
0.52650,11.01643522
0.52700,10.100852
0.52750,7.659296735
0.52800,4.30215825
0.52850,0.6398253575
0.52900,-4.853673981
0.52950,-11.26275654
0.53000,-16.14586707
0.53050,-20.72378318
0.53100,-26.21728252
0.53150,-32.01597627
0.53200,-35.37311475
0.53250,-34.76272594
0.53300,-32.62636508
0.53350,-31.71078186
0.53400,-32.62636508
0.53450,-33.84714271
0.53500,-33.84714271
0.53550,-32.62636508
0.53600,-30.79519864
0.53650,-28.35364337
0.53700,-24.69131048
0.53750,-20.72378318
0.53800,-17.3666447
0.53850,-14.61989503
0.53900,-12.48353417
0.53950,-10.65236773
0.54000,-8.821201281
0.54050,-6.990034835
0.54100,-4.853673981
0.54150,-3.327701943
0.54200,-2.41211872
0.54250,-1.191341089
0.54300,-0.5809522733
0.54350,-0.2757578656
0.54400,-0.2757578656
0.54450,0.3346309498
0.54500,2.165797396
0.54550,2.165797396
0.54600,-0.886146681
0.54650,-4.243285166
0.54700,-4.853673981
0.54750,-3.63289635
0.54800,-3.938090758
0.54850,-6.684840427
0.54900,-9.126395689
0.54950,-8.821201281
0.55000,-6.37964602
0.55050,-4.243285166
0.55100,-2.106924312
0.55150,-0.886146681
0.55200,-1.496535496
0.55250,-2.41211872
0.55300,-2.106924312
0.55350,0.3346309498
0.55400,3.081380619
0.55450,4.912547065
0.55500,6.133324696
0.55550,7.048907919
0.55600,7.048907919
0.55650,5.522935881
0.55700,3.386575027
0.55750,1.860602988
0.55800,1.555408581
0.55850,1.860602988
0.55900,3.081380619
0.55950,3.691769434
0.56000,3.081380619
0.56050,1.860602988
0.56100,2.165797396
0.56150,3.996963842
0.56200,4.607352658
0.56250,3.996963842
0.56300,3.691769434
0.56350,5.217741473
0.56400,6.133324696
0.56450,5.828130288
0.56500,4.607352658
0.56550,4.607352658
0.56600,4.912547065
0.56650,4.30215825
0.56700,3.081380619
0.56750,3.081380619
0.56800,3.996963842
0.56850,4.30215825
0.56900,3.996963842
0.56950,3.691769434
0.57000,3.386575027
0.57050,3.386575027
0.57100,2.470991804
0.57150,1.250214173
0.57200,0.02943654207
0.57250,0.02943654207
0.57300,0.3346309498
0.57350,0.02943654207
0.57400,-0.886146681
0.57450,-1.801729904
0.57500,-0.886146681
0.57550,0.6398253575
0.57600,3.081380619
0.57650,6.438519104
0.57700,9.795657589
0.57750,11.01643522
0.57800,10.100852
0.57850,10.100852
0.57900,11.62682403
0.57950,12.54240726
0.58000,10.71124081
0.58050,8.880074365
0.58100,11.01643522
0.58150,15.59435133
0.58200,18.0359066
0.58250,17.73071219
0.58300,17.12032337
0.58350,17.12032337
0.58400,15.89954574
0.58450,13.45799048
0.58500,12.23721285
0.58550,13.15279607
0.58600,13.76318489
0.58650,12.84760167
0.58700,11.01643522
0.58750,9.185268773
0.58800,4.607352658
0.58850,-2.41211872
0.58900,-10.65236773
0.58950,-17.06145029
0.59000,-21.6393664
0.59050,-24.99650489
0.59100,-25.6068937
0.59150,-22.55494963
0.59200,-18.28222792
0.59250,-15.53547825
0.59300,-14.31470062
0.59350,-12.78872858
0.59400,-11.56795095
0.59450,-11.56795095
0.59500,-11.56795095
0.59550,-10.95756214
0.59600,-9.736784504
0.59650,-9.431590097
0.59700,-10.34717332
0.59750,-12.17833977
0.59800,-13.3991174
0.59850,-13.3991174
0.59900,-12.48353417
0.59950,-10.65236773
0.60000,-8.821201281
0.60050,-6.684840427
0.60100,-3.938090758
0.60150,-0.886146681
0.60200,0.3346309498
0.60250,-0.2757578656
0.60300,-1.801729904
0.60350,-2.106924312
0.60400,-0.886146681
0.60450,0.9450197652
0.60500,3.081380619
0.60550,4.30215825
0.60600,4.30215825
0.60650,2.776186211
0.60700,1.860602988
0.60750,2.470991804
0.60800,4.30215825
0.60850,5.522935881
0.60900,5.217741473
0.60950,3.996963842
0.61000,3.081380619
0.61050,1.555408581
0.61100,-1.496535496
0.61150,-5.464062797
0.61200,-9.431590097
0.61250,-12.17833977
0.61300,-14.92508944
0.61350,-16.75625588
0.61400,-17.6718391
0.61450,-18.58742233
0.61500,-21.02897759
0.61550,-24.69131048
0.61600,-26.52247693
0.61650,-24.38611607
0.61700,-20.72378318
0.61750,-17.3666447
0.61800,-15.23028384
0.61850,-12.78872858
0.61900,-10.65236773
0.61950,-8.210812466
0.62000,-5.769257204
0.62050,-2.717313127
0.62100,-0.5809522733
0.62150,-0.5809522733
0.62200,-0.5809522733
0.62250,0.6398253575
0.62300,3.691769434
0.62350,6.438519104
0.62400,8.880074365
0.62450,11.01643522
0.62500,12.23721285
0.62550,11.93201844
0.62600,10.71124081
0.62650,9.185268773
0.62700,7.964491142
0.62750,6.743713512
0.62800,6.438519104
0.62850,6.438519104
0.62900,5.828130288
0.62950,3.996963842
0.63000,1.860602988
0.63050,1.860602988
0.63100,2.470991804
0.63150,2.470991804
0.63200,1.250214173
0.63250,0.02943654207
0.63300,-1.496535496
0.63350,-2.717313127
0.63400,-3.022507535
0.63450,-1.801729904
0.63500,-0.5809522733
0.63550,0.02943654207
0.63600,0.6398253575
0.63650,3.386575027
0.63700,7.354102327
0.63750,10.4060464
0.63800,12.54240726
0.63850,13.45799048
0.63900,13.76318489
0.63950,13.15279607
0.64000,12.23721285
0.64050,11.01643522
0.64100,9.185268773
0.64150,6.438519104
0.64200,3.386575027
0.64250,1.250214173
0.64300,-1.191341089
0.64350,-5.158868389
0.64400,-9.431590097
0.64450,-11.56795095
0.64500,-12.17833977
0.64550,-13.3991174
0.64600,-15.53547825
0.64650,-17.97703351
0.64700,-19.80819996
0.64750,-20.72378318
0.64800,-21.334172
0.64850,-21.334172
0.64900,-20.41858877
0.64950,-17.3666447
0.65000,-13.7043118
0.65050,-10.34717332
0.65100,-8.516006874
0.65150,-6.684840427
0.65200,-3.63289635
0.65250,0.3346309498
0.65300,4.30215825
0.65350,7.048907919
0.65400,10.100852
0.65450,13.45799048
0.65500,15.89954574
0.65550,16.20474015
0.65600,14.67876811
0.65650,12.54240726
0.65700,11.01643522
0.65750,9.185268773
0.65800,7.354102327
0.65850,6.133324696
0.65900,6.438519104
0.65950,7.659296735
0.66000,8.880074365
0.66050,8.574879958
0.66100,7.354102327
0.66150,7.048907919
0.66200,8.26968555
0.66250,9.490463181
0.66300,9.490463181
0.66350,8.880074365
0.66400,6.743713512
0.66450,1.860602988
0.66500,-5.158868389
0.66550,-11.56795095
0.66600,-14.92508944
0.66650,-16.45106147
0.66700,-19.19781114
0.66750,-23.77572726
0.66800,-26.82767134
0.66850,-27.43806015
0.66900,-27.13286574
0.66950,-28.65883778
0.67000,-31.40558745
0.67050,-33.84714271
0.67100,-35.67830916
0.67150,-36.59389238
0.67200,-35.98350357
0.67250,-33.84714271
0.67300,-30.49000423
0.67350,-27.43806015
0.67400,-24.99650489
0.67450,-23.47053285
0.67500,-23.47053285
0.67550,-24.38611607
0.67600,-24.38611607
0.67650,-21.6393664
0.67700,-17.97703351
0.67750,-15.53547825
0.67800,-15.23028384
0.67850,-14.31470062
0.67900,-11.56795095
0.67950,-8.210812466
0.68000,-5.464062797
0.68050,-3.63289635
0.68100,-2.106924312
0.68150,-1.191341089
0.68200,-1.191341089
0.68250,-0.886146681
0.68300,0.6398253575
0.68350,1.860602988
0.68400,1.250214173
0.68450,0.02943654207
0.68500,0.3346309498
0.68550,2.776186211
0.68600,3.996963842
0.68650,2.776186211
0.68700,0.02943654207
0.68750,-1.801729904
0.68800,-1.801729904
0.68850,-1.801729904
0.68900,-3.327701943
0.68950,-5.769257204
0.69000,-8.210812466
0.69050,-10.34717332
0.69100,-10.95756214
0.69150,-9.431590097
0.69200,-5.769257204
0.69250,-1.801729904
0.69300,-0.2757578656
0.69350,-0.2757578656
0.69400,0.02943654207
0.69450,0.9450197652
0.69500,2.165797396
0.69550,2.470991804
0.69600,2.470991804
0.69650,3.386575027
0.69700,5.828130288
0.69750,8.574879958
0.69800,10.4060464
0.69850,11.01643522
0.69900,10.71124081
0.69950,10.71124081
0.70000,12.23721285
0.70050,14.98396252
0.70100,17.42551778
0.70150,18.64629541
0.70200,19.25668423
0.70250,20.78265627
0.70300,23.22421153
0.70350,25.66576679
0.70400,26.58135001
0.70450,24.44498916
0.70500,19.56187863
0.70550,14.3735737
0.70600,10.71124081
0.70650,8.574879958
0.70700,6.438519104
0.70750,5.217741473
0.70800,5.828130288
0.70850,8.26968555
0.70900,9.185268773
0.70950,7.048907919
0.71000,3.081380619
0.71050,-0.2757578656
0.71100,-3.327701943
0.71150,-6.074451612
0.71200,-8.516006874
0.71250,-9.736784504
0.71300,-9.431590097
0.71350,-8.516006874
0.71400,-7.60042365
0.71450,-6.074451612
0.71500,-3.327701943
0.71550,0.02943654207
0.71600,3.081380619
0.71650,5.522935881
0.71700,7.354102327
0.71750,9.490463181
0.71800,10.71124081
0.71850,10.100852
0.71900,8.26968555
0.71950,6.438519104
0.72000,5.217741473
0.72050,4.607352658
0.72100,4.30215825
0.72150,4.912547065
0.72200,6.438519104
0.72250,7.659296735
0.72300,7.659296735
0.72350,7.659296735
0.72400,8.880074365
0.72450,10.71124081
0.72500,11.93201844
0.72550,11.62682403
0.72600,11.32162963
0.72650,11.01643522
0.72700,9.490463181
0.72750,7.659296735
0.72800,6.438519104
0.72850,6.133324696
0.72900,6.438519104
0.72950,5.828130288
0.73000,4.30215825
0.73050,3.081380619
0.73100,2.470991804
0.73150,0.6398253575
0.73200,-2.106924312
0.73250,-5.769257204
0.73300,-9.126395689
0.73350,-11.56795095
0.73400,-13.3991174
0.73450,-14.00950621
0.73500,-14.00950621
0.73550,-13.09392299
0.73600,-11.56795095
0.73650,-9.736784504
0.73700,-6.990034835
0.73750,-3.022507535
0.73800,0.3346309498
0.73850,2.470991804
0.73900,4.912547065
0.73950,9.185268773
0.74000,15.28915693
0.74050,21.39304508
0.74100,25.36057238
0.74150,27.49693324
0.74200,29.63329409
0.74250,31.76965494
0.74300,33.9060158
0.74350,36.04237665
0.74400,37.56834869
0.74450,37.56834869
0.74500,35.43198784
0.74550,32.99043257
0.74600,31.76965494
0.74650,32.07484935
0.74700,32.38004376
0.74750,31.15926613
0.74800,28.41251646
0.74850,25.66576679
0.74900,23.52940594
0.74950,23.22421153
0.75000,23.22421153
0.75050,22.0034339
0.75100,19.25668423
0.75150,16.50993456
0.75200,13.76318489
0.75250,10.100852
0.75300,5.522935881
0.75350,1.555408581
0.75400,-1.801729904
0.75450,-7.295229243
0.75500,-16.14586707
0.75550,-25.3016993
0.75600,-31.10039304
0.75650,-34.15233712
0.75700,-36.28869797
0.75750,-36.89908679
0.75800,-34.45753153
0.75850,-30.49000423
0.75900,-27.43806015
0.75950,-25.3016993
0.76000,-21.94456081
0.76050,-17.3666447
0.76100,-14.92508944
0.76150,-14.31470062
0.76200,-12.48353417
0.76250,-9.126395689
0.76300,-6.990034835
0.76350,-7.295229243
0.76400,-8.210812466
0.76450,-7.905618058
0.76500,-7.295229243
0.76550,-7.905618058
0.76600,-8.821201281
0.76650,-7.905618058
0.76700,-6.074451612
0.76750,-3.938090758
0.76800,-2.41211872
0.76850,-0.5809522733
0.76900,0.02943654207
0.76950,-0.886146681
0.77000,-1.801729904
0.77050,-1.191341089
0.77100,-0.886146681
0.77150,-1.496535496
0.77200,-2.41211872
0.77250,-1.801729904
0.77300,-0.5809522733
0.77350,0.02943654207
0.77400,0.02943654207
0.77450,0.02943654207
0.77500,0.3346309498
0.77550,0.02943654207
0.77600,-1.496535496
0.77650,-3.022507535
0.77700,-4.548479573
0.77750,-6.074451612
0.77800,-6.684840427
0.77850,-6.37964602
0.77900,-5.464062797
0.77950,-4.548479573
0.78000,-4.548479573
0.78050,-5.158868389
0.78100,-6.074451612
0.78150,-6.684840427
0.78200,-6.074451612
0.78250,-4.853673981
0.78300,-4.548479573
0.78350,-5.158868389
0.78400,-5.158868389
0.78450,-2.717313127
0.78500,0.3346309498
0.78550,3.386575027
0.78600,5.217741473
0.78650,7.048907919
0.78700,8.26968555
0.78750,8.26968555
0.78800,7.048907919
0.78850,6.438519104
0.78900,7.048907919
0.78950,7.659296735
0.79000,7.354102327
0.79050,6.743713512
0.79100,6.438519104
0.79150,5.828130288
0.79200,5.217741473
0.79250,4.30215825
0.79300,3.996963842
0.79350,4.30215825
0.79400,4.30215825
0.79450,3.996963842
0.79500,3.996963842
0.79550,4.30215825
0.79600,3.996963842
0.79650,3.386575027
0.79700,2.776186211
0.79750,2.470991804
0.79800,2.165797396
0.79850,2.165797396
0.79900,2.776186211
0.79950,4.607352658
0.80000,6.743713512
0.80050,8.574879958
0.80100,9.185268773
0.80150,7.964491142
0.80200,6.133324696
0.80250,4.912547065
0.80300,4.607352658
0.80350,4.30215825
0.80400,4.30215825
0.80450,4.912547065
0.80500,6.133324696
0.80550,7.354102327
0.80600,6.743713512
0.80650,4.912547065
0.80700,3.996963842
0.80750,4.607352658
0.80800,6.133324696
0.80850,7.964491142
0.80900,9.795657589
0.80950,11.32162963
0.81000,11.62682403
0.81050,11.32162963
0.81100,11.32162963
0.81150,12.84760167
0.81200,14.0683793
0.81250,14.3735737
0.81300,12.54240726
0.81350,9.795657589
0.81400,7.659296735
0.81450,7.354102327
0.81500,7.964491142
0.81550,7.964491142
0.81600,6.743713512
0.81650,5.217741473
0.81700,4.607352658
0.81750,4.607352658
0.81800,4.30215825
0.81850,2.776186211
0.81900,0.9450197652
0.81950,0.02943654207
0.82000,0.02943654207
0.82050,-0.886146681
0.82100,-1.496535496
0.82150,-1.801729904
0.82200,-1.801729904
0.82250,-3.327701943
0.82300,-5.769257204
0.82350,-7.905618058
0.82400,-7.905618058
0.82450,-6.990034835
0.82500,-5.464062797
0.82550,-3.938090758
0.82600,-2.41211872
0.82650,-0.886146681
0.82700,0.9450197652
0.82750,3.691769434
0.82800,5.828130288
0.82850,6.133324696
0.82900,4.607352658
0.82950,3.081380619
0.83000,2.165797396
0.83050,1.250214173
0.83100,0.3346309498
0.83150,0.02943654207
0.83200,0.3346309498
0.83250,0.9450197652
0.83300,1.555408581
0.83350,2.165797396
0.83400,2.470991804
0.83450,2.470991804
0.83500,3.081380619
0.83550,3.691769434
0.83600,4.30215825
0.83650,3.081380619
0.83700,1.250214173
0.83750,-0.2757578656
0.83800,-1.496535496
0.83850,-3.022507535
0.83900,-5.769257204
0.83950,-7.905618058
0.84000,-10.04197891
0.84050,-12.48353417
0.84100,-15.53547825
0.84150,-17.6718391
0.84200,-17.3666447
0.84250,-15.53547825
0.84300,-13.7043118
0.84350,-12.48353417
0.84400,-11.56795095
0.84450,-11.26275654
0.84500,-11.56795095
0.84550,-11.87314536
0.84600,-10.95756214
0.84650,-9.431590097
0.84700,-8.821201281
0.84750,-9.126395689
0.84800,-9.126395689
0.84850,-7.60042365
0.84900,-5.158868389
0.84950,-3.938090758
0.85000,-4.243285166
0.85050,-4.548479573
0.85100,-3.938090758
0.85150,-1.496535496
0.85200,0.9450197652
0.85250,3.691769434
0.85300,6.133324696
0.85350,8.574879958
0.85400,11.32162963
0.85450,14.3735737
0.85500,17.12032337
0.85550,18.64629541
0.85600,20.17226745
0.85650,22.0034339
0.85700,23.83460034
0.85750,26.58135001
0.85800,29.63329409
0.85850,32.68523817
0.85900,33.9060158
0.85950,33.60082139
0.86000,32.68523817
0.86050,32.07484935
0.86100,31.46446054
0.86150,30.2436829
0.86200,29.02290527
0.86250,29.02290527
0.86300,28.71771087
0.86350,26.2761556
0.86400,22.61382271
0.86450,17.73071219
0.86500,11.93201844
0.86550,4.912547065
0.86600,-1.801729904
0.86650,-7.60042365
0.86700,-12.48353417
0.86750,-19.19781114
0.86800,-26.21728252
0.86850,-31.71078186
0.86900,-34.45753153
0.86950,-36.28869797
0.87000,-38.42505883
0.87050,-39.03544764
0.87100,-36.28869797
0.87150,-30.18480982
0.87200,-22.86014404
0.87250,-17.97703351
0.87300,-16.14586707
0.87350,-15.84067266
0.87400,-13.09392299
0.87450,-6.684840427
0.87500,1.250214173
0.87550,8.880074365
0.87600,14.3735737
0.87650,17.73071219
0.87700,20.17226745
0.87750,21.69823949
0.87800,22.91901712
0.87850,23.83460034
0.87900,25.05537797
0.87950,25.9709612
0.88000,25.36057238
0.88050,22.3086283
0.88100,16.50993456
0.88150,11.01643522
0.88200,7.048907919
0.88250,3.996963842
0.88300,0.9450197652
0.88350,-0.2757578656
0.88400,0.02943654207
0.88450,0.6398253575
0.88500,0.6398253575
0.88550,0.6398253575
0.88600,1.250214173
0.88650,1.555408581
0.88700,0.3346309498
0.88750,-2.41211872
0.88800,-4.548479573
0.88850,-5.769257204
0.88900,-6.37964602
0.88950,-6.990034835
0.89000,-7.60042365
0.89050,-9.736784504
0.89100,-13.7043118
0.89150,-17.3666447
0.89200,-18.58742233
0.89250,-18.28222792
0.89300,-18.28222792
0.89350,-18.58742233
0.89400,-17.6718391
0.89450,-15.23028384
0.89500,-13.7043118
0.89550,-14.31470062
0.89600,-16.75625588
0.89650,-18.58742233
0.89700,-17.97703351
0.89750,-14.61989503
0.89800,-10.65236773
0.89850,-8.821201281
0.89900,-9.126395689
0.89950,-9.126395689
0.90000,-7.295229243
0.90050,-5.769257204
0.90100,-6.37964602
0.90150,-7.905618058
0.90200,-8.210812466
0.90250,-6.37964602
0.90300,-4.853673981
0.90350,-4.548479573
0.90400,-3.938090758
0.90450,-2.41211872
0.90500,-0.2757578656
0.90550,0.6398253575
0.90600,1.860602988
0.90650,3.386575027
0.90700,5.522935881
0.90750,7.659296735
0.90800,9.795657589
0.90850,11.01643522
0.90900,11.32162963
0.90950,10.71124081
0.91000,11.01643522
0.91050,11.93201844
0.91100,12.54240726
0.91150,12.54240726
0.91200,12.84760167
0.91250,13.76318489
0.91300,14.67876811
0.91350,14.98396252
0.91400,14.67876811
0.91450,14.67876811
0.91500,15.28915693
0.91550,14.98396252
0.91600,14.3735737
0.91650,13.45799048
0.91700,12.84760167
0.91750,11.93201844
0.91800,10.71124081
0.91850,10.4060464
0.91900,11.32162963
0.91950,12.23721285
0.92000,11.93201844
0.92050,11.01643522
0.92100,10.4060464
0.92150,11.32162963
0.92200,11.93201844
0.92250,11.93201844
0.92300,10.71124081
0.92350,9.795657589
0.92400,9.185268773
0.92450,9.185268773
0.92500,9.185268773
0.92550,8.880074365
0.92600,8.26968555
0.92650,7.354102327
0.92700,6.438519104
0.92750,6.133324696
0.92800,6.438519104
0.92850,6.133324696
0.92900,5.522935881
0.92950,5.217741473
0.93000,5.828130288
0.93050,5.828130288
0.93100,5.217741473
0.93150,4.30215825
0.93200,3.691769434
0.93250,3.386575027
0.93300,3.081380619
0.93350,3.386575027
0.93400,4.607352658
0.93450,6.133324696
0.93500,7.048907919
0.93550,7.048907919
0.93600,6.743713512
0.93650,6.133324696
0.93700,5.522935881
0.93750,5.522935881
0.93800,5.828130288
0.93850,5.217741473
0.93900,3.996963842
0.93950,3.081380619
0.94000,3.691769434
0.94050,4.30215825
0.94100,3.386575027
0.94150,1.860602988
0.94200,0.9450197652
0.94250,1.250214173
0.94300,1.555408581
0.94350,1.250214173
0.94400,1.555408581
0.94450,2.470991804
0.94500,3.081380619
0.94550,2.470991804
0.94600,2.165797396
0.94650,2.165797396
0.94700,2.165797396
0.94750,1.555408581
0.94800,1.250214173
0.94850,1.555408581
0.94900,2.165797396
0.94950,2.470991804
0.95000,1.555408581
0.95050,0.3346309498
0.95100,0.02943654207
0.95150,0.9450197652
0.95200,2.470991804
0.95250,2.776186211
0.95300,2.470991804
0.95350,2.470991804
0.95400,2.470991804
0.95450,1.860602988
0.95500,0.02943654207
0.95550,-1.191341089
0.95600,0.02943654207
0.95650,2.470991804
0.95700,5.217741473
0.95750,7.659296735
0.95800,10.100852
0.95850,11.32162963
0.95900,9.795657589
0.95950,8.26968555
0.96000,8.574879958
0.96050,10.4060464
0.96100,11.32162963
0.96150,10.4060464
0.96200,9.795657589
0.96250,9.795657589
0.96300,8.880074365
0.96350,6.743713512
0.96400,4.607352658
0.96450,3.386575027
0.96500,1.860602988
0.96550,0.3346309498
0.96600,0.02943654207
0.96650,0.9450197652
0.96700,2.165797396
0.96750,4.912547065
0.96800,10.100852
0.96850,16.81512897
0.96900,20.17226745
0.96950,16.81512897
0.97000,9.185268773
0.97050,2.470991804
0.97100,-0.886146681
0.97150,-1.801729904
0.97200,-2.106924312
0.97250,-4.243285166
0.97300,-9.431590097
0.97350,-16.45106147
0.97400,-23.77572726
0.97450,-30.79519864
0.97500,-38.11986442
0.97550,-46.05491902
0.97600,-53.68477921
0.97650,-60.09386178
0.97700,-64.67177789
0.97750,-66.19774993
0.97800,-65.28216671
0.97850,-64.36658348
0.97900,-64.36658348
0.97950,-64.06138908
0.98000,-61.61983381
0.98050,-58.87308414
0.98100,-56.43152888
0.98150,-53.37958481
0.98200,-48.80166869
0.98250,-44.52894698
0.98300,-42.69778054
0.98350,-42.08739172
0.98400,-40.56141968
0.98450,-37.81467001
0.98500,-35.98350357
0.98550,-33.84714271
0.98600,-29.87961541
0.98650,-24.99650489
0.98700,-22.55494963
0.98750,-21.94456081
0.98800,-20.72378318
0.98850,-18.58742233
0.98900,-17.6718391
0.98950,-17.6718391
0.99000,-16.75625588
0.99050,-14.61989503
0.99100,-13.3991174
0.99150,-13.7043118
0.99200,-13.3991174
0.99250,-11.56795095
0.99300,-10.65236773
0.99350,-10.95756214
0.99400,-11.26275654
0.99450,-10.34717332
0.99500,-9.736784504
0.99550,-9.736784504
0.99600,-8.821201281
0.99650,-5.769257204
0.99700,-2.106924312
0.99750,0.3346309498
0.99800,3.386575027
0.99850,6.743713512
0.99900,9.490463181
0.99950,10.71124081
1.00000,10.71124081
1.00050,10.71124081
1.00100,10.100852
1.00150,9.490463181
1.00200,10.100852
1.00250,11.93201844
1.00300,13.76318489
1.00350,15.59435133
1.00400,18.341101
1.00450,21.69823949
1.00500,23.22421153
1.00550,21.39304508
1.00600,17.73071219
1.00650,15.28915693
1.00700,14.98396252
1.00750,14.67876811
1.00800,13.76318489
1.00850,13.15279607
1.00900,12.84760167
1.00950,13.15279607
1.01000,13.15279607
1.01050,12.84760167
1.01100,11.93201844
1.01150,11.01643522
1.01200,10.4060464
1.01250,10.100852
1.01300,9.490463181
1.01350,8.880074365
1.01400,8.880074365
1.01450,9.490463181
1.01500,10.100852
1.01550,10.4060464
1.01600,11.01643522
1.01650,11.93201844
1.01700,12.54240726
1.01750,12.54240726
1.01800,12.23721285
1.01850,11.62682403
1.01900,10.100852
1.01950,7.964491142
1.02000,6.438519104
1.02050,7.048907919
1.02100,8.880074365
1.02150,9.490463181
1.02200,8.574879958
1.02250,7.964491142
1.02300,7.964491142
1.02350,7.659296735
1.02400,6.133324696
1.02450,4.30215825
1.02500,3.996963842
1.02550,4.607352658
1.02600,3.691769434
1.02650,1.555408581
1.02700,-0.5809522733
1.02750,-2.717313127
1.02800,-4.548479573
1.02850,-6.990034835
1.02900,-9.736784504
1.02950,-12.78872858
1.03000,-15.84067266
1.03050,-18.58742233
1.03100,-20.11339437
1.03150,-19.50300555
1.03200,-17.06145029
1.03250,-14.31470062
1.03300,-11.56795095
1.03350,-9.736784504
1.03400,-9.126395689
1.03450,-8.821201281
1.03500,-7.905618058
1.03550,-6.990034835
1.03600,-6.684840427
1.03650,-6.684840427
1.03700,-7.295229243
1.03750,-8.516006874
1.03800,-9.736784504
1.03850,-9.736784504
1.03900,-8.210812466
1.03950,-6.684840427
1.04000,-6.37964602
1.04050,-5.769257204
1.04100,-4.548479573
1.04150,-2.717313127
1.04200,-1.496535496
1.04250,-0.2757578656
1.04300,1.555408581
1.04350,4.30215825
1.04400,5.828130288
1.04450,6.133324696
1.04500,8.26968555
1.04550,13.15279607
1.04600,18.64629541
1.04650,22.0034339
1.04700,22.3086283
1.04750,21.39304508
1.04800,21.39304508
1.04850,21.69823949
1.04900,22.3086283
1.04950,22.3086283
1.05000,22.0034339
1.05050,20.78265627
1.05100,18.95148982
1.05150,17.12032337
1.05200,16.50993456
1.05250,16.81512897
1.05300,16.81512897
1.05350,15.59435133
1.05400,13.76318489
1.05450,12.54240726
1.05500,11.32162963
1.05550,9.185268773
1.05600,5.217741473
1.05650,1.250214173
1.05700,-0.5809522733
1.05750,-2.717313127
1.05800,-6.990034835
1.05850,-15.23028384
1.05900,-25.3016993
1.05950,-34.45753153
1.06000,-39.34064205
1.06050,-38.42505883
1.06100,-34.45753153
1.06150,-30.79519864
1.06200,-29.2692266
1.06250,-28.35364337
1.06300,-25.6068937
1.06350,-19.50300555
1.06400,-10.34717332
1.06450,-1.191341089
1.06500,4.912547065
1.06550,7.354102327
1.06600,7.659296735
1.06650,9.185268773
1.06700,12.84760167
1.06750,18.341101
1.06800,23.52940594
1.06850,26.58135001
1.06900,25.36057238
1.06950,20.78265627
1.07000,15.59435133
1.07050,12.54240726
1.07100,9.490463181
1.07150,4.912547065
1.07200,0.3346309498
1.07250,-2.41211872
1.07300,-4.243285166
1.07350,-7.295229243
1.07400,-10.65236773
1.07450,-13.3991174
1.07500,-17.6718391
1.07550,-27.13286574
1.07600,-38.42505883
1.07650,-44.22375257
1.07700,-43.00297494
1.07750,-39.64583646
1.07800,-38.73025324
1.07850,-38.73025324
1.07900,-37.81467001
1.07950,-38.11986442
1.08000,-41.47700291
1.08050,-45.44453021
1.08100,-46.36011343
1.08150,-45.1393358
1.08200,-45.44453021
1.08250,-46.97050224
1.08300,-47.58089106
1.08350,-47.27569665
1.08400,-46.36011343
1.08450,-43.91855817
1.08500,-38.73025324
1.08550,-33.54194831
1.08600,-30.49000423
1.08650,-28.04844897
1.08700,-24.08092167
1.08750,-18.58742233
1.08800,-15.23028384
1.08850,-14.31470062
1.08900,-13.7043118
1.08950,-12.17833977
1.09000,-9.736784504
1.09050,-8.210812466
1.09100,-7.295229243
1.09150,-6.074451612
1.09200,-3.938090758
1.09250,-1.191341089
1.09300,0.6398253575
1.09350,1.555408581
1.09400,1.250214173
1.09450,1.555408581
1.09500,2.470991804
1.09550,3.081380619
1.09600,3.081380619
1.09650,3.691769434
1.09700,6.133324696
1.09750,9.185268773
1.09800,11.32162963
1.09850,12.54240726
1.09900,13.76318489
1.09950,15.89954574
1.10000,17.73071219
1.10050,19.86707304
1.10100,21.39304508
1.10150,22.0034339
1.10200,21.69823949
1.10250,21.08785067
1.10300,20.78265627
1.10350,21.08785067
1.10400,21.69823949
1.10450,22.0034339
1.10500,22.91901712
1.10550,23.52940594
1.10600,24.44498916
1.10650,26.58135001
1.10700,29.02290527
1.10750,30.85407172
1.10800,31.15926613
1.10850,29.63329409
1.10900,27.19173883
1.10950,25.05537797
1.11000,23.52940594
1.11050,22.3086283
1.11100,20.78265627
1.11150,19.56187863
1.11200,18.341101
1.11250,18.0359066
1.11300,18.0359066
1.11350,17.42551778
1.11400,16.50993456
1.11450,15.59435133
1.11500,15.89954574
1.11550,17.12032337
1.11600,17.42551778
1.11650,15.59435133
1.11700,13.15279607
1.11750,11.32162963
1.11800,10.71124081
1.11850,11.01643522
1.11900,11.62682403
1.11950,11.62682403
1.12000,10.71124081
1.12050,9.490463181
1.12100,9.185268773
1.12150,10.100852
1.12200,10.4060464
1.12250,9.490463181
1.12300,7.964491142
1.12350,7.354102327
1.12400,7.964491142
1.12450,8.574879958
1.12500,8.26968555
1.12550,8.574879958
1.12600,10.4060464
1.12650,12.84760167
1.12700,14.98396252
1.12750,16.50993456
1.12800,17.42551778
1.12850,17.73071219
1.12900,17.12032337
1.12950,16.50993456
1.13000,16.50993456
1.13050,16.50993456
1.13100,15.89954574
1.13150,15.28915693
1.13200,15.28915693
1.13250,16.20474015
1.13300,17.42551778
1.13350,17.12032337
1.13400,15.89954574
1.13450,15.28915693
1.13500,15.59435133
1.13550,14.98396252
1.13600,12.54240726
1.13650,8.574879958
1.13700,5.522935881
1.13750,4.912547065
1.13800,4.912547065
1.13850,3.996963842
1.13900,3.081380619
1.13950,2.470991804
1.14000,1.250214173
1.14050,-0.5809522733
1.14100,-2.106924312
1.14150,-1.496535496
1.14200,-0.2757578656
1.14250,0.02943654207
1.14300,0.3346309498
1.14350,1.250214173
1.14400,2.470991804
1.14450,2.165797396
1.14500,0.9450197652
1.14550,1.250214173
1.14600,2.470991804
1.14650,2.776186211
1.14700,1.250214173
1.14750,0.02943654207
1.14800,0.02943654207
1.14850,-0.2757578656
1.14900,-2.41211872
1.14950,-4.243285166
1.15000,-4.243285166
1.15050,-3.327701943
1.15100,-3.938090758
1.15150,-5.769257204
1.15200,-6.37964602
1.15250,-3.938090758
1.15300,-0.886146681
1.15350,-1.191341089
1.15400,-3.938090758
1.15450,-5.464062797
1.15500,-3.938090758
1.15550,-1.801729904
1.15600,-1.191341089
1.15650,-1.801729904
1.15700,-2.717313127
1.15750,-3.938090758
1.15800,-6.37964602
1.15850,-8.516006874
1.15900,-8.821201281
1.15950,-7.295229243
1.16000,-6.684840427
1.16050,-8.516006874
1.16100,-11.87314536
1.16150,-14.00950621
1.16200,-13.3991174
1.16250,-11.87314536
1.16300,-10.65236773
1.16350,-10.65236773
1.16400,-11.26275654
1.16450,-11.87314536
1.16500,-11.87314536
1.16550,-11.87314536
1.16600,-12.17833977
1.16650,-12.78872858
1.16700,-13.7043118
1.16750,-14.00950621
1.16800,-13.3991174
1.16850,-11.26275654
1.16900,-9.431590097
1.16950,-9.126395689
1.17000,-10.04197891
1.17050,-11.56795095
1.17100,-11.87314536
1.17150,-11.26275654
1.17200,-9.736784504
1.17250,-7.905618058
1.17300,-7.295229243
1.17350,-7.295229243
1.17400,-6.684840427
1.17450,-4.243285166
1.17500,0.02943654207
1.17550,3.691769434
1.17600,6.743713512
1.17650,9.795657589
1.17700,12.84760167
1.17750,14.67876811
1.17800,14.67876811
1.17850,12.54240726
1.17900,9.490463181
1.17950,6.133324696
1.18000,4.30215825
1.18050,4.30215825
1.18100,4.912547065
1.18150,4.30215825
1.18200,1.250214173
1.18250,-1.496535496
1.18300,-2.717313127
1.18350,-1.801729904
1.18400,-0.5809522733
1.18450,-0.5809522733
1.18500,-1.801729904
1.18550,-3.938090758
1.18600,-5.769257204
1.18650,-7.295229243
1.18700,-8.821201281
1.18750,-11.26275654
1.18800,-14.31470062
1.18850,-17.06145029
1.18900,-19.80819996
1.18950,-22.86014404
1.19000,-26.52247693
1.19050,-29.87961541
1.19100,-32.62636508
1.19150,-34.76272594
1.19200,-36.89908679
1.19250,-39.03544764
1.19300,-39.95103087
1.19350,-38.42505883
1.19400,-34.76272594
1.19450,-30.79519864
1.19500,-27.43806015
1.19550,-24.99650489
1.19600,-23.16533844
1.19650,-21.334172
1.19700,-19.19781114
1.19750,-16.75625588
1.19800,-14.61989503
1.19850,-12.78872858
1.19900,-10.65236773
1.19950,-9.431590097
1.20000,-9.126395689
1.20050,-9.126395689
1.20100,-7.905618058
1.20150,-5.464062797
1.20200,-2.717313127
1.20250,-0.2757578656
1.20300,1.860602988
1.20350,4.30215825
1.20400,5.217741473
1.20450,5.217741473
1.20500,5.217741473
1.20550,6.133324696
1.20600,6.438519104
1.20650,4.912547065
1.20700,2.776186211
1.20750,1.860602988
1.20800,1.860602988
1.20850,1.860602988
1.20900,0.9450197652
1.20950,0.6398253575
1.21000,1.555408581
1.21050,3.081380619
1.21100,4.30215825
1.21150,4.607352658
1.21200,3.996963842
1.21250,3.691769434
1.21300,4.607352658
1.21350,5.828130288
1.21400,5.217741473
1.21450,2.470991804
1.21500,0.6398253575
1.21550,0.6398253575
1.21600,1.860602988
1.21650,2.470991804
1.21700,2.470991804
1.21750,3.386575027
1.21800,4.607352658
1.21850,5.217741473
1.21900,5.522935881
1.21950,6.438519104
1.22000,7.964491142
1.22050,8.574879958
1.22100,8.26968555
1.22150,7.659296735
1.22200,7.048907919
1.22250,5.828130288
1.22300,5.217741473
1.22350,5.828130288
1.22400,6.438519104
1.22450,7.048907919
1.22500,8.574879958
1.22550,10.100852
1.22600,10.4060464
1.22650,9.185268773
1.22700,7.659296735
1.22750,7.659296735
1.22800,7.964491142
1.22850,7.048907919
1.22900,5.828130288
1.22950,5.217741473
1.23000,5.522935881
1.23050,5.828130288
1.23100,6.438519104
1.23150,8.574879958
1.23200,10.71124081
1.23250,11.01643522
1.23300,9.795657589
1.23350,8.880074365
1.23400,10.100852
1.23450,11.62682403
1.23500,12.23721285
1.23550,11.32162963
1.23600,10.4060464
1.23650,9.795657589
1.23700,10.100852
1.23750,11.01643522
1.23800,11.62682403
1.23850,11.32162963
1.23900,11.01643522
1.23950,11.93201844
1.24000,13.45799048
1.24050,14.3735737
1.24100,14.0683793
1.24150,13.15279607
1.24200,13.15279607
1.24250,14.0683793
1.24300,14.67876811
1.24350,14.98396252
1.24400,15.28915693
1.24450,17.42551778
1.24500,19.86707304
1.24550,21.39304508
1.24600,21.08785067
1.24650,19.86707304
1.24700,18.95148982
1.24750,18.64629541
1.24800,18.95148982
1.24850,19.25668423
1.24900,19.86707304
1.24950,20.17226745
1.25000,19.86707304
1.25050,20.17226745
1.25100,20.78265627
1.25150,21.69823949
1.25200,22.3086283
1.25250,22.61382271
1.25300,22.0034339
1.25350,19.86707304
1.25400,16.81512897
1.25450,13.76318489
1.25500,10.71124081
1.25550,7.964491142
1.25600,3.691769434
1.25650,-0.886146681
1.25700,-5.158868389
1.25750,-7.905618058
1.25800,-10.04197891
1.25850,-12.78872858
1.25900,-15.23028384
1.25950,-15.53547825
1.26000,-14.00950621
1.26050,-11.87314536
1.26100,-11.56795095
1.26150,-12.17833977
1.26200,-13.09392299
1.26250,-13.7043118
1.26300,-14.31470062
1.26350,-14.31470062
1.26400,-12.48353417
1.26450,-9.431590097
1.26500,-6.684840427
1.26550,-5.464062797
1.26600,-5.464062797
1.26650,-5.769257204
1.26700,-6.684840427
1.26750,-7.60042365
1.26800,-7.905618058
1.26850,-6.37964602
1.26900,-5.158868389
1.26950,-6.074451612
1.27000,-9.431590097
1.27050,-12.17833977
1.27100,-13.09392299
1.27150,-13.3991174
1.27200,-13.3991174
1.27250,-12.48353417
1.27300,-10.34717332
1.27350,-7.60042365
1.27400,-5.464062797
1.27450,-4.548479573
1.27500,-4.548479573
1.27550,-4.243285166
1.27600,-3.327701943
1.27650,-1.496535496
1.27700,0.6398253575
1.27750,2.776186211
1.27800,4.912547065
1.27850,7.354102327
1.27900,9.490463181
1.27950,10.4060464
1.28000,9.795657589
1.28050,9.490463181
1.28100,9.795657589
1.28150,9.795657589
1.28200,8.574879958
1.28250,7.354102327
1.28300,7.354102327
1.28350,8.880074365
1.28400,10.100852
1.28450,10.71124081
1.28500,11.62682403
1.28550,13.45799048
1.28600,15.28915693
1.28650,15.89954574
1.28700,14.0683793
1.28750,11.01643522
1.28800,9.490463181
1.28850,10.4060464
1.28900,12.23721285
1.28950,13.76318489
1.29000,14.67876811
1.29050,15.89954574
1.29100,17.73071219
1.29150,18.64629541
1.29200,17.42551778
1.29250,14.98396252
1.29300,13.76318489
1.29350,13.45799048
1.29400,12.84760167
1.29450,11.93201844
1.29500,10.71124081
1.29550,10.4060464
1.29600,10.100852
1.29650,10.100852
1.29700,9.795657589
1.29750,9.490463181
1.29800,8.880074365
1.29850,7.354102327
1.29900,7.048907919
1.29950,8.26968555
1.30000,10.100852
1.30050,11.62682403
1.30100,13.15279607
1.30150,15.28915693
1.30200,18.95148982
1.30250,22.3086283
1.30300,24.75018357
1.30350,25.66576679
1.30400,25.66576679
1.30450,24.13979475
1.30500,21.39304508
1.30550,18.95148982
1.30600,18.341101
1.30650,19.25668423
1.30700,20.47746186
1.30750,21.08785067
1.30800,22.3086283
1.30850,22.91901712
1.30900,22.3086283
1.30950,20.78265627
1.31000,20.17226745
1.31050,22.3086283
1.31100,25.66576679
1.31150,27.19173883
1.31200,27.49693324
1.31250,27.49693324
1.31300,27.49693324
1.31350,25.66576679
1.31400,22.0034339
1.31450,18.0359066
1.31500,14.67876811
1.31550,11.01643522
1.31600,7.048907919
1.31650,3.081380619
1.31700,-1.191341089
1.31750,-7.295229243
1.31800,-13.7043118
1.31850,-17.97703351
1.31900,-17.6718391
1.31950,-15.23028384
1.32000,-14.31470062
1.32050,-15.23028384
1.32100,-16.75625588
1.32150,-17.97703351
1.32200,-18.89261674
1.32250,-19.50300555
1.32300,-19.19781114
1.32350,-18.58742233
1.32400,-19.19781114
1.32450,-21.334172
1.32500,-23.47053285
1.32550,-24.99650489
1.32600,-26.52247693
1.32650,-29.2692266
1.32700,-31.40558745
1.32750,-32.32117067
1.32800,-32.01597627
1.32850,-32.32117067
1.32900,-32.93155949
1.32950,-32.32117067
1.33000,-29.87961541
1.33050,-27.43806015
1.33100,-25.6068937
1.33150,-23.47053285
1.33200,-21.02897759
1.33250,-19.50300555
1.33300,-18.28222792
1.33350,-16.75625588
1.33400,-13.7043118
1.33450,-10.65236773
1.33500,-8.210812466
1.33550,-5.769257204
1.33600,-2.717313127
1.33650,0.6398253575
1.33700,4.30215825
1.33750,7.354102327
1.33800,9.490463181
1.33850,10.4060464
1.33900,9.490463181
1.33950,7.964491142
1.34000,7.354102327
1.34050,7.964491142
1.34100,9.795657589
1.34150,12.54240726
1.34200,15.59435133
1.34250,17.42551778
1.34300,17.12032337
1.34350,15.89954574
1.34400,14.98396252
1.34450,14.0683793
1.34500,12.23721285
1.34550,10.4060464
1.34600,9.795657589
1.34650,10.4060464
1.34700,10.4060464
1.34750,9.795657589
1.34800,10.100852
1.34850,11.62682403
1.34900,12.84760167
1.34950,12.84760167
1.35000,13.45799048
1.35050,15.89954574
1.35100,18.64629541
1.35150,19.25668423
1.35200,19.25668423
1.35250,19.25668423
1.35300,18.95148982
1.35350,17.12032337
1.35400,14.3735737
1.35450,13.15279607
1.35500,12.54240726
1.35550,11.32162963
1.35600,9.795657589
1.35650,8.880074365
1.35700,9.185268773
1.35750,9.490463181
1.35800,8.574879958
1.35850,7.964491142
1.35900,7.964491142
1.35950,7.964491142
1.36000,6.133324696
1.36050,3.386575027
1.36100,0.3346309498
1.36150,-1.801729904
1.36200,-3.938090758
1.36250,-5.769257204
1.36300,-7.905618058
1.36350,-10.04197891
1.36400,-12.78872858
1.36450,-15.53547825
1.36500,-18.58742233
1.36550,-21.02897759
1.36600,-22.24975522
1.36650,-21.94456081
1.36700,-21.02897759
1.36750,-21.334172
1.36800,-22.24975522
1.36850,-22.24975522
1.36900,-20.11339437
1.36950,-17.97703351
1.37000,-18.28222792
1.37050,-19.19781114
1.37100,-17.3666447
1.37150,-13.7043118
1.37200,-12.17833977
1.37250,-13.7043118
1.37300,-16.45106147
1.37350,-18.28222792
1.37400,-19.50300555
1.37450,-21.334172
1.37500,-22.55494963
1.37550,-21.6393664
1.37600,-20.41858877
1.37650,-20.41858877
1.37700,-19.50300555
1.37750,-15.53547825
1.37800,-10.95756214
1.37850,-8.210812466
1.37900,-8.210812466
1.37950,-7.905618058
1.38000,-5.464062797
1.38050,-3.022507535
1.38100,-2.106924312
1.38150,-2.41211872
1.38200,-3.63289635
1.38250,-5.158868389
1.38300,-6.684840427
1.38350,-7.905618058
1.38400,-8.210812466
1.38450,-7.905618058
1.38500,-8.516006874
1.38550,-9.126395689
1.38600,-10.04197891
1.38650,-10.65236773
1.38700,-11.26275654
1.38750,-11.87314536
1.38800,-12.17833977
1.38850,-12.48353417
1.38900,-12.78872858
1.38950,-12.48353417
1.39000,-11.87314536
1.39050,-10.34717332
1.39100,-9.126395689
1.39150,-8.210812466
1.39200,-7.295229243
1.39250,-6.074451612
1.39300,-4.853673981
1.39350,-4.243285166
1.39400,-4.853673981
1.39450,-5.158868389
1.39500,-3.63289635
1.39550,-1.801729904
1.39600,-1.496535496
1.39650,-1.801729904
1.39700,-1.191341089
1.39750,0.9450197652
1.39800,2.776186211
1.39850,3.386575027
1.39900,3.691769434
1.39950,4.607352658
1.40000,5.217741473
1.40050,5.217741473
1.40100,4.607352658
1.40150,4.607352658
1.40200,3.996963842
1.40250,2.776186211
1.40300,1.555408581
1.40350,0.9450197652
1.40400,1.555408581
1.40450,2.165797396
1.40500,1.860602988
1.40550,1.250214173
1.40600,0.9450197652
1.40650,0.6398253575
1.40700,0.02943654207
1.40750,-0.2757578656
1.40800,-0.2757578656
1.40850,0.3346309498
1.40900,1.250214173
1.40950,0.9450197652
1.41000,0.3346309498
1.41050,0.6398253575
1.41100,0.6398253575
1.41150,-0.5809522733
1.41200,-3.022507535
1.41250,-3.63289635
1.41300,-2.41211872
1.41350,-1.191341089
1.41400,-1.496535496
1.41450,-2.106924312
1.41500,-0.886146681
1.41550,0.3346309498
1.41600,0.3346309498
1.41650,0.02943654207
1.41700,0.02943654207
1.41750,0.3346309498
1.41800,-0.2757578656
1.41850,-1.496535496
1.41900,-2.106924312
1.41950,-1.801729904
1.42000,-2.106924312
1.42050,-2.717313127
1.42100,-2.106924312
1.42150,-1.801729904
1.42200,-3.022507535
1.42250,-5.769257204
1.42300,-6.684840427
1.42350,-5.769257204
1.42400,-5.158868389
1.42450,-5.769257204
1.42500,-6.37964602
1.42550,-5.158868389
1.42600,-4.243285166
1.42650,-4.853673981
1.42700,-6.074451612
1.42750,-5.769257204
1.42800,-4.853673981
1.42850,-3.938090758
1.42900,-3.327701943
1.42950,-3.022507535
1.43000,-3.327701943
1.43050,-3.63289635
1.43100,-3.022507535
1.43150,-1.496535496
1.43200,-0.5809522733
1.43250,-1.191341089
1.43300,-2.106924312
1.43350,-1.496535496
1.43400,0.02943654207
1.43450,0.6398253575
1.43500,0.02943654207
1.43550,-0.5809522733
1.43600,-0.5809522733
1.43650,-0.2757578656
1.43700,-0.2757578656
1.43750,-0.2757578656
1.43800,0.02943654207
1.43850,0.02943654207
1.43900,-0.886146681
1.43950,-2.41211872
1.44000,-3.327701943
1.44050,-3.63289635
1.44100,-2.717313127
1.44150,-1.801729904
1.44200,-1.801729904
1.44250,-2.717313127
1.44300,-3.63289635
1.44350,-3.327701943
1.44400,-2.41211872
1.44450,-2.106924312
1.44500,-2.106924312
1.44550,-2.41211872
1.44600,-2.717313127
1.44650,-3.63289635
1.44700,-4.853673981
1.44750,-4.853673981
1.44800,-3.938090758
1.44850,-3.63289635
1.44900,-4.548479573
1.44950,-5.769257204
1.45000,-5.464062797
1.45050,-4.853673981
1.45100,-4.548479573
1.45150,-4.548479573
1.45200,-4.243285166
1.45250,-3.327701943
1.45300,-3.327701943
1.45350,-3.63289635
1.45400,-4.243285166
1.45450,-4.243285166
1.45500,-3.938090758
1.45550,-3.938090758
1.45600,-3.63289635
1.45650,-3.327701943
1.45700,-3.022507535
1.45750,-3.327701943
1.45800,-4.548479573
1.45850,-5.769257204
1.45900,-6.074451612
1.45950,-5.769257204
1.46000,-5.464062797
1.46050,-5.158868389
1.46100,-5.158868389
1.46150,-5.769257204
1.46200,-6.684840427
1.46250,-6.990034835
1.46300,-6.37964602
1.46350,-5.158868389
1.46400,-4.853673981
1.46450,-5.464062797
1.46500,-5.464062797
1.46550,-4.853673981
1.46600,-3.63289635
1.46650,-3.327701943
1.46700,-3.63289635
1.46750,-3.63289635
1.46800,-3.938090758
1.46850,-3.63289635
1.46900,-3.938090758
1.46950,-3.938090758
1.47000,-4.853673981
1.47050,-5.464062797
1.47100,-4.853673981
1.47150,-3.63289635
1.47200,-3.022507535
1.47250,-3.63289635
1.47300,-4.853673981
1.47350,-4.243285166
1.47400,-2.717313127
1.47450,-2.106924312
1.47500,-3.327701943
1.47550,-4.243285166
1.47600,-4.243285166
1.47650,-4.243285166
1.47700,-4.853673981
1.47750,-4.853673981
1.47800,-3.63289635
1.47850,-2.41211872
1.47900,-2.106924312
1.47950,-2.717313127
1.48000,-3.63289635
1.48050,-4.243285166
1.48100,-4.548479573
1.48150,-4.853673981
1.48200,-5.464062797
1.48250,-6.37964602
1.48300,-6.684840427
1.48350,-5.769257204
1.48400,-4.853673981
1.48450,-4.853673981
1.48500,-4.853673981
1.48550,-3.938090758
1.48600,-2.717313127
1.48650,-3.327701943
1.48700,-4.548479573
1.48750,-4.853673981
1.48800,-3.63289635
1.48850,-2.717313127
1.48900,-3.327701943
1.48950,-4.243285166
1.49000,-4.548479573
1.49050,-4.853673981
1.49100,-4.548479573
1.49150,-3.63289635
1.49200,-2.106924312
1.49250,-1.496535496
1.49300,-1.801729904
1.49350,-1.496535496
1.49400,-0.5809522733
1.49450,-0.886146681
1.49500,-2.41211872
1.49550,-2.717313127
1.49600,-1.191341089
1.49650,0.02943654207
1.49700,0.02943654207
1.49750,-1.191341089
1.49800,-0.886146681
1.49850,0.02943654207
1.49900,0.02943654207
1.49950,0.02943654207
1.50000,0.6398253575
1.50050,0.9450197652
1.50100,0.3346309498
1.50150,-1.191341089
1.50200,-1.801729904
1.50250,-1.191341089
1.50300,-0.886146681
1.50350,-0.886146681
1.50400,0.02943654207
1.50450,0.3346309498
1.50500,0.3346309498
1.50550,0.02943654207
1.50600,0.6398253575
1.50650,1.555408581
1.50700,1.555408581
1.50750,0.9450197652
1.50800,0.6398253575
1.50850,1.250214173
1.50900,1.555408581
1.50950,1.250214173
1.51000,1.250214173
1.51050,1.555408581
1.51100,1.555408581
1.51150,0.9450197652
1.51200,0.3346309498
1.51250,0.6398253575
1.51300,0.6398253575
1.51350,0.6398253575
1.51400,0.9450197652
1.51450,1.555408581
1.51500,1.860602988
1.51550,2.165797396
1.51600,2.776186211
1.51650,3.386575027
1.51700,3.081380619
1.51750,2.470991804
1.51800,1.555408581
1.51850,1.250214173
1.51900,1.555408581
1.51950,1.555408581
1.52000,1.860602988
1.52050,1.860602988
1.52100,1.250214173
1.52150,1.860602988
1.52200,3.691769434
1.52250,5.217741473
1.52300,4.30215825
1.52350,2.165797396
1.52400,0.9450197652
1.52450,1.555408581
1.52500,2.165797396
1.52550,1.860602988
1.52600,0.9450197652
1.52650,0.6398253575
1.52700,1.250214173
1.52750,1.555408581
1.52800,1.555408581
1.52850,1.250214173
1.52900,0.02943654207
1.52950,-0.886146681
1.53000,-0.886146681
1.53050,0.3346309498
1.53100,2.470991804
1.53150,2.470991804
1.53200,0.9450197652
1.53250,0.02943654207
1.53300,0.02943654207
1.53350,1.250214173
1.53400,1.555408581
1.53450,1.555408581
1.53500,1.555408581
1.53550,1.555408581
1.53600,1.555408581
1.53650,2.165797396
1.53700,3.386575027
1.53750,4.607352658
1.53800,4.607352658
1.53850,4.30215825
1.53900,4.607352658
1.53950,5.828130288
1.54000,6.133324696
1.54050,5.217741473
1.54100,4.607352658
1.54150,4.30215825
1.54200,3.996963842
1.54250,3.691769434
1.54300,3.691769434
1.54350,4.30215825
1.54400,4.30215825
1.54450,3.386575027
1.54500,2.470991804
1.54550,2.165797396
1.54600,1.555408581
1.54650,0.6398253575
1.54700,0.3346309498
1.54750,0.6398253575
1.54800,1.250214173
1.54850,1.250214173
1.54900,0.6398253575
1.54950,0.3346309498
1.55000,-0.2757578656
1.55050,-1.191341089
1.55100,-1.496535496
1.55150,-0.886146681
1.55200,0.02943654207
1.55250,0.02943654207
1.55300,-1.191341089
1.55350,-2.106924312
1.55400,-1.801729904
1.55450,-0.886146681
1.55500,0.02943654207
1.55550,0.02943654207
1.55600,-0.5809522733
1.55650,-0.2757578656
1.55700,0.6398253575
1.55750,1.860602988
1.55800,1.860602988
1.55850,1.250214173
1.55900,1.860602988
1.55950,2.776186211
1.56000,2.776186211
1.56050,1.860602988
1.56100,1.555408581
1.56150,2.165797396
1.56200,2.470991804
1.56250,1.555408581
1.56300,0.9450197652
1.56350,1.250214173
1.56400,2.165797396
1.56450,2.470991804
1.56500,2.165797396
1.56550,2.165797396
1.56600,2.776186211
1.56650,3.996963842
1.56700,4.912547065
1.56750,4.912547065
1.56800,4.30215825
1.56850,3.996963842
1.56900,3.996963842
1.56950,4.30215825
1.57000,4.30215825
1.57050,4.607352658
1.57100,5.217741473
1.57150,5.828130288
1.57200,5.828130288
1.57250,5.522935881
1.57300,5.217741473
1.57350,5.217741473
1.57400,6.133324696
1.57450,8.26968555
1.57500,9.795657589
1.57550,9.490463181
1.57600,8.574879958
1.57650,8.26968555
1.57700,9.185268773
1.57750,9.490463181
1.57800,8.26968555
1.57850,7.048907919
1.57900,7.659296735
1.57950,8.574879958
1.58000,8.574879958
1.58050,8.26968555
1.58100,9.185268773
1.58150,10.100852
1.58200,10.100852
1.58250,9.185268773
1.58300,8.880074365
1.58350,9.490463181
1.58400,9.490463181
1.58450,9.490463181
1.58500,9.795657589
1.58550,10.71124081
1.58600,10.71124081
1.58650,9.795657589
1.58700,8.880074365
1.58750,8.880074365
1.58800,8.574879958
1.58850,7.354102327
1.58900,6.743713512
1.58950,7.659296735
1.59000,8.880074365
1.59050,8.26968555
1.59100,7.048907919
1.59150,6.438519104
1.59200,7.048907919
1.59250,7.659296735
1.59300,7.659296735
1.59350,7.354102327
1.59400,7.964491142
1.59450,8.26968555
1.59500,7.964491142
1.59550,7.048907919
1.59600,7.354102327
1.59650,8.574879958
1.59700,8.880074365
1.59750,8.574879958
1.59800,7.964491142
1.59850,7.964491142
1.59900,8.574879958
1.59950,8.880074365
1.60000,8.880074365
1.60050,7.964491142
1.60100,7.354102327
1.60150,7.659296735
1.60200,8.880074365
1.60250,9.795657589
1.60300,9.490463181
1.60350,8.880074365
1.60400,8.880074365
1.60450,9.185268773
1.60500,9.185268773
1.60550,7.964491142
1.60600,7.048907919
1.60650,7.048907919
1.60700,7.659296735
1.60750,7.659296735
1.60800,6.438519104
1.60850,5.828130288
1.60900,6.133324696
1.60950,7.048907919
1.61000,6.438519104
1.61050,4.912547065
1.61100,3.996963842
1.61150,3.996963842
1.61200,3.996963842
1.61250,3.386575027
1.61300,3.081380619
1.61350,4.30215825
1.61400,5.522935881
1.61450,4.30215825
1.61500,2.470991804
1.61550,1.860602988
1.61600,2.470991804
1.61650,2.776186211
1.61700,1.860602988
1.61750,1.250214173
1.61800,1.860602988
1.61850,2.165797396
1.61900,1.860602988
1.61950,0.3346309498
1.62000,-0.2757578656
1.62050,-0.2757578656
1.62100,0.02943654207
1.62150,0.02943654207
1.62200,-0.5809522733
1.62250,-0.5809522733
1.62300,0.02943654207
1.62350,0.02943654207
1.62400,-0.886146681
1.62450,-1.801729904
1.62500,-1.801729904
1.62550,-0.5809522733
1.62600,-0.2757578656
1.62650,-1.191341089
1.62700,-2.106924312
1.62750,-2.106924312
1.62800,-1.801729904
1.62850,-1.801729904
1.62900,-1.801729904
1.62950,-2.41211872
1.63000,-2.717313127
1.63050,-2.717313127
1.63100,-2.41211872
1.63150,-3.327701943
1.63200,-4.853673981
1.63250,-5.158868389
1.63300,-4.243285166
1.63350,-3.327701943
1.63400,-4.243285166
1.63450,-5.464062797
1.63500,-5.769257204
1.63550,-5.464062797
1.63600,-6.074451612
1.63650,-6.990034835
1.63700,-6.990034835
1.63750,-5.769257204
1.63800,-5.464062797
1.63850,-5.464062797
1.63900,-4.548479573
1.63950,-3.022507535
1.64000,-3.327701943
1.64050,-5.769257204
1.64100,-6.990034835
1.64150,-5.464062797
1.64200,-3.63289635
1.64250,-3.63289635
1.64300,-4.548479573
1.64350,-3.938090758
1.64400,-3.022507535
1.64450,-3.327701943
1.64500,-4.853673981
1.64550,-4.853673981
1.64600,-3.938090758
1.64650,-3.327701943
1.64700,-3.022507535
1.64750,-2.41211872
1.64800,-1.496535496
1.64850,-1.801729904
1.64900,-3.63289635
1.64950,-4.243285166
1.65000,-3.63289635
1.65050,-2.41211872
1.65100,-2.106924312
1.65150,-2.106924312
1.65200,-1.801729904
1.65250,-2.41211872
1.65300,-3.327701943
1.65350,-3.938090758
1.65400,-3.327701943
1.65450,-2.41211872
1.65500,-2.106924312
1.65550,-2.106924312
1.65600,-1.801729904
1.65650,-2.106924312
1.65700,-2.717313127
1.65750,-3.327701943
1.65800,-3.022507535
1.65850,-2.106924312
1.65900,-1.191341089
1.65950,-0.5809522733
1.66000,-0.5809522733
1.66050,-0.886146681
1.66100,-1.496535496
1.66150,-2.106924312
1.66200,-1.801729904
1.66250,-1.191341089
1.66300,-0.5809522733
1.66350,-0.5809522733
1.66400,-0.886146681
1.66450,-1.496535496
1.66500,-1.496535496
1.66550,-1.496535496
1.66600,-2.106924312
1.66650,-2.41211872
1.66700,-2.106924312
1.66750,-0.886146681
1.66800,0.02943654207
1.66850,0.02943654207
1.66900,0.02943654207
1.66950,0.9450197652
1.67000,1.250214173
1.67050,0.6398253575
1.67100,0.3346309498
1.67150,1.555408581
1.67200,2.776186211
1.67250,2.776186211
1.67300,0.9450197652
1.67350,0.02943654207
1.67400,0.3346309498
1.67450,1.860602988
1.67500,2.776186211
1.67550,2.470991804
1.67600,1.555408581
1.67650,0.02943654207
1.67700,-1.496535496
1.67750,-2.41211872
1.67800,-2.717313127
1.67850,-2.717313127
1.67900,-3.022507535
1.67950,-3.022507535
1.68000,-1.801729904
1.68050,-1.191341089
1.68100,-2.106924312
1.68150,-4.243285166
1.68200,-6.37964602
1.68250,-6.37964602
1.68300,-6.074451612
1.68350,-6.990034835
1.68400,-7.905618058
1.68450,-6.990034835
1.68500,-3.63289635
1.68550,-1.191341089
1.68600,-1.191341089
1.68650,-2.106924312
1.68700,-1.496535496
1.68750,-0.2757578656
1.68800,-0.2757578656
1.68850,-0.5809522733
1.68900,0.3346309498
1.68950,2.470991804
1.69000,3.386575027
1.69050,3.081380619
1.69100,5.522935881
1.69150,11.62682403
1.69200,20.78265627
1.69250,30.2436829
1.69300,37.56834869
1.69350,38.78912632
1.69400,31.46446054
1.69450,17.42551778
1.69500,2.776186211
1.69550,-6.684840427
1.69600,-10.95756214
1.69650,-13.3991174
1.69700,-15.84067266
1.69750,-17.97703351
1.69800,-19.19781114
1.69850,-17.6718391
1.69900,-14.61989503
1.69950,-11.56795095
1.70000,-8.821201281
1.70050,-4.853673981
1.70100,-0.2757578656
1.70150,2.776186211
1.70200,2.776186211
1.70250,0.6398253575
1.70300,-0.5809522733
1.70350,-1.496535496
1.70400,-2.41211872
1.70450,-3.327701943
1.70500,-3.022507535
1.70550,-2.41211872
1.70600,-1.496535496
1.70650,-1.191341089
1.70700,-0.5809522733
1.70750,-0.886146681
1.70800,-3.022507535
1.70850,-5.158868389
1.70900,-5.158868389
1.70950,-3.63289635
1.71000,-3.63289635
1.71050,-4.853673981
1.71100,-5.769257204
1.71150,-5.158868389
1.71200,-4.548479573
1.71250,-5.769257204
1.71300,-7.905618058
1.71350,-8.210812466
1.71400,-6.37964602
1.71450,-4.853673981
1.71500,-5.464062797
1.71550,-6.37964602
1.71600,-6.37964602
1.71650,-5.769257204
1.71700,-5.769257204
1.71750,-6.684840427
1.71800,-6.990034835
1.71850,-6.37964602
1.71900,-6.074451612
1.71950,-6.074451612
1.72000,-5.464062797
1.72050,-4.243285166
1.72100,-3.938090758
1.72150,-5.464062797
1.72200,-7.295229243
1.72250,-7.295229243
1.72300,-6.074451612
1.72350,-4.853673981
1.72400,-3.938090758
1.72450,-3.327701943
1.72500,-3.022507535
1.72550,-3.022507535
1.72600,-3.022507535
1.72650,-2.717313127
1.72700,-2.106924312
1.72750,-1.801729904
1.72800,-2.106924312
1.72850,-2.41211872
1.72900,-2.106924312
1.72950,-2.106924312
1.73000,-1.801729904
1.73050,-1.801729904
1.73100,-1.801729904
1.73150,-1.801729904
1.73200,-2.106924312
1.73250,-2.106924312
1.73300,-1.496535496
1.73350,-0.886146681
1.73400,-0.886146681
1.73450,-0.886146681
1.73500,-0.5809522733
1.73550,-0.2757578656
1.73600,-0.5809522733
1.73650,-1.801729904
1.73700,-2.717313127
1.73750,-2.717313127
1.73800,-3.022507535
1.73850,-4.243285166
1.73900,-6.37964602
1.73950,-7.295229243
1.74000,-6.37964602
1.74050,-5.158868389
1.74100,-5.158868389
1.74150,-5.158868389
1.74200,-4.548479573
1.74250,-3.327701943
1.74300,-2.717313127
1.74350,-3.022507535
1.74400,-2.717313127
1.74450,-1.801729904
1.74500,-1.191341089
1.74550,-1.801729904
1.74600,-3.63289635
1.74650,-5.158868389
1.74700,-5.464062797
1.74750,-5.464062797
1.74800,-5.769257204
1.74850,-6.074451612
1.74900,-5.464062797
1.74950,-3.938090758
1.75000,-3.327701943
1.75050,-4.243285166
1.75100,-5.464062797
1.75150,-5.158868389
1.75200,-3.63289635
1.75250,-2.106924312
1.75300,-1.801729904
1.75350,-2.106924312
1.75400,-2.717313127
1.75450,-2.717313127
1.75500,-2.106924312
1.75550,-1.801729904
1.75600,-1.496535496
1.75650,-2.41211872
1.75700,-3.938090758
1.75750,-4.853673981
1.75800,-4.548479573
1.75850,-3.938090758
1.75900,-3.327701943
1.75950,-3.022507535
1.76000,-2.106924312
1.76050,-1.496535496
1.76100,-1.801729904
1.76150,-3.022507535
1.76200,-3.022507535
1.76250,-2.106924312
1.76300,-1.496535496
1.76350,-1.801729904
1.76400,-2.106924312
1.76450,-2.41211872
1.76500,-2.106924312
1.76550,-3.022507535
1.76600,-3.63289635
1.76650,-3.327701943
1.76700,-2.41211872
1.76750,-2.106924312
1.76800,-2.106924312
1.76850,-2.41211872
1.76900,-2.41211872
1.76950,-2.41211872
1.77000,-3.63289635
1.77050,-4.853673981
1.77100,-5.464062797
1.77150,-4.853673981
1.77200,-4.548479573
1.77250,-4.243285166
1.77300,-4.548479573
1.77350,-4.853673981
1.77400,-4.548479573
1.77450,-3.938090758
1.77500,-3.938090758
1.77550,-4.243285166
1.77600,-4.548479573
1.77650,-4.853673981
1.77700,-5.464062797
1.77750,-5.769257204
1.77800,-4.853673981
1.77850,-3.63289635
1.77900,-3.022507535
1.77950,-3.63289635
1.78000,-3.63289635
1.78050,-2.717313127
1.78100,-2.41211872
1.78150,-3.022507535
1.78200,-4.548479573
1.78250,-6.074451612
1.78300,-6.990034835
1.78350,-6.684840427
1.78400,-4.853673981
1.78450,-2.717313127
1.78500,-1.801729904
1.78550,-1.801729904
1.78600,-0.5809522733
1.78650,1.555408581
1.78700,3.081380619
1.78750,1.860602988
1.78800,0.02943654207
1.78850,0.02943654207
1.78900,0.3346309498
1.78950,0.3346309498
1.79000,0.02943654207
1.79050,0.6398253575
1.79100,2.470991804
1.79150,3.996963842
1.79200,4.30215825
1.79250,3.996963842
1.79300,3.996963842
1.79350,4.30215825
1.79400,3.996963842
1.79450,2.470991804
1.79500,1.250214173
1.79550,1.250214173
1.79600,2.470991804
1.79650,3.081380619
1.79700,1.860602988
1.79750,0.9450197652
1.79800,0.6398253575
1.79850,0.6398253575
1.79900,0.02943654207
1.79950,-0.886146681
1.80000,-0.5809522733
1.80050,-0.2757578656
1.80100,-0.886146681
1.80150,-1.496535496
1.80200,-1.191341089
1.80250,-0.2757578656
1.80300,0.02943654207
1.80350,0.02943654207
1.80400,0.6398253575
1.80450,1.250214173
1.80500,0.3346309498
1.80550,-0.886146681
1.80600,-1.191341089
1.80650,-0.2757578656
1.80700,0.02943654207
1.80750,-0.2757578656
1.80800,0.02943654207
1.80850,0.9450197652
1.80900,1.555408581
1.80950,0.9450197652
1.81000,0.6398253575
1.81050,0.9450197652
1.81100,0.9450197652
1.81150,-0.2757578656
1.81200,-1.801729904
1.81250,-2.106924312
1.81300,-2.106924312
1.81350,-2.717313127
1.81400,-3.938090758
1.81450,-4.243285166
1.81500,-3.022507535
1.81550,-2.106924312
1.81600,-1.801729904
1.81650,-0.886146681
1.81700,1.250214173
1.81750,3.691769434
1.81800,4.607352658
1.81850,4.30215825
1.81900,4.607352658
1.81950,5.217741473
1.82000,4.607352658
1.82050,3.081380619
1.82100,2.470991804
1.82150,3.691769434
1.82200,4.607352658
1.82250,4.30215825
1.82300,3.691769434
1.82350,3.996963842
1.82400,4.30215825
1.82450,3.386575027
1.82500,1.250214173
1.82550,0.02943654207
1.82600,1.250214173
1.82650,2.776186211
1.82700,3.081380619
1.82750,2.165797396
1.82800,1.860602988
1.82850,2.165797396
1.82900,1.555408581
1.82950,0.02943654207
1.83000,-1.801729904
1.83050,-1.801729904
1.83100,-0.2757578656
1.83150,0.3346309498
1.83200,0.3346309498
1.83250,0.3346309498
1.83300,0.6398253575
1.83350,1.250214173
1.83400,1.860602988
1.83450,2.165797396
1.83500,1.860602988
1.83550,0.9450197652
1.83600,0.02943654207
1.83650,0.02943654207
1.83700,0.6398253575
1.83750,1.250214173
1.83800,1.250214173
1.83850,0.9450197652
1.83900,1.555408581
1.83950,2.470991804
1.84000,3.386575027
1.84050,4.607352658
1.84100,5.828130288
1.84150,5.522935881
1.84200,3.386575027
1.84250,1.555408581
1.84300,1.860602988
1.84350,3.386575027
1.84400,4.607352658
1.84450,4.912547065
1.84500,5.828130288
1.84550,6.743713512
1.84600,5.828130288
1.84650,3.996963842
1.84700,3.386575027
1.84750,4.912547065
1.84800,5.828130288
1.84850,4.912547065
1.84900,3.081380619
1.84950,2.470991804
1.85000,1.250214173
1.85050,0.02943654207
1.85100,0.02943654207
1.85150,1.860602988
1.85200,3.996963842
1.85250,3.081380619
1.85300,0.9450197652
1.85350,0.6398253575
1.85400,2.165797396
1.85450,3.386575027
1.85500,3.691769434
1.85550,3.996963842
1.85600,3.996963842
1.85650,2.165797396
1.85700,-0.2757578656
1.85750,-1.191341089
1.85800,0.6398253575
1.85850,2.470991804
1.85900,2.470991804
1.85950,1.860602988
1.86000,1.860602988
1.86050,2.165797396
1.86100,2.776186211
1.86150,3.691769434
1.86200,5.217741473
1.86250,6.133324696
1.86300,6.743713512
1.86350,7.354102327
1.86400,7.354102327
1.86450,6.743713512
1.86500,5.522935881
1.86550,5.522935881
1.86600,6.133324696
1.86650,5.828130288
1.86700,5.217741473
1.86750,5.522935881
1.86800,7.354102327
1.86850,8.880074365
1.86900,8.880074365
1.86950,7.354102327
1.87000,5.828130288
1.87050,4.607352658
1.87100,3.996963842
1.87150,3.691769434
1.87200,2.776186211
1.87250,1.555408581
1.87300,0.6398253575
1.87350,1.555408581
1.87400,2.776186211
1.87450,2.470991804
1.87500,0.6398253575
1.87550,-0.886146681
1.87600,-1.191341089
1.87650,0.02943654207
1.87700,2.165797396
1.87750,3.386575027
1.87800,2.470991804
1.87850,0.9450197652
1.87900,0.9450197652
1.87950,2.776186211
1.88000,4.607352658
1.88050,5.217741473
1.88100,4.912547065
1.88150,5.522935881
1.88200,6.743713512
1.88250,7.048907919
1.88300,6.743713512
1.88350,7.659296735
1.88400,9.185268773
1.88450,10.100852
1.88500,9.490463181
1.88550,8.574879958
1.88600,7.659296735
1.88650,6.743713512
1.88700,5.217741473
1.88750,3.691769434
1.88800,3.081380619
1.88850,3.081380619
1.88900,3.386575027
1.88950,3.386575027
1.89000,2.776186211
1.89050,2.165797396
1.89100,1.860602988
1.89150,2.165797396
1.89200,2.165797396
1.89250,1.860602988
1.89300,0.9450197652
1.89350,0.6398253575
1.89400,1.555408581
1.89450,1.860602988
1.89500,1.555408581
1.89550,0.9450197652
1.89600,0.6398253575
1.89650,0.9450197652
1.89700,0.9450197652
1.89750,0.9450197652
1.89800,0.9450197652
1.89850,1.250214173
1.89900,1.555408581
1.89950,1.555408581
1.90000,1.555408581
1.90050,0.6398253575
1.90100,0.3346309498
1.90150,1.250214173
1.90200,3.081380619
1.90250,3.691769434
1.90300,2.470991804
1.90350,0.6398253575
1.90400,0.3346309498
1.90450,1.250214173
1.90500,1.860602988
1.90550,1.250214173
1.90600,0.3346309498
1.90650,0.6398253575
1.90700,1.250214173
1.90750,1.555408581
1.90800,1.250214173
1.90850,1.555408581
1.90900,2.470991804
1.90950,3.386575027
1.91000,2.776186211
1.91050,0.9450197652
1.91100,0.02943654207
1.91150,1.555408581
1.91200,3.691769434
1.91250,4.912547065
1.91300,4.607352658
1.91350,3.386575027
1.91400,2.470991804
1.91450,2.470991804
1.91500,3.386575027
1.91550,3.996963842
1.91600,3.691769434
1.91650,3.386575027
1.91700,3.691769434
1.91750,5.217741473
1.91800,7.048907919
1.91850,8.26968555
1.91900,7.964491142
1.91950,7.659296735
1.92000,7.354102327
1.92050,7.659296735
1.92100,7.659296735
1.92150,6.743713512
1.92200,5.217741473
1.92250,3.996963842
1.92300,3.691769434
1.92350,2.470991804
1.92400,0.02943654207
1.92450,-3.327701943
1.92500,-5.464062797
1.92550,-6.684840427
1.92600,-7.295229243
1.92650,-7.295229243
1.92700,-6.074451612
1.92750,-4.853673981
1.92800,-5.158868389
1.92850,-6.074451612
1.92900,-6.37964602
1.92950,-4.243285166
1.93000,-1.496535496
1.93050,0.02943654207
1.93100,0.02943654207
1.93150,0.02943654207
1.93200,0.02943654207
1.93250,0.02943654207
1.93300,-0.886146681
1.93350,-1.801729904
1.93400,-2.106924312
1.93450,-2.106924312
1.93500,-2.717313127
1.93550,-3.327701943
1.93600,-2.717313127
1.93650,-1.191341089
1.93700,-0.2757578656
1.93750,-1.191341089
1.93800,-3.327701943
1.93850,-3.938090758
1.93900,-2.41211872
1.93950,-0.2757578656
1.94000,0.3346309498
1.94050,0.3346309498
1.94100,0.3346309498
1.94150,1.250214173
1.94200,2.165797396
1.94250,2.470991804
1.94300,2.470991804
1.94350,2.165797396
1.94400,2.165797396
1.94450,1.860602988
1.94500,1.555408581
1.94550,1.250214173
1.94600,1.250214173
1.94650,1.555408581
1.94700,1.555408581
1.94750,1.250214173
1.94800,0.6398253575
1.94850,0.9450197652
1.94900,2.165797396
1.94950,2.470991804
1.95000,0.6398253575
1.95050,-0.5809522733
1.95100,0.02943654207
1.95150,1.250214173
1.95200,0.9450197652
1.95250,0.02943654207
1.95300,0.02943654207
1.95350,1.250214173
1.95400,1.860602988
1.95450,0.9450197652
1.95500,0.02943654207
1.95550,0.6398253575
1.95600,1.555408581
1.95650,1.250214173
1.95700,0.6398253575
1.95750,0.9450197652
1.95800,1.250214173
1.95850,1.250214173
1.95900,0.6398253575
1.95950,0.9450197652
1.96000,0.9450197652
1.96050,0.02943654207
1.96100,-0.886146681
1.96150,-0.886146681
1.96200,0.02943654207
1.96250,0.3346309498
1.96300,0.3346309498
1.96350,0.6398253575
1.96400,1.555408581
1.96450,1.555408581
1.96500,0.02943654207
1.96550,-2.106924312
1.96600,-3.327701943
1.96650,-2.717313127
1.96700,-1.191341089
1.96750,0.02943654207
1.96800,0.02943654207
1.96850,0.02943654207
1.96900,0.6398253575
1.96950,1.860602988
1.97000,2.165797396
1.97050,1.250214173
1.97100,-0.2757578656
1.97150,-1.496535496
1.97200,-2.106924312
1.97250,-2.717313127
1.97300,-2.717313127
1.97350,-2.41211872
1.97400,-2.41211872
1.97450,-3.327701943
1.97500,-4.548479573
1.97550,-4.548479573
1.97600,-3.022507535
1.97650,-0.5809522733
1.97700,0.6398253575
1.97750,0.02943654207
1.97800,-1.801729904
1.97850,-2.41211872
1.97900,-1.496535496
1.97950,0.3346309498
1.98000,1.860602988
1.98050,2.776186211
1.98100,3.386575027
1.98150,3.996963842
1.98200,3.691769434
1.98250,2.470991804
1.98300,0.6398253575
1.98350,-0.5809522733
1.98400,-1.496535496
1.98450,-1.191341089
1.98500,-0.5809522733
1.98550,-1.191341089
1.98600,-2.41211872
1.98650,-2.717313127
1.98700,-1.801729904
1.98750,-0.886146681
1.98800,-0.886146681
1.98850,-0.2757578656
1.98900,1.555408581
1.98950,4.30215825
1.99000,5.828130288
1.99050,6.133324696
1.99100,6.438519104
1.99150,6.743713512
1.99200,5.828130288
1.99250,3.996963842
1.99300,2.776186211
1.99350,2.776186211
1.99400,3.386575027
1.99450,3.386575027
1.99500,2.776186211
1.99550,2.165797396
1.99600,1.860602988
1.99650,2.165797396
1.99700,2.776186211
1.99750,3.081380619
1.99800,2.776186211
1.99850,1.555408581
1.99900,0.6398253575
1.99950,0.3346309498
2.00000,0.02943654207
2.00050,-1.801729904
2.00100,-3.022507535
2.00150,-3.022507535
2.00200,-2.717313127
2.00250,-2.41211872
2.00300,-2.41211872
2.00350,-1.801729904
2.00400,-0.886146681
2.00450,-0.2757578656
2.00500,-0.5809522733
2.00550,-0.2757578656
2.00600,0.02943654207
2.00650,-0.5809522733
2.00700,-1.801729904
2.00750,-2.106924312
2.00800,-1.801729904
2.00850,-2.106924312
2.00900,-2.41211872
2.00950,-0.886146681
2.01000,1.555408581
2.01050,3.386575027
2.01100,3.691769434
2.01150,4.607352658
2.01200,6.133324696
2.01250,6.438519104
2.01300,5.522935881
2.01350,3.996963842
2.01400,3.386575027
2.01450,2.776186211
2.01500,1.250214173
2.01550,0.6398253575
2.01600,1.555408581
2.01650,1.860602988
2.01700,0.3346309498
2.01750,0.02943654207
2.01800,1.555408581
2.01850,4.30215825
2.01900,4.607352658
2.01950,3.691769434
2.02000,4.912547065
2.02050,7.354102327
2.02100,8.574879958
2.02150,7.048907919
2.02200,4.912547065
2.02250,3.996963842
2.02300,4.30215825
2.02350,5.217741473
2.02400,6.743713512
2.02450,8.26968555
2.02500,8.574879958
2.02550,7.659296735
2.02600,6.743713512
2.02650,6.743713512
2.02700,6.743713512
2.02750,5.828130288
2.02800,4.30215825
2.02850,2.165797396
2.02900,0.6398253575
2.02950,0.02943654207
2.03000,0.6398253575
2.03050,2.165797396
2.03100,2.470991804
2.03150,0.9450197652
2.03200,-1.191341089
2.03250,-2.106924312
2.03300,-0.5809522733
2.03350,1.250214173
2.03400,2.470991804
2.03450,2.776186211
2.03500,2.470991804
2.03550,1.250214173
2.03600,-0.5809522733
2.03650,-2.717313127
2.03700,-4.243285166
2.03750,-5.464062797
2.03800,-6.684840427
2.03850,-8.210812466
2.03900,-8.821201281
2.03950,-9.736784504
2.04000,-10.95756214
2.04050,-11.56795095
2.04100,-11.56795095
2.04150,-11.56795095
2.04200,-12.48353417
2.04250,-14.31470062
2.04300,-16.14586707
2.04350,-16.14586707
2.04400,-15.53547825
2.04450,-14.31470062
2.04500,-13.09392299
2.04550,-12.17833977
2.04600,-10.95756214
2.04650,-9.736784504
2.04700,-8.516006874
2.04750,-7.905618058
2.04800,-7.60042365
2.04850,-7.905618058
2.04900,-8.821201281
2.04950,-9.736784504
2.05000,-9.431590097
2.05050,-7.905618058
2.05100,-6.684840427
2.05150,-6.684840427
2.05200,-7.295229243
2.05250,-7.295229243
2.05300,-7.295229243
2.05350,-8.516006874
2.05400,-9.736784504
2.05450,-9.736784504
2.05500,-7.905618058
2.05550,-6.074451612
2.05600,-4.853673981
2.05650,-3.63289635
2.05700,-2.106924312
2.05750,-1.191341089
2.05800,-1.496535496
2.05850,-2.41211872
2.05900,-3.327701943
2.05950,-4.243285166
2.06000,-4.243285166
2.06050,-2.717313127
2.06100,-1.801729904
2.06150,-1.801729904
2.06200,-2.41211872
2.06250,-1.496535496
2.06300,-0.2757578656
2.06350,-0.886146681
2.06400,-3.022507535
2.06450,-4.548479573
2.06500,-4.243285166
2.06550,-3.327701943
2.06600,-3.327701943
2.06650,-4.548479573
2.06700,-5.158868389
2.06750,-4.853673981
2.06800,-3.63289635
2.06850,-1.801729904
2.06900,0.02943654207
2.06950,1.555408581
2.07000,2.470991804
2.07050,2.776186211
2.07100,2.776186211
2.07150,2.776186211
2.07200,3.081380619
2.07250,3.996963842
2.07300,3.996963842
2.07350,3.386575027
2.07400,2.776186211
2.07450,3.386575027
2.07500,3.691769434
2.07550,2.165797396
2.07600,0.6398253575
2.07650,0.9450197652
2.07700,2.776186211
2.07750,3.996963842
2.07800,3.081380619
2.07850,1.555408581
2.07900,0.9450197652
2.07950,1.250214173
2.08000,1.860602988
2.08050,2.776186211
2.08100,3.996963842
2.08150,4.607352658
2.08200,3.386575027
2.08250,0.9450197652
2.08300,0.02943654207
2.08350,0.02943654207
2.08400,0.02943654207
2.08450,-0.5809522733
2.08500,-1.496535496
2.08550,-0.2757578656
2.08600,1.555408581
2.08650,3.386575027
2.08700,3.996963842
2.08750,4.607352658
2.08800,5.522935881
2.08850,6.743713512
2.08900,6.743713512
2.08950,5.217741473
2.09000,3.386575027
2.09050,2.165797396
2.09100,1.860602988
2.09150,2.165797396
2.09200,3.386575027
2.09250,4.912547065
2.09300,5.217741473
2.09350,4.607352658
2.09400,3.691769434
2.09450,2.776186211
2.09500,2.470991804
2.09550,2.165797396
2.09600,1.860602988
2.09650,1.860602988
2.09700,2.470991804
2.09750,2.776186211
2.09800,2.165797396
2.09850,1.860602988
2.09900,1.860602988
2.09950,2.470991804
2.10000,2.470991804
2.10050,2.776186211
2.10100,3.386575027
2.10150,3.691769434
2.10200,3.386575027
2.10250,2.776186211
2.10300,2.165797396
2.10350,1.555408581
2.10400,0.6398253575
2.10450,-0.2757578656
2.10500,-0.5809522733
2.10550,-0.886146681
2.10600,-1.496535496
2.10650,-1.801729904
2.10700,-1.496535496
2.10750,-0.2757578656
2.10800,-0.2757578656
2.10850,-1.191341089
2.10900,-1.496535496
2.10950,-1.496535496
2.11000,-2.106924312
2.11050,-3.022507535
2.11100,-3.327701943
2.11150,-3.022507535
2.11200,-3.327701943
2.11250,-4.548479573
2.11300,-4.548479573
2.11350,-3.022507535
2.11400,-0.886146681
2.11450,-0.2757578656
2.11500,-0.886146681
2.11550,-2.106924312
2.11600,-3.022507535
2.11650,-3.938090758
2.11700,-4.548479573
2.11750,-4.853673981
2.11800,-3.938090758
2.11850,-2.41211872
2.11900,0.02943654207
2.11950,2.165797396
2.12000,2.165797396
2.12050,0.3346309498
2.12100,-1.496535496
2.12150,-2.106924312
2.12200,-2.41211872
2.12250,-3.022507535
2.12300,-4.243285166
2.12350,-5.158868389
2.12400,-5.158868389
2.12450,-4.548479573
2.12500,-4.548479573
2.12550,-4.853673981
2.12600,-5.158868389
2.12650,-5.464062797
2.12700,-5.158868389
2.12750,-3.63289635
2.12800,-2.41211872
2.12850,-2.106924312
2.12900,-3.327701943
2.12950,-3.938090758
2.13000,-3.938090758
2.13050,-4.243285166
2.13100,-5.158868389
2.13150,-5.158868389
2.13200,-4.243285166
2.13250,-3.63289635
2.13300,-4.243285166
2.13350,-4.853673981
2.13400,-4.853673981
2.13450,-4.548479573
2.13500,-4.548479573
2.13550,-4.548479573
2.13600,-3.938090758
2.13650,-3.327701943
2.13700,-3.938090758
2.13750,-4.853673981
2.13800,-3.938090758
2.13850,-2.717313127
2.13900,-2.717313127
2.13950,-4.243285166
2.14000,-5.158868389
2.14050,-4.548479573
2.14100,-3.938090758
2.14150,-3.938090758
2.14200,-3.63289635
2.14250,-2.41211872
2.14300,-1.801729904
2.14350,-2.106924312
2.14400,-3.022507535
2.14450,-3.327701943
2.14500,-3.327701943
2.14550,-3.63289635
2.14600,-3.63289635
2.14650,-3.327701943
2.14700,-2.717313127
2.14750,-2.41211872
2.14800,-2.41211872
2.14850,-2.717313127
2.14900,-2.41211872
2.14950,-1.496535496
2.15000,-0.2757578656
2.15050,-0.2757578656
2.15100,-2.106924312
2.15150,-3.63289635
2.15200,-3.327701943
2.15250,-0.886146681
2.15300,0.6398253575
2.15350,0.3346309498
2.15400,-1.191341089
2.15450,-2.717313127
2.15500,-3.022507535
2.15550,-2.41211872
2.15600,-1.801729904
2.15650,-2.41211872
2.15700,-3.63289635
2.15750,-3.938090758
2.15800,-3.022507535
2.15850,-1.801729904
2.15900,-1.496535496
2.15950,-1.191341089
2.16000,-0.5809522733
2.16050,0.02943654207
2.16100,0.02943654207
2.16150,0.3346309498
2.16200,0.9450197652
2.16250,1.555408581
2.16300,0.6398253575
2.16350,-0.2757578656
2.16400,-0.2757578656
2.16450,1.250214173
2.16500,2.470991804
2.16550,1.860602988
2.16600,0.6398253575
2.16650,0.02943654207
2.16700,-1.191341089
2.16750,-2.717313127
2.16800,-3.327701943
2.16850,-1.801729904
2.16900,0.02943654207
2.16950,0.02943654207
2.17000,-1.191341089
2.17050,-2.106924312
2.17100,-1.801729904
2.17150,-1.801729904
2.17200,-2.106924312
2.17250,-2.106924312
2.17300,-0.5809522733
2.17350,0.9450197652
2.17400,1.250214173
2.17450,0.6398253575
2.17500,0.3346309498
2.17550,0.9450197652
2.17600,1.250214173
2.17650,1.250214173
2.17700,0.9450197652
2.17750,0.9450197652
2.17800,1.555408581
2.17850,1.860602988
2.17900,1.860602988
2.17950,1.555408581
2.18000,1.860602988
2.18050,2.165797396
2.18100,1.860602988
2.18150,2.165797396
2.18200,2.470991804
2.18250,2.470991804
2.18300,1.250214173
2.18350,0.02943654207
2.18400,-1.191341089
2.18450,-1.191341089
2.18500,-0.2757578656
2.18550,0.9450197652
2.18600,1.860602988
2.18650,2.470991804
2.18700,2.470991804
2.18750,2.776186211
2.18800,2.776186211
2.18850,2.165797396
2.18900,0.02943654207
2.18950,-1.496535496
2.19000,-1.496535496
2.19050,-0.2757578656
2.19100,0.3346309498
2.19150,0.6398253575
2.19200,0.6398253575
2.19250,1.250214173
2.19300,1.250214173
2.19350,0.6398253575
2.19400,0.02943654207
2.19450,0.3346309498
2.19500,1.860602988
2.19550,2.776186211
2.19600,1.860602988
2.19650,0.02943654207
2.19700,-0.5809522733
2.19750,0.02943654207
2.19800,0.9450197652
2.19850,0.9450197652
2.19900,0.02943654207
2.19950,-1.496535496
2.20000,-1.496535496
2.20050,-1.191341089
2.20100,-1.496535496
2.20150,-2.106924312
2.20200,-1.496535496
2.20250,-0.5809522733
2.20300,-0.2757578656
2.20350,-1.496535496
2.20400,-3.327701943
2.20450,-3.63289635
2.20500,-3.327701943
2.20550,-3.022507535
2.20600,-2.106924312
2.20650,-1.191341089
2.20700,-1.191341089
2.20750,-3.022507535
2.20800,-3.938090758
2.20850,-3.022507535
2.20900,-1.496535496
2.20950,-1.191341089
2.21000,-2.41211872
2.21050,-3.022507535
2.21100,-2.717313127
2.21150,-3.022507535
2.21200,-3.63289635
2.21250,-3.63289635
2.21300,-2.41211872
2.21350,-1.801729904
2.21400,-3.022507535
2.21450,-4.853673981
2.21500,-5.158868389
2.21550,-3.938090758
2.21600,-2.41211872
2.21650,-1.801729904
2.21700,-1.801729904
2.21750,-2.41211872
2.21800,-2.717313127
2.21850,-2.717313127
2.21900,-2.717313127
2.21950,-2.717313127
2.22000,-2.41211872
2.22050,-1.496535496
2.22100,-0.886146681
2.22150,-0.886146681
2.22200,-1.191341089
2.22250,-1.191341089
2.22300,-0.5809522733
2.22350,-0.2757578656
2.22400,-0.2757578656
2.22450,-0.2757578656
2.22500,-0.886146681
2.22550,-2.41211872
2.22600,-3.327701943
2.22650,-2.41211872
2.22700,-0.886146681
2.22750,-0.886146681
2.22800,-2.106924312
2.22850,-2.106924312
2.22900,-0.886146681
2.22950,1.250214173
2.23000,2.776186211
2.23050,3.691769434
2.23100,4.607352658
2.23150,5.217741473
2.23200,6.133324696
2.23250,6.438519104
2.23300,4.912547065
2.23350,2.470991804
2.23400,1.555408581
2.23450,2.165797396
2.23500,3.386575027
2.23550,3.386575027
2.23600,2.165797396
2.23650,1.555408581
2.23700,1.250214173
2.23750,0.9450197652
2.23800,0.3346309498
2.23850,0.3346309498
2.23900,0.9450197652
2.23950,1.860602988
2.24000,2.776186211
2.24050,4.30215825
2.24100,4.912547065
2.24150,3.691769434
2.24200,2.470991804
2.24250,3.691769434
2.24300,5.828130288
2.24350,5.828130288
2.24400,3.081380619
2.24450,0.9450197652
2.24500,1.250214173
2.24550,1.555408581
2.24600,0.6398253575
2.24650,-0.2757578656
2.24700,0.02943654207
2.24750,0.6398253575
2.24800,0.3346309498
2.24850,-0.5809522733
2.24900,-0.886146681
2.24950,0.02943654207
2.25000,0.9450197652
2.25050,0.6398253575
2.25100,0.02943654207
2.25150,0.02943654207
2.25200,0.02943654207
2.25250,-0.5809522733
2.25300,-1.801729904
2.25350,-3.022507535
2.25400,-3.327701943
2.25450,-2.106924312
2.25500,-0.886146681
2.25550,0.02943654207
2.25600,1.250214173
2.25650,2.776186211
2.25700,4.30215825
2.25750,4.607352658
2.25800,3.691769434
2.25850,2.776186211
2.25900,3.081380619
2.25950,4.30215825
2.26000,4.607352658
2.26050,3.081380619
2.26100,1.555408581
2.26150,0.6398253575
2.26200,0.02943654207
2.26250,-0.2757578656
2.26300,-0.2757578656
2.26350,0.3346309498
2.26400,0.9450197652
2.26450,1.250214173
2.26500,0.6398253575
2.26550,0.6398253575
2.26600,1.250214173
2.26650,2.165797396
2.26700,2.165797396
2.26750,1.555408581
2.26800,1.250214173
2.26850,2.165797396
2.26900,4.607352658
2.26950,5.828130288
2.27000,4.912547065
2.27050,3.386575027
2.27100,3.081380619
2.27150,4.607352658
2.27200,5.522935881
2.27250,4.607352658
2.27300,3.081380619
2.27350,2.470991804
2.27400,2.470991804
2.27450,2.776186211
2.27500,3.996963842
2.27550,5.217741473
2.27600,6.133324696
2.27650,5.522935881
2.27700,5.217741473
2.27750,5.522935881
2.27800,6.133324696
2.27850,6.133324696
2.27900,5.828130288
2.27950,5.828130288
2.28000,5.828130288
2.28050,5.828130288
2.28100,5.522935881
2.28150,4.912547065
2.28200,3.996963842
2.28250,3.386575027
2.28300,3.081380619
2.28350,2.776186211
2.28400,0.9450197652
2.28450,-0.2757578656
2.28500,0.02943654207
2.28550,2.470991804
2.28600,4.607352658
2.28650,4.912547065
2.28700,4.607352658
2.28750,4.607352658
2.28800,4.912547065
2.28850,4.607352658
2.28900,3.996963842
2.28950,3.386575027
2.29000,2.776186211
2.29050,2.165797396
2.29100,1.555408581
2.29150,1.250214173
2.29200,1.555408581
2.29250,2.165797396
2.29300,2.776186211
2.29350,3.691769434
2.29400,3.386575027
2.29450,2.470991804
2.29500,1.555408581
2.29550,2.165797396
2.29600,2.776186211
2.29650,2.776186211
2.29700,1.860602988
2.29750,0.6398253575
2.29800,0.02943654207
2.29850,0.3346309498
2.29900,1.250214173
2.29950,1.250214173
2.30000,0.6398253575
2.30050,0.02943654207
2.30100,-0.2757578656
2.30150,-0.2757578656
2.30200,-0.886146681
2.30250,-1.496535496
2.30300,-1.496535496
2.30350,-0.886146681
2.30400,-0.886146681
2.30450,-0.5809522733
2.30500,-0.5809522733
2.30550,-0.886146681
2.30600,-2.106924312
2.30650,-3.327701943
2.30700,-3.327701943
2.30750,-2.41211872
2.30800,-2.106924312
2.30850,-1.801729904
2.30900,-0.886146681
2.30950,0.3346309498
2.31000,1.860602988
2.31050,2.470991804
2.31100,1.555408581
2.31150,-0.5809522733
2.31200,-3.022507535
2.31250,-4.243285166
2.31300,-2.717313127
2.31350,-1.191341089
2.31400,-1.191341089
2.31450,-1.496535496
2.31500,0.02943654207
2.31550,2.470991804
2.31600,3.386575027
2.31650,1.250214173
2.31700,-1.496535496
2.31750,-2.41211872
2.31800,-2.41211872
2.31850,-3.022507535
2.31900,-3.938090758
2.31950,-3.327701943
2.32000,-2.106924312
2.32050,-1.801729904
2.32100,-3.022507535
2.32150,-3.938090758
2.32200,-3.938090758
2.32250,-3.63289635
2.32300,-3.938090758
2.32350,-3.938090758
2.32400,-4.243285166
2.32450,-4.243285166
2.32500,-4.548479573
2.32550,-3.327701943
2.32600,-1.191341089
2.32650,0.02943654207
2.32700,0.02943654207
2.32750,-0.5809522733
2.32800,0.02943654207
2.32850,1.555408581
2.32900,2.165797396
2.32950,1.250214173
2.33000,0.02943654207
2.33050,-0.5809522733
2.33100,-1.191341089
2.33150,-2.106924312
2.33200,-2.41211872
2.33250,-2.106924312
2.33300,-1.496535496
2.33350,-1.496535496
2.33400,-1.801729904
2.33450,-2.106924312
2.33500,-2.106924312
2.33550,-2.106924312
2.33600,-2.106924312
2.33650,-2.41211872
2.33700,-3.022507535
2.33750,-3.022507535
2.33800,-2.106924312
2.33850,-1.801729904
2.33900,-1.801729904
2.33950,-2.41211872
2.34000,-2.106924312
2.34050,-1.191341089
2.34100,-1.191341089
2.34150,-1.801729904
2.34200,-2.41211872
2.34250,-1.801729904
2.34300,-1.801729904
2.34350,-3.022507535
2.34400,-4.243285166
2.34450,-3.63289635
2.34500,-1.496535496
2.34550,-0.2757578656
2.34600,-1.191341089
2.34650,-2.106924312
2.34700,-1.496535496
2.34750,-0.2757578656
2.34800,0.3346309498
2.34850,0.3346309498
2.34900,0.3346309498
2.34950,0.02943654207
2.35000,0.02943654207
2.35050,0.02943654207
2.35100,0.02943654207
2.35150,0.02943654207
2.35200,-0.886146681
2.35250,-1.801729904
2.35300,-1.801729904
2.35350,-1.801729904
2.35400,-2.106924312
2.35450,-2.41211872
2.35500,-1.191341089
2.35550,0.02943654207
2.35600,-0.2757578656
2.35650,-1.496535496
2.35700,-1.496535496
2.35750,0.02943654207
2.35800,0.02943654207
2.35850,-1.801729904
2.35900,-3.938090758
2.35950,-3.327701943
2.36000,-1.801729904
2.36050,-0.886146681
2.36100,-1.191341089
2.36150,-2.41211872
2.36200,-3.938090758
2.36250,-6.074451612
2.36300,-7.295229243
2.36350,-7.295229243
2.36400,-6.990034835
2.36450,-7.905618058
2.36500,-8.516006874
2.36550,-6.990034835
2.36600,-3.63289635
2.36650,-0.2757578656
2.36700,0.9450197652
2.36750,1.860602988
2.36800,2.470991804
2.36850,2.165797396
2.36900,1.250214173
2.36950,0.3346309498
2.37000,0.9450197652
2.37050,1.555408581
2.37100,1.860602988
2.37150,2.165797396
2.37200,4.607352658
2.37250,8.880074365
2.37300,11.62682403
2.37350,11.62682403
2.37400,9.795657589
2.37450,8.574879958
2.37500,9.185268773
2.37550,9.795657589
2.37600,8.880074365
2.37650,7.659296735
2.37700,7.659296735
2.37750,7.659296735
2.37800,7.354102327
2.37850,7.659296735
2.37900,8.880074365
2.37950,9.795657589
2.38000,9.490463181
2.38050,8.26968555
2.38100,7.354102327
2.38150,6.743713512
2.38200,5.217741473
2.38250,3.691769434
2.38300,3.691769434
2.38350,4.607352658
2.38400,4.30215825
2.38450,3.386575027
2.38500,2.470991804
2.38550,2.470991804
2.38600,1.860602988
2.38650,1.555408581
2.38700,2.165797396
2.38750,3.081380619
2.38800,3.081380619
2.38850,2.776186211
2.38900,2.470991804
2.38950,2.165797396
2.39000,1.555408581
2.39050,1.250214173
2.39100,1.860602988
2.39150,3.081380619
2.39200,3.691769434
2.39250,3.996963842
2.39300,4.30215825
2.39350,4.30215825
2.39400,3.386575027
2.39450,2.165797396
2.39500,1.860602988
2.39550,1.250214173
2.39600,0.02943654207
2.39650,-1.801729904
2.39700,-2.717313127
2.39750,-2.106924312
2.39800,-2.106924312
2.39850,-2.41211872
2.39900,-2.41211872
2.39950,-1.801729904
2.40000,-1.191341089
2.40050,-0.886146681
2.40100,-0.886146681
2.40150,-1.191341089
2.40200,-1.496535496
2.40250,-1.191341089
2.40300,-0.5809522733
2.40350,-0.2757578656
2.40400,-0.5809522733
2.40450,-1.191341089
2.40500,-1.496535496
2.40550,-0.5809522733
2.40600,0.3346309498
2.40650,0.3346309498
2.40700,-0.5809522733
2.40750,-1.801729904
2.40800,-2.717313127
2.40850,-3.327701943
2.40900,-3.327701943
2.40950,-2.717313127
2.41000,-1.191341089
2.41050,-0.5809522733
2.41100,-0.886146681
2.41150,-2.106924312
2.41200,-2.41211872
2.41250,-2.106924312
2.41300,-1.191341089
2.41350,-0.5809522733
2.41400,-0.886146681
2.41450,-1.801729904
2.41500,-2.41211872
2.41550,-2.717313127
2.41600,-2.41211872
2.41650,-2.717313127
2.41700,-3.022507535
2.41750,-2.717313127
2.41800,-1.496535496
2.41850,-0.886146681
2.41900,-1.801729904
2.41950,-3.327701943
2.42000,-3.938090758
2.42050,-3.327701943
2.42100,-2.106924312
2.42150,-0.2757578656
2.42200,1.860602988
2.42250,3.386575027
2.42300,3.081380619
2.42350,1.860602988
2.42400,1.250214173
2.42450,1.860602988
2.42500,2.470991804
2.42550,2.470991804
2.42600,1.860602988
2.42650,0.9450197652
2.42700,0.02943654207
2.42750,-0.5809522733
2.42800,-0.886146681
2.42850,-0.886146681
2.42900,-0.886146681
2.42950,-0.5809522733
2.43000,-0.2757578656
2.43050,0.02943654207
2.43100,-0.2757578656
2.43150,-1.191341089
2.43200,-2.106924312
2.43250,-2.717313127
2.43300,-3.327701943
2.43350,-3.022507535
2.43400,-1.801729904
2.43450,-1.496535496
2.43500,-2.41211872
2.43550,-3.022507535
2.43600,-2.106924312
2.43650,0.02943654207
2.43700,2.165797396
2.43750,2.470991804
2.43800,2.165797396
2.43850,2.470991804
2.43900,3.691769434
2.43950,4.912547065
2.44000,5.522935881
2.44050,5.522935881
2.44100,5.217741473
2.44150,4.607352658
2.44200,4.607352658
2.44250,4.30215825
2.44300,3.386575027
2.44350,2.165797396
2.44400,1.555408581
2.44450,0.6398253575
2.44500,-0.2757578656
2.44550,-0.886146681
2.44600,-0.886146681
2.44650,0.02943654207
2.44700,0.02943654207
2.44750,-0.886146681
2.44800,-2.106924312
2.44850,-2.717313127
2.44900,-3.327701943
2.44950,-4.243285166
2.45000,-4.853673981
2.45050,-4.243285166
2.45100,-2.717313127
2.45150,-1.191341089
2.45200,0.02943654207
2.45250,1.555408581
2.45300,3.386575027
2.45350,4.30215825
2.45400,3.996963842
2.45450,3.081380619
2.45500,2.776186211
2.45550,3.386575027
2.45600,4.30215825
2.45650,4.912547065
2.45700,5.522935881
2.45750,5.828130288
2.45800,6.133324696
2.45850,6.133324696
2.45900,5.522935881
2.45950,5.217741473
2.46000,5.217741473
2.46050,5.217741473
2.46100,5.522935881
2.46150,6.743713512
2.46200,7.964491142
2.46250,7.964491142
2.46300,7.048907919
2.46350,6.133324696
2.46400,5.828130288
2.46450,5.217741473
2.46500,3.996963842
2.46550,2.165797396
2.46600,0.6398253575
2.46650,0.02943654207
2.46700,-0.2757578656
2.46750,0.02943654207
2.46800,0.02943654207
2.46850,-0.2757578656
2.46900,-0.5809522733
2.46950,0.02943654207
2.47000,0.9450197652
2.47050,0.02943654207
2.47100,-0.886146681
2.47150,-0.2757578656
2.47200,0.9450197652
2.47250,0.6398253575
2.47300,-1.496535496
2.47350,-3.022507535
2.47400,-2.41211872
2.47450,-1.801729904
2.47500,-3.327701943
2.47550,-5.464062797
2.47600,-6.37964602
2.47650,-6.074451612
2.47700,-6.37964602
2.47750,-6.990034835
2.47800,-6.37964602
2.47850,-4.853673981
2.47900,-4.853673981
2.47950,-5.769257204
2.48000,-5.769257204
2.48050,-3.63289635
2.48100,-1.801729904
2.48150,-1.496535496
2.48200,-1.801729904
2.48250,-1.496535496
2.48300,-1.496535496
2.48350,-2.717313127
2.48400,-4.243285166
2.48450,-4.243285166
2.48500,-3.022507535
2.48550,-1.801729904
2.48600,-1.496535496
2.48650,-1.801729904
2.48700,-1.496535496
2.48750,-0.886146681
2.48800,0.02943654207
2.48850,0.02943654207
2.48900,0.02943654207
2.48950,0.02943654207
2.49000,0.6398253575
2.49050,0.6398253575
2.49100,0.6398253575
2.49150,0.9450197652
2.49200,1.860602988
2.49250,2.165797396
2.49300,1.555408581
2.49350,0.9450197652
2.49400,0.02943654207
2.49450,-0.2757578656
2.49500,-0.886146681
2.49550,-0.886146681
2.49600,-0.2757578656
2.49650,0.6398253575
2.49700,1.250214173
2.49750,0.02943654207
2.49800,-1.496535496
2.49850,-3.63289635
2.49900,-4.548479573
2.49950,-4.243285166
2.50000,-4.243285166
2.50050,-4.548479573
2.50100,-4.853673981
2.50150,-4.548479573
2.50200,-3.938090758
2.50250,-3.938090758
2.50300,-3.938090758
2.50350,-3.327701943
2.50400,-1.801729904
2.50450,-1.801729904
2.50500,-3.022507535
2.50550,-3.938090758
2.50600,-3.63289635
2.50650,-3.63289635
2.50700,-3.63289635
2.50750,-3.022507535
2.50800,-0.886146681
2.50850,0.3346309498
2.50900,0.02943654207
2.50950,-0.2757578656
2.51000,0.6398253575
2.51050,1.860602988
2.51100,1.250214173
2.51150,-0.2757578656
2.51200,-0.886146681
2.51250,-0.2757578656
2.51300,0.02943654207
2.51350,-0.2757578656
2.51400,-0.5809522733
2.51450,-0.2757578656
2.51500,0.02943654207
2.51550,0.02943654207
2.51600,-0.2757578656
2.51650,-0.5809522733
2.51700,-1.191341089
2.51750,-0.886146681
2.51800,0.3346309498
2.51850,1.860602988
2.51900,2.776186211
2.51950,3.081380619
2.52000,3.691769434
2.52050,3.691769434
2.52100,2.165797396
2.52150,0.02943654207
2.52200,-0.2757578656
2.52250,0.3346309498
2.52300,0.9450197652
2.52350,0.02943654207
2.52400,-0.5809522733
2.52450,0.02943654207
2.52500,0.6398253575
2.52550,0.6398253575
2.52600,0.02943654207
2.52650,-0.2757578656
2.52700,0.02943654207
2.52750,0.02943654207
2.52800,0.02943654207
2.52850,0.6398253575
2.52900,1.555408581
2.52950,2.165797396
2.53000,1.860602988
2.53050,1.860602988
2.53100,3.386575027
2.53150,5.522935881
2.53200,7.659296735
2.53250,9.185268773
2.53300,10.71124081
2.53350,11.62682403
2.53400,11.93201844
2.53450,11.62682403
2.53500,11.32162963
2.53550,10.71124081
2.53600,9.490463181
2.53650,8.26968555
2.53700,8.574879958
2.53750,10.71124081
2.53800,13.15279607
2.53850,13.15279607
2.53900,11.62682403
2.53950,9.795657589
2.54000,8.880074365
2.54050,7.659296735
2.54100,6.438519104
2.54150,5.828130288
2.54200,6.743713512
2.54250,7.354102327
2.54300,7.048907919
2.54350,6.133324696
2.54400,5.522935881
2.54450,4.607352658
2.54500,3.081380619
2.54550,1.555408581
2.54600,1.250214173
2.54650,1.555408581
2.54700,1.555408581
2.54750,1.250214173
2.54800,0.6398253575
2.54850,-1.191341089
2.54900,-4.853673981
2.54950,-8.516006874
2.55000,-9.736784504
2.55050,-9.126395689
2.55100,-8.516006874
2.55150,-10.04197891
2.55200,-12.17833977
2.55250,-13.09392299
2.55300,-11.87314536
2.55350,-10.04197891
2.55400,-7.905618058
2.55450,-6.37964602
2.55500,-6.37964602
2.55550,-7.295229243
2.55600,-8.821201281
2.55650,-10.65236773
2.55700,-12.78872858
2.55750,-14.61989503
2.55800,-15.84067266
2.55850,-15.53547825
2.55900,-14.92508944
2.55950,-14.61989503
2.56000,-13.7043118
2.56050,-11.56795095
2.56100,-9.126395689
2.56150,-9.736784504
2.56200,-12.48353417
2.56250,-14.92508944
2.56300,-14.61989503
2.56350,-12.78872858
2.56400,-10.34717332
2.56450,-8.210812466
2.56500,-6.990034835
2.56550,-6.990034835
2.56600,-7.60042365
2.56650,-7.295229243
2.56700,-6.684840427
2.56750,-6.37964602
2.56800,-7.60042365
2.56850,-7.905618058
2.56900,-5.464062797
2.56950,-1.801729904
2.57000,0.02943654207
2.57050,0.02943654207
2.57100,-0.5809522733
2.57150,-0.5809522733
2.57200,0.02943654207
2.57250,1.250214173
2.57300,1.860602988
2.57350,1.555408581
2.57400,0.6398253575
2.57450,-0.2757578656
2.57500,-0.2757578656
2.57550,0.02943654207
2.57600,0.02943654207
2.57650,0.3346309498
2.57700,0.3346309498
2.57750,0.02943654207
2.57800,-1.191341089
2.57850,-1.801729904
2.57900,-1.496535496
2.57950,-1.191341089
2.58000,-1.191341089
2.58050,-1.191341089
2.58100,-0.2757578656
2.58150,0.6398253575
2.58200,1.250214173
2.58250,2.165797396
2.58300,3.996963842
2.58350,5.522935881
2.58400,5.522935881
2.58450,3.996963842
2.58500,2.776186211
2.58550,2.470991804
2.58600,3.081380619
2.58650,3.996963842
2.58700,4.607352658
2.58750,4.607352658
2.58800,3.691769434
2.58850,2.776186211
2.58900,1.860602988
2.58950,1.250214173
2.59000,0.6398253575
2.59050,0.02943654207
2.59100,0.9450197652
2.59150,2.165797396
2.59200,2.165797396
2.59250,1.860602988
2.59300,1.860602988
2.59350,3.081380619
2.59400,3.386575027
2.59450,1.860602988
2.59500,0.02943654207
2.59550,-0.886146681
2.59600,-0.886146681
2.59650,-0.886146681
2.59700,-1.496535496
2.59750,-2.41211872
2.59800,-2.717313127
2.59850,-2.717313127
2.59900,-2.106924312
2.59950,-2.106924312
2.60000,-2.717313127
2.60050,-3.63289635
2.60100,-4.243285166
2.60150,-3.938090758
2.60200,-3.63289635
2.60250,-3.938090758
2.60300,-3.63289635
2.60350,-1.801729904
2.60400,0.6398253575
2.60450,2.470991804
2.60500,3.691769434
2.60550,3.996963842
2.60600,4.30215825
2.60650,4.30215825
2.60700,3.691769434
2.60750,3.386575027
2.60800,3.386575027
2.60850,3.081380619
2.60900,1.860602988
2.60950,0.6398253575
2.61000,0.02943654207
2.61050,-0.2757578656
2.61100,-0.2757578656
2.61150,0.3346309498
2.61200,1.250214173
2.61250,1.555408581
2.61300,1.250214173
2.61350,0.6398253575
2.61400,0.02943654207
2.61450,-0.2757578656
2.61500,-0.886146681
2.61550,0.02943654207
2.61600,1.555408581
2.61650,3.386575027
2.61700,3.691769434
2.61750,3.386575027
2.61800,3.081380619
2.61850,3.386575027
2.61900,3.081380619
2.61950,2.165797396
2.62000,1.250214173
2.62050,0.6398253575
2.62100,0.9450197652
2.62150,2.165797396
2.62200,3.386575027
2.62250,4.30215825
2.62300,3.996963842
2.62350,2.470991804
2.62400,0.02943654207
2.62450,-1.191341089
2.62500,-0.886146681
2.62550,0.02943654207
2.62600,0.02943654207
2.62650,-0.2757578656
2.62700,0.02943654207
2.62750,0.9450197652
2.62800,1.555408581
2.62850,0.6398253575
2.62900,0.02943654207
2.62950,-0.2757578656
2.63000,-0.2757578656
2.63050,-1.496535496
2.63100,-3.022507535
2.63150,-3.63289635
2.63200,-1.496535496
2.63250,1.250214173
2.63300,3.386575027
2.63350,3.996963842
2.63400,3.691769434
2.63450,3.996963842
2.63500,4.912547065
2.63550,4.912547065
2.63600,3.996963842
2.63650,2.470991804
2.63700,1.555408581
2.63750,2.165797396
2.63800,3.996963842
2.63850,4.912547065
2.63900,4.912547065
2.63950,5.217741473
2.64000,6.133324696
2.64050,7.354102327
2.64100,7.964491142
2.64150,7.659296735
2.64200,7.354102327
2.64250,7.048907919
2.64300,6.133324696
2.64350,4.607352658
2.64400,3.386575027
2.64450,3.386575027
2.64500,3.691769434
2.64550,3.996963842
2.64600,4.912547065
2.64650,5.828130288
2.64700,5.522935881
2.64750,3.081380619
2.64800,1.250214173
2.64850,1.250214173
2.64900,2.776186211
2.64950,3.386575027
2.65000,3.386575027
2.65050,3.081380619
2.65100,2.776186211
2.65150,1.555408581
2.65200,0.6398253575
2.65250,0.6398253575
2.65300,0.6398253575
2.65350,-0.2757578656
2.65400,-1.801729904
2.65450,-2.106924312
2.65500,-1.496535496
2.65550,-1.191341089
2.65600,-2.106924312
2.65650,-2.717313127
2.65700,-2.106924312
2.65750,-1.191341089
2.65800,-1.496535496
2.65850,-2.106924312
2.65900,-2.717313127
2.65950,-2.717313127
2.66000,-2.41211872
2.66050,-2.106924312
2.66100,-1.496535496
2.66150,-1.496535496
2.66200,-2.106924312
2.66250,-3.022507535
2.66300,-3.63289635
2.66350,-3.63289635
2.66400,-3.63289635
2.66450,-4.243285166
2.66500,-5.158868389
2.66550,-4.548479573
2.66600,-2.41211872
2.66650,-0.5809522733
2.66700,-0.2757578656
2.66750,-1.191341089
2.66800,-1.801729904
2.66850,-3.022507535
2.66900,-4.853673981
2.66950,-6.37964602
2.67000,-7.295229243
2.67050,-6.990034835
2.67100,-6.684840427
2.67150,-6.37964602
2.67200,-5.158868389
2.67250,-3.63289635
2.67300,-2.106924312
2.67350,-1.191341089
2.67400,-0.886146681
2.67450,-0.886146681
2.67500,-2.106924312
2.67550,-3.327701943
2.67600,-3.63289635
2.67650,-2.41211872
2.67700,-0.2757578656
2.67750,0.9450197652
2.67800,1.250214173
2.67850,1.250214173
2.67900,2.165797396
2.67950,3.081380619
2.68000,3.081380619
2.68050,2.165797396
2.68100,1.860602988
2.68150,2.165797396
2.68200,1.860602988
2.68250,0.3346309498
2.68300,-0.5809522733
2.68350,0.02943654207
2.68400,1.860602988
2.68450,2.165797396
2.68500,0.02943654207
2.68550,-1.191341089
2.68600,-0.886146681
2.68650,-0.5809522733
2.68700,-1.496535496
2.68750,-2.41211872
2.68800,-2.41211872
2.68850,-2.106924312
2.68900,-2.717313127
2.68950,-3.022507535
2.69000,-2.41211872
2.69050,-1.191341089
2.69100,-1.496535496
2.69150,-2.41211872
2.69200,-2.106924312
2.69250,-0.2757578656
2.69300,0.02943654207
2.69350,-0.5809522733
2.69400,-2.106924312
2.69450,-2.106924312
2.69500,0.02943654207
2.69550,2.470991804
2.69600,3.081380619
2.69650,1.250214173
2.69700,-0.886146681
2.69750,-2.106924312
2.69800,-1.496535496
2.69850,-0.886146681
2.69900,-1.191341089
2.69950,-2.106924312
2.70000,-3.022507535
2.70050,-3.938090758
2.70100,-4.853673981
2.70150,-4.548479573
2.70200,-3.022507535
2.70250,-1.496535496
2.70300,-1.191341089
2.70350,-2.41211872
2.70400,-2.717313127
2.70450,-1.496535496
2.70500,-0.2757578656
2.70550,-0.5809522733
2.70600,-2.106924312
2.70650,-2.106924312
2.70700,-0.886146681
2.70750,0.02943654207
2.70800,0.3346309498
2.70850,1.555408581
2.70900,3.691769434
2.70950,5.522935881
2.71000,5.217741473
2.71050,4.30215825
2.71100,4.30215825
2.71150,5.217741473
2.71200,5.217741473
2.71250,3.996963842
2.71300,3.386575027
2.71350,3.081380619
2.71400,2.165797396
2.71450,1.250214173
2.71500,1.555408581
2.71550,3.691769434
2.71600,5.217741473
2.71650,4.30215825
2.71700,2.470991804
2.71750,1.860602988
2.71800,2.165797396
2.71850,2.165797396
2.71900,1.860602988
2.71950,2.776186211
2.72000,3.996963842
2.72050,4.30215825
2.72100,3.996963842
2.72150,4.912547065
2.72200,6.133324696
2.72250,5.217741473
2.72300,2.470991804
2.72350,0.02943654207
2.72400,-0.886146681
2.72450,-1.496535496
2.72500,-2.717313127
2.72550,-3.022507535
2.72600,-1.801729904
2.72650,-0.2757578656
2.72700,0.3346309498
2.72750,0.9450197652
2.72800,2.470991804
2.72850,3.691769434
2.72900,3.691769434
2.72950,2.470991804
2.73000,1.860602988
2.73050,1.860602988
2.73100,1.555408581
2.73150,1.250214173
2.73200,1.860602988
2.73250,3.081380619
2.73300,4.30215825
2.73350,4.30215825
2.73400,3.996963842
2.73450,3.691769434
2.73500,3.691769434
2.73550,3.386575027
2.73600,2.776186211
2.73650,2.776186211
2.73700,3.081380619
2.73750,1.860602988
2.73800,0.02943654207
2.73850,-1.496535496
2.73900,-2.41211872
2.73950,-2.717313127
2.74000,-2.41211872
2.74050,-1.801729904
2.74100,-0.886146681
2.74150,-0.2757578656
2.74200,-0.5809522733
2.74250,-0.886146681
2.74300,-0.886146681
2.74350,-0.886146681
2.74400,-1.801729904
2.74450,-2.717313127
2.74500,-3.022507535
2.74550,-3.63289635
2.74600,-4.243285166
2.74650,-4.853673981
2.74700,-4.853673981
2.74750,-5.158868389
2.74800,-6.074451612
2.74850,-7.60042365
2.74900,-7.905618058
2.74950,-7.295229243
2.75000,-6.074451612
2.75050,-6.074451612
2.75100,-6.37964602
2.75150,-5.769257204
2.75200,-4.243285166
2.75250,-2.717313127
2.75300,-2.717313127
2.75350,-3.327701943
2.75400,-3.63289635
2.75450,-3.022507535
2.75500,-2.717313127
2.75550,-3.327701943
2.75600,-3.938090758
2.75650,-3.938090758
2.75700,-3.938090758
2.75750,-4.243285166
2.75800,-4.548479573
2.75850,-3.63289635
2.75900,-2.41211872
2.75950,-1.801729904
2.76000,-1.191341089
2.76050,-0.2757578656
2.76100,1.250214173
2.76150,2.165797396
2.76200,2.165797396
2.76250,1.250214173
2.76300,0.6398253575
2.76350,0.02943654207
2.76400,0.02943654207
2.76450,-0.2757578656
2.76500,-0.2757578656
2.76550,0.02943654207
2.76600,0.6398253575
2.76650,1.250214173
2.76700,0.6398253575
2.76750,-0.2757578656
2.76800,-0.5809522733
2.76850,0.02943654207
2.76900,0.02943654207
2.76950,-0.5809522733
2.77000,-1.496535496
2.77050,-2.106924312
2.77100,-2.717313127
2.77150,-3.327701943
2.77200,-3.938090758
2.77250,-3.63289635
2.77300,-3.63289635
2.77350,-3.63289635
2.77400,-3.022507535
2.77450,-2.106924312
2.77500,-2.106924312
2.77550,-3.63289635
2.77600,-4.243285166
2.77650,-3.327701943
2.77700,-3.022507535
2.77750,-3.938090758
2.77800,-4.243285166
2.77850,-2.717313127
2.77900,-1.496535496
2.77950,-2.106924312
2.78000,-3.938090758
2.78050,-4.853673981
2.78100,-4.548479573
2.78150,-3.63289635
2.78200,-3.327701943
2.78250,-3.327701943
2.78300,-3.938090758
2.78350,-4.548479573
2.78400,-4.548479573
2.78450,-3.63289635
2.78500,-3.327701943
2.78550,-3.327701943
2.78600,-3.327701943
2.78650,-3.022507535
2.78700,-3.022507535
2.78750,-3.327701943
2.78800,-3.327701943
2.78850,-2.106924312
2.78900,-1.496535496
2.78950,-2.106924312
2.79000,-2.41211872
2.79050,-1.191341089
2.79100,0.02943654207
2.79150,-0.5809522733
2.79200,-2.106924312
2.79250,-3.022507535
2.79300,-2.717313127
2.79350,-1.801729904
2.79400,-1.191341089
2.79450,-0.886146681
2.79500,-0.2757578656
2.79550,0.02943654207
2.79600,0.02943654207
2.79650,0.02943654207
2.79700,0.02943654207
2.79750,-0.5809522733
2.79800,-1.191341089
2.79850,-1.191341089
2.79900,-0.886146681
2.79950,-0.886146681
2.80000,-1.191341089
2.80050,-0.2757578656
2.80100,1.555408581
2.80150,2.776186211
2.80200,2.470991804
2.80250,1.555408581
2.80300,0.9450197652
2.80350,0.3346309498
2.80400,0.02943654207
2.80450,0.02943654207
2.80500,0.9450197652
2.80550,0.9450197652
2.80600,-0.2757578656
2.80650,-1.801729904
2.80700,-0.886146681
2.80750,1.250214173
2.80800,2.165797396
2.80850,1.555408581
2.80900,1.250214173
2.80950,1.860602988
2.81000,1.860602988
2.81050,0.9450197652
2.81100,0.02943654207
2.81150,0.3346309498
2.81200,1.555408581
2.81250,2.165797396
2.81300,1.555408581
2.81350,0.6398253575
2.81400,-0.2757578656
2.81450,-1.191341089
2.81500,-1.496535496
2.81550,-1.801729904
2.81600,-2.717313127
2.81650,-3.938090758
2.81700,-3.63289635
2.81750,-1.801729904
2.81800,0.3346309498
2.81850,2.165797396
2.81900,3.996963842
2.81950,5.828130288
2.82000,7.964491142
2.82050,9.490463181
2.82100,10.100852
2.82150,9.490463181
2.82200,7.964491142
2.82250,6.438519104
2.82300,5.217741473
2.82350,3.996963842
2.82400,2.776186211
2.82450,2.470991804
2.82500,2.165797396
2.82550,1.860602988
2.82600,0.9450197652
2.82650,0.6398253575
2.82700,1.250214173
2.82750,1.860602988
2.82800,1.555408581
2.82850,1.860602988
2.82900,3.996963842
2.82950,6.438519104
2.83000,7.659296735
2.83050,7.048907919
2.83100,7.048907919
2.83150,7.964491142
2.83200,7.964491142
2.83250,7.354102327
2.83300,6.133324696
2.83350,5.217741473
2.83400,4.30215825
2.83450,4.30215825
2.83500,5.217741473
2.83550,6.438519104
2.83600,6.438519104
2.83650,4.912547065
2.83700,3.386575027
2.83750,3.081380619
2.83800,3.081380619
2.83850,2.470991804
2.83900,2.470991804
2.83950,3.081380619
2.84000,3.386575027
2.84050,2.776186211
2.84100,2.165797396
2.84150,3.081380619
2.84200,3.996963842
2.84250,3.386575027
2.84300,1.555408581
2.84350,0.02943654207
2.84400,-0.2757578656
2.84450,0.3346309498
2.84500,1.555408581
2.84550,2.776186211
2.84600,3.386575027
2.84650,3.386575027
2.84700,3.386575027
2.84750,2.776186211
2.84800,1.860602988
2.84850,0.9450197652
2.84900,0.9450197652
2.84950,1.555408581
2.85000,1.555408581
2.85050,0.6398253575
2.85100,0.02943654207
2.85150,0.6398253575
2.85200,1.860602988
2.85250,2.470991804
2.85300,2.165797396
2.85350,1.555408581
2.85400,0.02943654207
2.85450,-1.496535496
2.85500,-2.41211872
2.85550,-1.801729904
2.85600,-1.191341089
2.85650,-1.496535496
2.85700,-1.496535496
2.85750,-0.5809522733
2.85800,0.02943654207
2.85850,0.02943654207
2.85900,0.02943654207
2.85950,0.02943654207
2.86000,-0.5809522733
2.86050,-2.717313127
2.86100,-3.938090758
2.86150,-3.327701943
2.86200,-2.106924312
2.86250,-2.106924312
2.86300,-1.801729904
2.86350,0.02943654207
2.86400,1.555408581
2.86450,1.555408581
2.86500,0.02943654207
2.86550,-0.2757578656
2.86600,0.02943654207
2.86650,0.02943654207
2.86700,-0.2757578656
2.86750,-0.2757578656
2.86800,0.02943654207
2.86850,0.02943654207
2.86900,-0.2757578656
2.86950,-0.5809522733
2.87000,-0.5809522733
2.87050,-1.496535496
2.87100,-2.106924312
2.87150,-1.801729904
2.87200,-0.886146681
2.87250,0.02943654207
2.87300,0.9450197652
2.87350,1.555408581
2.87400,1.555408581
2.87450,0.02943654207
2.87500,-0.5809522733
2.87550,-0.5809522733
2.87600,0.02943654207
2.87650,0.02943654207
2.87700,0.02943654207
2.87750,0.02943654207
2.87800,0.3346309498
2.87850,0.02943654207
2.87900,-0.2757578656
2.87950,0.02943654207
2.88000,0.02943654207
2.88050,-1.191341089
2.88100,-3.327701943
2.88150,-3.938090758
2.88200,-3.327701943
2.88250,-3.022507535
2.88300,-3.327701943
2.88350,-3.022507535
2.88400,-1.801729904
2.88450,-0.5809522733
2.88500,0.02943654207
2.88550,0.6398253575
2.88600,0.6398253575
2.88650,0.02943654207
2.88700,-0.886146681
2.88750,-0.5809522733
2.88800,-0.2757578656
2.88850,-1.191341089
2.88900,-3.327701943
2.88950,-4.853673981
2.89000,-4.243285166
2.89050,-2.106924312
2.89100,0.6398253575
2.89150,3.081380619
2.89200,4.912547065
2.89250,6.743713512
2.89300,8.26968555
2.89350,8.574879958
2.89400,7.659296735
2.89450,6.438519104
2.89500,7.048907919
2.89550,7.964491142
2.89600,7.659296735
2.89650,5.828130288
2.89700,4.912547065
2.89750,5.828130288
2.89800,7.048907919
2.89850,7.048907919
2.89900,6.133324696
2.89950,5.217741473
2.90000,3.691769434
2.90050,2.470991804
2.90100,3.081380619
2.90150,4.912547065
2.90200,7.048907919
2.90250,7.659296735
2.90300,7.659296735
2.90350,7.354102327
2.90400,6.133324696
2.90450,3.996963842
2.90500,2.165797396
2.90550,2.165797396
2.90600,2.776186211
2.90650,2.470991804
2.90700,1.860602988
2.90750,2.165797396
2.90800,2.165797396
2.90850,1.555408581
2.90900,0.3346309498
2.90950,-0.5809522733
2.91000,-1.191341089
2.91050,-0.886146681
2.91100,0.9450197652
2.91150,3.081380619
2.91200,2.776186211
2.91250,0.6398253575
2.91300,0.02943654207
2.91350,1.555408581
2.91400,2.776186211
2.91450,1.555408581
2.91500,0.02943654207
2.91550,0.3346309498
2.91600,1.860602988
2.91650,2.470991804
2.91700,1.860602988
2.91750,1.860602988
2.91800,3.081380619
2.91850,3.691769434
2.91900,3.081380619
2.91950,2.165797396
2.92000,1.555408581
2.92050,0.3346309498
2.92100,0.02943654207
2.92150,0.02943654207
