type,name,time_units,begin_time,frequency,count,units
signal_3d,"Noraxon MyoMotion-Trajectories-Radial styloid process RT","s",0.0000,200,5128,"mm"

time,x,y,z
0.0000,-140.7922604,165.7721192,902.2521476
0.0050,-140.7297087,165.6321433,902.2632186
0.0100,-140.6670137,165.4922407,902.274374
0.0150,-140.6041754,165.3524114,902.2856138
0.0200,-140.5353569,165.2010594,902.2979051
0.0250,-140.4608024,165.0390995,902.3112046
0.0300,-140.3808577,164.8676879,902.3254479
0.0350,-140.29596,164.6881942,902.3405496
0.0400,-140.2066269,164.5021663,902.3564043
0.0450,-140.1134416,164.3112884,902.372888
0.0500,-140.0170358,164.1173319,902.3898604
0.0550,-139.9180758,163.9221072,902.4071675
0.0600,-139.817243,163.7274148,902.4246439
0.0650,-139.7152071,163.5349965,902.4421149
0.0700,-139.612605,163.3464919,902.4594
0.0750,-139.51003,163.1634039,902.4763164
0.0800,-139.4080213,162.9870759,902.4926833
0.0850,-139.3070494,162.8186791,902.5083239
0.0900,-139.2075007,162.6592106,902.523066
0.0950,-139.109666,162.5095018,902.5367435
0.1000,-139.0137398,162.370229,902.5491983
0.1050,-138.9198354,162.241925,902.5602832
0.1100,-138.8280062,162.1249995,902.5698657
0.1150,-138.7382627,162.0197665,902.5778289
0.1200,-138.6505849,161.9264669,902.5840726
0.1250,-138.5649388,161.8452777,902.588516
0.1300,-138.4812965,161.7763092,902.591101
0.1350,-138.3996521,161.719596,902.5917964
0.1400,-138.3200318,161.6750835,902.5906004
0.1450,-138.2424984,161.6426102,902.5875429
0.1500,-138.1671482,161.621891,902.5826865
0.1550,-137.9927472,161.4812155,902.5825357
0.1600,-137.8211854,161.3516149,902.580891
0.1650,-137.6519359,161.2306713,902.5778988
0.1700,-137.4863056,161.118772,902.5737546
0.1750,-137.325286,161.0147258,902.5687118
0.1800,-137.1681153,160.9172181,902.5627944
0.1850,-137.0158358,160.8260641,902.5561601
0.1900,-136.8679331,160.7390681,902.5490945
0.1950,-136.726312,160.6561945,902.5418184
0.2000,-136.5895355,160.5751853,902.5343967
0.2050,-136.4582695,160.4954431,902.5271173
0.2100,-136.3337828,160.4161473,902.5202305
0.2150,-136.2151638,160.3365502,902.5137064
0.2200,-136.1003452,160.255508,902.5075477
0.2250,-135.9916611,160.1722446,902.5020481
0.2300,-135.8883892,160.0855697,902.4974234
0.2350,-135.7899506,159.9944325,902.4937209
0.2400,-135.6967724,159.898566,902.4910784
0.2450,-135.6091938,159.7973405,902.489679
0.2500,-135.5251596,159.6907144,902.4893066
0.2550,-135.4442197,159.5781399,902.4899812
0.2600,-135.3677209,159.4592111,902.491991
0.2650,-135.2957463,159.3325138,902.4954112
0.2700,-135.2271634,159.1984488,902.5001611
0.2750,-135.1618827,159.0575232,902.5061783
0.2800,-135.1013583,158.9097175,902.5136335
0.2850,-135.0445967,158.753541,902.5225888
0.2900,-134.992307,158.5901703,902.5329961
0.2950,-134.9442028,158.4182425,902.5449673
0.3000,-134.9006153,158.2390361,902.5583371
0.3050,-134.8634214,158.052529,902.5733953
0.3100,-134.8323304,157.8581945,902.5901045
0.3150,-134.8080768,157.6565822,902.6084055
0.3200,-134.7917307,157.4492881,902.628316
0.3250,-134.7834256,157.2358105,902.6498324
0.3300,-134.7818952,157.0161275,902.6726909
0.3350,-134.7883268,156.790641,902.696993
0.3400,-134.8024381,156.5614832,902.7224561
0.3450,-134.8260445,156.3271704,902.7494219
0.3500,-134.8595135,156.0889602,902.7778489
0.3550,-134.9024534,155.8477242,902.8075468
0.3600,-134.9546592,155.6037663,902.8384073
0.3650,-135.0170514,155.35729,902.8705741
0.3700,-135.0895606,155.1085562,902.9040337
0.3750,-135.1723986,154.8592798,902.9387277
0.3800,-135.2646422,154.6094529,902.974554
0.3850,-135.3668653,154.3587382,903.0116504
0.3900,-135.479013,154.1078092,903.0499096
0.3950,-135.5993951,153.8559743,903.0893653
0.4000,-135.7292394,153.6038155,903.1301312
0.4050,-135.8672216,153.351597,903.1721437
0.4100,-136.0118747,153.0993736,903.2152466
0.4150,-136.163344,152.8475413,903.2594889
0.4200,-136.3209225,152.5959026,903.3048894
0.4250,-136.483467,152.3437776,903.3514615
0.4300,-136.6518519,152.0929566,903.3991125
0.4350,-136.8245177,151.8421002,903.4478557
0.4400,-137.0013771,151.5926,903.497568
0.4450,-137.1822727,151.3438961,903.5482699
0.4500,-137.3676561,151.096062,903.6000014
0.4550,-137.5565942,150.8510572,903.6524533
0.4600,-137.7489152,150.6073114,903.7058278
0.4650,-137.9446715,150.3678949,903.7597777
0.4700,-138.1431073,150.1318603,903.8143072
0.4750,-138.3436389,149.8992476,903.8693619
0.4800,-138.5476542,149.6705338,903.9250872
0.4850,-138.7541123,149.4441418,903.9814624
0.4900,-138.9640937,149.2211004,904.03839
0.4950,-139.1766634,149.0017906,904.0957603
0.5000,-139.3925417,148.7867573,904.1535541
0.5050,-139.6117939,148.5761279,904.2117512
0.5100,-139.8327141,148.3687135,904.2701164
0.5150,-140.0565473,148.1649478,904.3289007
0.5200,-140.2824285,147.9653331,904.387764
0.5250,-140.5097273,147.7695623,904.4466157
0.5300,-140.7367552,147.5775101,904.5052206
0.5350,-140.9648004,147.3898479,904.5636269
0.5400,-141.191816,147.2052651,904.6215634
0.5450,-141.4177456,147.0248097,904.6788707
0.5500,-141.6433232,146.850038,904.7354398
0.5550,-141.867952,146.6797361,904.7912511
0.5600,-142.0914159,146.5145613,904.8461096
0.5650,-142.312075,146.3543579,904.8997444
0.5700,-142.5315786,146.2007106,904.9521131
0.5750,-142.7489462,146.0526146,905.0030891
0.5800,-142.9643706,145.909397,905.0527818
0.5850,-143.1777781,145.7715068,905.101081
0.5900,-143.3881997,145.6376092,905.1479441
0.5950,-143.5960349,145.5058062,905.1937212
0.6000,-143.8014728,145.3752143,905.2386358
0.6050,-144.0027532,145.2445501,905.2825687
0.6100,-144.2001808,145.114058,905.3256163
0.6150,-144.3929097,144.9830173,905.3679688
0.6200,-144.5795933,144.8502576,905.4096032
0.6250,-144.759835,144.7156453,905.450569
0.6300,-144.9332523,144.5790333,905.4910362
0.6350,-145.0998495,144.4391716,905.5312749
0.6400,-145.2592124,144.2942952,905.5716229
0.6450,-145.4099742,144.1456702,905.6118122
0.6500,-145.5517474,143.9925909,905.6519119
0.6550,-145.6849937,143.8339409,905.6922248
0.6600,-145.8087817,143.6695348,905.7327423
0.6650,-145.9236243,143.4996979,905.7734941
0.6700,-146.0303241,143.3227645,905.8148125
0.6750,-146.1288021,143.1379865,905.8567422
0.6800,-146.2220995,142.9438631,905.9000192
0.6850,-146.310645,142.7418019,905.944571
0.6900,-146.3952502,142.5306761,905.9907511
0.6950,-146.4770763,142.3099496,906.0388302
0.7000,-146.555397,142.0797069,906.0888784
0.7050,-146.630826,141.839307,906.1410887
0.7100,-146.7042081,141.5877758,906.1957063
0.7150,-146.7735506,141.3251515,906.25271
0.7200,-146.8393747,141.0526135,906.3119685
0.7250,-146.901265,140.7699789,906.3735393
0.7300,-146.9579041,140.4758471,906.4376395
0.7350,-147.0099637,140.1723907,906.5041721
0.7400,-147.0575148,139.8586956,906.5733721
0.7450,-147.0994346,139.5363996,906.6449667
0.7500,-147.136582,139.2054711,906.7191321
0.7550,-147.1694165,138.866517,906.795935
0.7600,-147.1993629,138.5217582,906.8754402
0.7650,-147.2273989,138.1708725,906.9579479
0.7700,-147.254378,137.8145721,907.0434072
0.7750,-147.2825379,137.4544941,907.1319976
0.7800,-147.3110596,137.0904124,907.2236874
0.7850,-147.3409199,136.72299,907.3185624
0.7900,-147.3724995,136.354246,907.4164887
0.7950,-147.4071864,135.9837332,907.5175917
0.8000,-147.4454425,135.612004,907.6218718
0.8050,-147.4871039,135.2390568,907.7292393
0.8100,-147.5340272,134.8668925,907.8396804
0.8150,-147.5862708,134.4958736,907.9529661
0.8200,-147.6456196,134.1258125,908.0693862
0.8250,-147.7129819,133.7573108,908.1890292
0.8300,-147.7906608,133.3914164,908.3119974
0.8350,-147.8776951,133.0280496,908.438085
0.8400,-147.9765206,132.6700054,908.5673111
0.8450,-148.0867931,132.3159695,908.6997658
0.8500,-148.2088359,131.9660055,908.8354618
0.8550,-148.3423852,131.6204819,908.9742926
0.8600,-148.4866544,131.2789733,909.1161799
0.8650,-148.6421135,130.942222,909.2612343
0.8700,-148.8079298,130.6094261,909.4091892
0.8750,-148.9839757,130.2804271,909.5602384
0.8800,-149.1701387,129.9558297,909.7140754
0.8850,-149.3680357,129.6357975,909.8709044
0.8900,-149.5787944,129.3213201,910.0308556
0.8950,-149.8038527,129.0138698,910.1938361
0.9000,-150.0430993,128.7131497,910.3597405
0.9050,-150.2979139,128.4202,910.5286641
0.9100,-150.5699762,128.1346904,910.7007776
0.9150,-150.8578555,127.8562113,910.8757732
0.9200,-151.1631759,127.5835992,911.0541422
0.9250,-151.4859928,127.3159862,911.2358828
0.9300,-151.8264069,127.0524179,911.4211861
0.9350,-152.1834678,126.7918234,911.6100678
0.9400,-152.5571882,126.5338802,911.8028695
0.9450,-152.9460143,126.2766309,911.9997002
0.9500,-153.3496962,126.0197583,912.2008607
0.9550,-153.7677139,125.762598,912.4067821
0.9600,-154.1988164,125.5037333,912.6178012
0.9650,-154.6418982,125.2429485,912.8341279
0.9700,-155.0958306,124.9805266,913.0559265
0.9750,-155.5598108,124.716685,913.2835443
0.9800,-156.0314058,124.4517446,913.5168357
0.9850,-156.5105694,124.1855555,913.7560761
0.9900,-156.997141,123.9186022,914.0012943
0.9950,-157.4910447,123.6508114,914.2525312
1.0000,-157.9934258,123.3826614,914.509879
1.0050,-158.5057484,123.1156379,914.773021
1.0100,-159.028086,122.8493369,915.0423882
1.0150,-159.5636871,122.5848017,915.3179492
1.0200,-160.1126026,122.3219919,915.5998407
1.0250,-160.6765291,122.0609521,915.8882811
1.0300,-161.2568107,121.8024828,916.1832038
1.0350,-161.8540766,121.5464467,916.4847478
1.0400,-162.469765,121.2924601,916.7931092
1.0450,-163.104465,121.0400972,917.10865
1.0500,-163.757132,120.789417,917.4312525
1.0550,-164.4278798,120.5398341,917.7614878
1.0600,-165.1157126,120.2916422,918.0989055
1.0650,-165.8201729,120.0432927,918.4440819
1.0700,-166.539564,119.7942887,918.7973925
1.0750,-167.2726172,119.5432638,919.1589109
1.0800,-168.0192224,119.2896384,919.5290227
1.0850,-168.7788841,119.0344528,919.9077887
1.0900,-169.5509095,118.7754041,920.2959825
1.0950,-170.3342983,118.5118244,920.6939844
1.1000,-171.1292484,118.2440033,921.1022641
1.1050,-171.9355484,117.9712006,921.5211681
1.1100,-172.7536036,117.6928294,921.9513716
1.1150,-173.583518,117.4098543,922.3929722
1.1200,-174.4257122,117.1217408,922.8463785
1.1250,-175.2781473,116.8288737,923.3113205
1.1300,-176.1406995,116.5322507,923.7874673
1.1350,-177.0146219,116.2326481,924.2751828
1.1400,-177.898646,115.9293128,924.7741686
1.1450,-178.7936531,115.6231238,925.2841938
1.1500,-179.698816,115.3138227,925.8051268
1.1550,-180.6147344,115.0018456,926.3366114
1.1600,-181.5423208,114.6880732,926.8786066
1.1650,-182.4825884,114.3740909,927.4305917
1.1700,-183.4362753,114.0594599,927.9929823
1.1750,-184.4035576,113.7445556,928.5653815
1.1800,-185.3845373,113.4301622,929.1477178
1.1850,-186.3775561,113.1156262,929.7395458
1.1900,-187.383174,112.8007635,930.3408254
1.1950,-188.4001403,112.4856692,930.9511911
1.2000,-189.4279981,112.1685671,931.5710191
1.2050,-190.4658554,111.8508416,932.1998906
1.2100,-191.5119492,111.5308715,932.8381537
1.2150,-192.5669405,111.208215,933.4858695
1.2200,-193.6294362,110.8833557,934.1429822
1.2250,-194.6989905,110.5566091,934.8096337
1.2300,-195.7737783,110.2277527,935.4854139
1.2350,-196.8543841,109.8973943,936.1706869
1.2400,-197.9404605,109.5656868,936.8649415
1.2450,-199.0317121,109.2343165,937.568158
1.2500,-200.1281059,108.9036249,938.2800811
1.2550,-201.2295548,108.5753065,939.0003147
1.2600,-202.3368774,108.2490272,939.728982
1.2650,-203.4510885,107.9258716,940.4662167
1.2700,-204.5721719,107.607384,941.2117987
1.2750,-205.7005507,107.2923236,941.9658525
1.2800,-206.836065,106.9811794,942.7283693
1.2850,-207.9783969,106.6732564,943.4992001
1.2900,-209.1261176,106.3685151,944.2785527
1.2950,-210.2788592,106.0670444,945.066431
1.3000,-211.4355896,105.7675716,945.8632
1.3050,-212.5951627,105.4695146,946.6693649
1.3100,-213.7565684,105.1730155,947.4846283
1.3150,-214.9196261,104.8786025,948.3095905
1.3200,-216.0842422,104.5850224,949.1444701
1.3250,-217.2505408,104.2955587,949.9891992
1.3300,-218.4183941,104.0096129,950.844166
1.3350,-219.5877966,103.7278005,951.7092805
1.3400,-220.7590174,103.4503857,952.5855656
1.3450,-221.9317106,103.1765238,953.4728441
1.3500,-223.1055427,102.9077768,954.3713046
1.3550,-224.2819956,102.642719,955.2816319
1.3600,-225.4605364,102.3805456,956.2043159
1.3650,-226.6411912,102.1212288,957.1394934
1.3700,-227.8251316,101.8653364,958.0872758
1.3750,-229.0120702,101.6121094,959.048453
1.3800,-230.2020026,101.3623625,960.0229741
1.3850,-231.3959653,101.1165235,961.0113377
1.3900,-232.5952042,100.8727469,962.0140605
1.3950,-233.7998764,100.6334707,963.0310554
1.4000,-235.0109329,100.3972761,964.0625536
1.4050,-236.2286072,100.1654641,965.1089217
1.4100,-237.4520974,99.93636343,966.1698976
1.4150,-238.6812246,99.71020905,967.2453969
1.4200,-239.914003,99.48735459,968.3353646
1.4250,-241.151824,99.26825779,969.4395302
1.4300,-242.3938434,99.05099462,970.5582768
1.4350,-243.6392688,98.83596393,971.6908926
1.4400,-244.8878359,98.62249535,972.8369587
1.4450,-246.1379883,98.41042465,973.9959491
1.4500,-247.3901767,98.20131227,975.1675548
1.4550,-248.6431388,97.99501227,976.3512693
1.4600,-249.8953323,97.79235444,977.5455945
1.4650,-251.146226,97.59203077,978.7505849
1.4700,-252.3936109,97.3950477,979.9651015
1.4750,-253.6359021,97.20048199,981.1887713
1.4800,-254.8720303,97.00874157,982.4211139
1.4850,-256.101304,96.81938894,983.6622524
1.4900,-257.3217345,96.63117246,984.9117626
1.4950,-258.531567,96.44320176,986.1694878
1.5000,-259.7299709,96.2554238,987.4350961
1.5050,-260.916633,96.06860128,988.7085087
1.5100,-262.090531,95.88159702,989.9889421
1.5150,-263.2510375,95.69575092,991.2769107
1.5200,-264.3984786,95.51030275,992.5719801
1.5250,-265.531913,95.32596045,993.8737322
1.5300,-266.6520793,95.14225255,995.1827701
1.5350,-267.7580242,94.95963344,996.4982266
1.5400,-268.8495084,94.77958835,997.8202112
1.5450,-269.9263151,94.59986134,999.149678
1.5500,-270.9890544,94.4205796,1000.486882
1.5550,-272.0370959,94.24044115,1001.831565
1.5600,-273.0706681,94.05961382,1003.184029
1.5650,-274.0894733,93.87813043,1004.5441
1.5700,-275.0943585,93.69400038,1005.9123
1.5750,-276.0853987,93.50940076,1007.288081
1.5800,-277.0625303,93.32444192,1008.671048
1.5850,-278.0254851,93.13795974,1010.061507
1.5900,-278.9761291,92.95024073,1011.458902
1.5950,-279.9142951,92.76301618,1012.863077
1.6000,-280.8404847,92.57640573,1014.273914
1.6050,-281.7541437,92.38979398,1015.691124
1.6100,-282.6560633,92.2039677,1017.114741
1.6150,-283.5461003,92.01794969,1018.54467
1.6200,-284.423635,91.83398259,1019.980754
1.6250,-285.2882304,91.64797208,1021.424059
1.6300,-286.1405963,91.46233228,1022.874128
1.6350,-286.9805108,91.27561722,1024.330952
1.6400,-287.8075821,91.0881939,1025.794123
1.6450,-288.6229349,90.90091051,1027.263721
1.6500,-289.4279486,90.71294102,1028.740058
1.6550,-290.2218247,90.52576819,1030.222622
1.6600,-291.0052489,90.33928758,1031.712037
1.6650,-291.7787864,90.15349027,1033.20814
1.6700,-292.5428513,89.96985121,1034.710331
1.6750,-293.2983334,89.78860418,1036.218078
1.6800,-294.0462739,89.60942682,1037.731785
1.6850,-294.785808,89.43163043,1039.251293
1.6900,-295.5182826,89.25689904,1040.776042
1.6950,-296.2437958,89.08386325,1042.305814
1.7000,-296.9616538,88.91395212,1043.840598
1.7050,-297.6731106,88.74681321,1045.380107
1.7100,-298.3794,88.58393033,1046.924751
1.7150,-299.0813138,88.42411962,1048.474227
1.7200,-299.7809947,88.26822527,1050.028548
1.7250,-300.4779099,88.116016,1051.587524
1.7300,-301.1725227,87.96979519,1053.150698
1.7350,-301.8658873,87.82923296,1054.718621
1.7400,-302.5577228,87.69431437,1056.29094
1.7450,-303.247656,87.56500364,1057.866974
1.7500,-303.9353899,87.43955989,1059.445932
1.7550,-304.6200677,87.31880279,1061.028719
1.7600,-305.3017228,87.20142478,1062.616257
1.7650,-305.9803034,87.08863388,1064.207945
1.7700,-306.6564323,86.97906805,1065.80539
1.7750,-307.3312731,86.8732535,1067.408278
1.7800,-308.0042256,86.77045442,1069.016959
1.7850,-308.6750251,86.67151322,1070.63065
1.7900,-309.3450528,86.5781264,1072.250047
1.7950,-310.0138184,86.48965503,1073.874233
1.8000,-310.6805961,86.40695764,1075.503024
1.8050,-311.3455945,86.32813459,1077.136406
1.8100,-312.0073853,86.25525409,1078.77362
1.8150,-312.6669641,86.18666977,1080.413784
1.8200,-313.3231078,86.12256862,1082.056427
1.8250,-313.9747653,86.06195017,1083.701105
1.8300,-314.6222167,86.00618342,1085.347741
1.8350,-315.2657008,85.95404838,1086.996366
1.8400,-315.9047942,85.90516236,1088.646615
1.8450,-316.540315,85.86160786,1090.296723
1.8500,-317.171558,85.82255031,1091.946077
1.8550,-317.7993964,85.78919403,1093.594772
1.8600,-318.4226409,85.76180543,1095.242457
1.8650,-319.0419817,85.73968414,1096.888605
1.8700,-319.6563312,85.72350537,1098.532916
1.8750,-320.2656229,85.71052669,1100.176169
1.8800,-320.8695625,85.70109358,1101.819216
1.8850,-321.468577,85.69581854,1103.462549
1.8900,-322.0605347,85.69322993,1105.10655
1.8950,-322.6446004,85.69271427,1106.75112
1.9000,-323.2206082,85.69356754,1108.396771
1.9050,-323.7884574,85.69660681,1110.043944
1.9100,-324.3474284,85.70199034,1111.693587
1.9150,-324.8966444,85.7098942,1113.345167
1.9200,-325.4366074,85.71908568,1114.999486
1.9250,-325.9665004,85.73136247,1116.655609
1.9300,-326.4853207,85.7439607,1118.314108
1.9350,-326.9927788,85.75827468,1119.975312
1.9400,-327.4882301,85.77286349,1121.638808
1.9450,-327.9714001,85.78807692,1123.30533
1.9500,-328.4410104,85.8032712,1124.973801
1.9550,-328.8971501,85.81920526,1126.644166
1.9600,-329.3392502,85.83511493,1128.315535
1.9650,-329.76737,85.85218914,1129.987459
1.9700,-330.1815224,85.86850574,1131.661179
1.9750,-330.581404,85.8847818,1133.337187
1.9800,-330.9670011,85.9010295,1135.015966
1.9850,-331.3399014,85.9168354,1136.697333
1.9900,-331.6976899,85.93274756,1138.380121
1.9950,-332.0412672,85.94836438,1140.064868
2.0000,-332.3712337,85.96315152,1141.751892
2.0050,-332.6879368,85.97766131,1143.441918
2.0100,-332.9922807,85.99137645,1145.135469
2.0150,-333.2837708,86.0030577,1146.831863
2.0200,-333.5626681,86.01266415,1148.531373
2.0250,-333.8298116,86.02116755,1150.234382
2.0300,-334.0847479,86.02660509,1151.940661
2.0350,-334.3275431,86.02822391,1153.649939
2.0400,-334.5581207,86.02666362,1155.362104
2.0450,-334.775997,86.02132574,1157.077952
2.0500,-334.9827807,86.01366476,1158.797391
2.0550,-335.1791926,86.00256766,1160.52059
2.0600,-335.3653779,85.98774301,1162.247624
2.0650,-335.5405165,85.9685941,1163.978671
2.0700,-335.7069316,85.9468887,1165.71336
2.0750,-335.8636548,85.92345628,1167.45159
2.0800,-336.0113452,85.89894039,1169.192673
2.0850,-336.14996,85.87348636,1170.938166
2.0900,-336.2794677,85.8457099,1172.687898
2.0950,-336.3998645,85.81759127,1174.442456
2.1000,-336.5110451,85.78916766,1176.201463
2.1050,-336.6123863,85.76067045,1177.965194
2.1100,-336.7048354,85.73233563,1179.734471
2.1150,-336.786304,85.70415701,1181.509872
2.1200,-336.8565896,85.67648638,1183.291398
2.1250,-336.9159614,85.64969165,1185.079279
2.1300,-336.9634124,85.62338031,1186.872901
2.1350,-336.999043,85.59824904,1188.672401
2.1400,-337.0231966,85.57283991,1190.47787
2.1450,-337.0353559,85.54740115,1192.289847
2.1500,-337.0355232,85.52208099,1194.108755
2.1550,-337.0228743,85.49685678,1195.93404
2.1600,-336.9990106,85.47198074,1197.765638
2.1650,-336.9626338,85.44662468,1199.603412
2.1700,-336.9146397,85.42166591,1201.446495
2.1750,-336.8541977,85.39704645,1203.293955
2.1800,-336.7819438,85.37221335,1205.146368
2.1850,-336.6960231,85.34691611,1207.003005
2.1900,-336.5981203,85.32178188,1208.86396
2.1950,-336.4889301,85.29663984,1210.72962
2.2000,-336.3683135,85.27197109,1212.599247
2.2050,-336.2364306,85.24754846,1214.47309
2.2100,-336.0940824,85.22321939,1216.351198
2.2150,-335.9412423,85.19991328,1218.234576
2.2200,-335.7788382,85.179042,1220.122204
2.2250,-335.6063457,85.16004009,1222.0138
2.2300,-335.4248882,85.14432574,1223.908236
2.2350,-335.2341045,85.13119604,1225.805113
2.2400,-335.0350578,85.12246237,1227.704886
2.2450,-334.8283336,85.1196503,1229.60701
2.2500,-334.6138759,85.12261362,1231.511853
2.2550,-334.3921159,85.13035123,1233.418326
2.2600,-334.1637669,85.1429296,1235.326671
2.2650,-333.9294505,85.15928475,1237.236254
2.2700,-333.6883159,85.18106003,1239.14632
