type,name,time_units,begin_time,frequency,count,units
signal,"Noraxon Ultium-RT BRACHIORAD.","s",0.00000,2000,53240,"uV"

time,value
0.00000,-19.00761753
0.00050,-17.17645108
0.00100,-14.42970141
0.00150,-11.68295174
0.00200,-9.851785296
0.00250,-7.715424442
0.00300,-4.968674772
0.00350,-2.527119511
0.00400,-0.6959530646
0.00450,1.440407789
0.00500,5.102740682
0.00550,7.849490351
0.00600,6.933907128
0.00650,4.187157459
0.00700,3.881963051
0.00750,6.933907128
0.00800,9.985851205
0.00850,9.985851205
0.00900,8.154684759
0.00950,6.62871272
0.01000,7.239101536
0.01050,9.680656797
0.01100,12.12221206
0.01150,13.6481841
0.01200,13.6481841
0.01250,11.20662884
0.01300,6.62871272
0.01350,-0.08556424924
0.01400,-6.189452403
0.01450,-7.105035626
0.01500,-1.916730695
0.01550,4.492351866
0.01600,7.239101536
0.01650,5.713129497
0.01700,4.797546274
0.01750,6.323518312
0.01800,7.849490351
0.01850,7.239101536
0.01900,5.713129497
0.01950,6.933907128
0.02000,10.29104561
0.02050,13.03779528
0.02100,12.73260087
0.02150,9.37546239
0.02200,5.713129497
0.02250,3.271574235
0.02300,2.966379828
0.02350,4.492351866
0.02400,6.018323905
0.02450,5.713129497
0.02500,4.797546274
0.02550,4.797546274
0.02600,5.102740682
0.02650,3.271574235
0.02700,-0.3907586569
0.02750,-3.137508326
0.02800,-3.137508326
0.02850,-2.832313919
0.02900,-4.968674772
0.02950,-9.546590888
0.03000,-12.59853496
0.03050,-11.68295174
0.03100,-8.020618849
0.03150,-3.137508326
0.03200,0.2196301585
0.03250,2.355991012
0.03300,3.576768643
0.03350,5.713129497
0.03400,8.154684759
0.03450,9.985851205
0.03500,11.20662884
0.03550,13.34298969
0.03600,16.39493377
0.03650,16.08973936
0.03700,11.20662884
0.03750,4.797546274
0.03800,1.135213382
0.03850,-1.30634188
0.03900,-5.579063588
0.03950,-11.07256293
0.04000,-13.8193126
0.04050,-11.07256293
0.04100,-4.358285957
0.04150,2.355991012
0.04200,6.62871272
0.04250,8.765073574
0.04300,10.90143443
0.04350,15.17415614
0.04400,19.14168344
0.04450,21.27804429
0.04500,22.80401633
0.04550,27.68712685
0.04600,35.01179264
0.04650,39.58970875
0.04700,38.67412553
0.04750,35.31698704
0.04800,30.12868211
0.04850,20.97284988
0.04900,9.070267982
0.04950,0.2196301585
0.05000,-2.221925103
0.05050,-2.527119511
0.05100,-4.968674772
0.05150,-8.631007665
0.05200,-11.68295174
0.05250,-16.87125667
0.05300,-26.33228331
0.05350,-37.9296708
0.05400,-46.78030863
0.05450,-53.79978
0.05500,-61.4296402
0.05550,-66.61794513
0.05600,-65.3971675
0.05650,-59.59847375
0.05700,-55.02055764
0.05750,-54.71536323
0.05800,-55.32575204
0.05850,-53.79978
0.05900,-49.22186389
0.05950,-41.8971981
0.06000,-32.74136587
0.06050,-23.89072805
0.06100,-17.48164549
0.06150,-14.124507
0.06200,-11.07256293
0.06250,-6.189452403
0.06300,-1.001147472
0.06350,1.440407789
0.06400,0.2196301585
0.06450,-1.611536288
0.06500,-0.6959530646
0.06550,3.881963051
0.06600,9.680656797
0.06650,13.34298969
0.06700,14.56376732
0.06750,15.17415614
0.06800,15.47935054
0.06850,15.47935054
0.06900,15.78454495
0.06950,17.6157114
0.07000,19.44687784
0.07050,18.53129462
0.07100,14.56376732
0.07150,9.37546239
0.07200,4.492351866
0.07250,2.355991012
0.07300,2.966379828
0.07350,4.797546274
0.07400,5.407935089
0.07450,3.271574235
0.07500,1.745602197
0.07550,3.271574235
0.07600,7.544295943
0.07650,10.29104561
0.07700,10.29104561
0.07750,9.680656797
0.07800,9.680656797
0.07850,9.680656797
0.07900,8.459879166
0.07950,6.933907128
0.08000,5.407935089
0.08050,3.271574235
0.08100,0.2196301585
0.08150,-2.221925103
0.08200,-2.527119511
0.08250,-1.001147472
0.08300,-0.3907586569
0.08350,-1.611536288
0.08400,-2.832313919
0.08450,-2.221925103
0.08500,-0.3907586569
0.08550,-0.3907586569
0.08600,-2.832313919
0.08650,-5.579063588
0.08700,-4.663480365
0.08750,1.745602197
0.08800,11.20662884
0.08850,18.22610021
0.08900,20.05726666
0.08950,20.36246107
0.09000,21.88843311
0.09050,23.41440514
0.09100,21.27804429
0.09150,15.47935054
0.09200,9.37546239
0.09250,5.713129497
0.09300,2.66118542
0.09350,-0.08556424924
0.09400,-1.611536288
0.09450,-4.663480365
0.09500,-9.546590888
0.09550,-12.59853496
0.09600,-10.46217411
0.09650,-6.189452403
0.09700,-5.884257996
0.09750,-8.936202073
0.09800,-6.189452403
0.09850,4.797546274
0.09900,16.08973936
0.09950,17.92090581
0.10000,12.73260087
0.10050,9.37546239
0.10100,11.51182324
0.10150,16.70012817
0.10200,22.19362751
0.10250,26.46634922
0.10300,27.99232126
0.10350,28.29751567
0.10400,29.5182933
0.10450,31.65465415
0.10500,32.26504297
0.10550,30.12868211
0.10600,27.38193244
0.10650,25.550766
0.10700,22.80401633
0.10750,17.31051699
0.10800,11.51182324
0.10850,5.713129497
0.10900,-1.611536288
0.10950,-11.07256293
0.11000,-18.70242312
0.11050,-21.7543672
0.11100,-22.36475601
0.11150,-23.58553364
0.11200,-24.50111687
0.11250,-24.50111687
0.11300,-25.11150568
0.11350,-25.41670009
0.11400,-22.0595616
0.11450,-14.124507
0.11500,-6.189452403
0.11550,-1.611536288
0.11600,0.8300189739
0.11650,3.881963051
0.11700,6.018323905
0.11750,5.407935089
0.11800,4.492351866
0.11850,4.492351866
0.11900,2.355991012
0.11950,-4.358285957
0.12000,-13.8193126
0.12050,-21.14397838
0.12100,-24.50111687
0.12150,-24.80631127
0.12200,-20.22839516
0.12250,-11.98814615
0.12300,-2.527119511
0.12350,4.797546274
0.12400,10.59624002
0.12450,16.08973936
0.12500,20.36246107
0.12550,22.80401633
0.12600,24.32998837
0.12650,25.85596041
0.12700,26.77154363
0.12750,25.85596041
0.12800,23.41440514
0.12850,19.75207225
0.12900,14.25857291
0.12950,6.62871272
0.13000,-2.221925103
0.13050,-12.59853496
0.13100,-24.19592246
0.13150,-34.57253232
0.13200,-39.76083725
0.13250,-41.5920037
0.13300,-44.33875337
0.13350,-49.5270583
0.13400,-54.10497441
0.13450,-55.02055764
0.13500,-52.88419678
0.13550,-49.5270583
0.13600,-44.03355896
0.13650,-36.40369877
0.13700,-29.38422739
0.13750,-24.80631127
0.13800,-19.92320075
0.13850,-13.51411819
0.13900,-8.020618849
0.13950,-5.884257996
0.14000,-5.884257996
0.14050,-4.358285957
0.14100,-1.30634188
0.14150,0.8300189739
0.14200,2.66118542
0.14250,6.018323905
0.14300,9.985851205
0.14350,12.12221206
0.14400,12.12221206
0.14450,11.20662884
0.14500,10.59624002
0.14550,10.29104561
0.14600,9.37546239
0.14650,8.154684759
0.14700,6.323518312
0.14750,4.187157459
0.14800,2.66118542
0.14850,2.66118542
0.14900,4.797546274
0.14950,6.62871272
0.15000,6.62871272
0.15050,4.187157459
0.15100,2.050796605
0.15150,2.355991012
0.15200,4.187157459
0.15250,6.018323905
0.15300,6.933907128
0.15350,7.239101536
0.15400,8.154684759
0.15450,9.680656797
0.15500,11.20662884
0.15550,12.42740647
0.15600,13.03779528
0.15650,12.42740647
0.15700,11.51182324
0.15750,13.03779528
0.15800,16.70012817
0.15850,20.97284988
0.15900,23.71959955
0.15950,24.94037718
0.16000,24.32998837
0.16050,22.49882192
0.16100,19.75207225
0.16150,17.00532258
0.16200,16.39493377
0.16250,17.6157114
0.16300,19.75207225
0.16350,20.05726666
0.16400,16.70012817
0.16450,10.29104561
0.16500,3.271574235
0.16550,-1.001147472
0.16600,-1.611536288
0.16650,-0.6959530646
0.16700,-1.30634188
0.16750,-3.137508326
0.16800,-3.442702734
0.16850,-1.611536288
0.16900,-0.6959530646
0.16950,-4.968674772
0.17000,-12.29334056
0.17050,-17.7868399
0.17100,-18.0920343
0.17150,-16.26086786
0.17200,-15.95567345
0.17250,-17.17645108
0.17300,-17.17645108
0.17350,-15.95567345
0.17400,-13.8193126
0.17450,-11.07256293
0.17500,-6.494646811
0.17550,-2.221925103
0.17600,0.5248245662
0.17650,1.745602197
0.17700,2.355991012
0.17750,2.66118542
0.17800,2.050796605
0.17850,1.745602197
0.17900,2.050796605
0.17950,2.050796605
0.18000,0.5248245662
0.18050,-1.611536288
0.18100,-2.221925103
0.18150,-0.08556424924
0.18200,3.271574235
0.18250,6.323518312
0.18300,8.765073574
0.18350,9.985851205
0.18400,10.90143443
0.18450,11.51182324
0.18500,12.73260087
0.18550,14.25857291
0.18600,15.47935054
0.18650,17.6157114
0.18700,21.88843311
0.18750,26.77154363
0.18800,30.73907093
0.18850,34.09620941
0.18900,37.75854231
0.18950,40.20009757
0.19000,40.20009757
0.19050,36.84295908
0.19100,31.95984856
0.19150,25.550766
0.19200,17.92090581
0.19250,10.90143443
0.19300,6.018323905
0.19350,2.66118542
0.19400,-2.832313919
0.19450,-11.98814615
0.19500,-21.7543672
0.19550,-28.16344976
0.19600,-31.52058824
0.19650,-34.57253232
0.19700,-37.6244764
0.19750,-38.23486521
0.19800,-34.57253232
0.19850,-28.16344976
0.19900,-20.83878397
0.19950,-12.90372937
0.20000,-2.832313919
0.20050,8.459879166
0.20100,19.44687784
0.20150,27.68712685
0.20200,31.95984856
0.20250,32.57023737
0.20300,30.12868211
0.20350,25.550766
0.20400,19.75207225
0.20450,13.95337851
0.20500,8.154684759
0.20550,3.576768643
0.20600,0.5248245662
0.20650,-3.137508326
0.20700,-11.37775733
0.20750,-24.80631127
0.20800,-37.6244764
0.20850,-44.94914218
0.20900,-46.78030863
0.20950,-47.39069744
0.21000,-48.61147507
0.21050,-48.61147507
0.21100,-45.25433659
0.21150,-41.28680929
0.21200,-38.54005962
0.21250,-36.70889317
0.21300,-33.04656028
0.21350,-26.33228331
0.21400,-18.0920343
0.21450,-9.851785296
0.21500,-2.832313919
0.21550,1.440407789
0.21600,3.576768643
0.21650,3.881963051
0.21700,5.102740682
0.21750,8.765073574
0.21800,12.42740647
0.21850,13.95337851
0.21900,13.34298969
0.21950,12.42740647
0.22000,12.73260087
0.22050,13.34298969
0.22100,13.6481841
0.22150,12.73260087
0.22200,8.765073574
0.22250,2.050796605
0.22300,-5.579063588
0.22350,-8.936202073
0.22400,-7.105035626
0.22450,-3.442702734
0.22500,-2.832313919
0.22550,-4.968674772
0.22600,-6.799841219
0.22650,-6.189452403
0.22700,-3.137508326
0.22750,0.2196301585
0.22800,3.881963051
0.22850,5.713129497
0.22900,5.407935089
0.22950,5.407935089
0.23000,7.544295943
0.23050,10.59624002
0.23100,11.81701765
0.23150,10.59624002
0.23200,10.90143443
0.23250,13.95337851
0.23300,17.92090581
0.23350,18.83648903
0.23400,18.22610021
0.23450,20.36246107
0.23500,26.77154363
0.23550,33.18062619
0.23600,34.09620941
0.23650,29.5182933
0.23700,24.02479396
0.23750,20.97284988
0.23800,19.44687784
0.23850,15.78454495
0.23900,10.29104561
0.23950,5.102740682
0.24000,-1.001147472
0.24050,-10.46217411
0.24100,-23.28033923
0.24150,-33.9621435
0.24200,-37.31928199
0.24250,-33.9621435
0.24300,-29.07903298
0.24350,-26.0270889
0.24400,-24.50111687
0.24450,-20.83878397
0.24500,-14.73489582
0.24550,-8.020618849
0.24600,-2.527119511
0.24650,1.745602197
0.24700,7.239101536
0.24750,13.34298969
0.24800,19.14168344
0.24850,24.32998837
0.24900,30.73907093
0.24950,38.97931994
0.25000,46.30398572
0.25050,49.66112421
0.25100,48.13515217
0.25150,43.25204164
0.25200,37.75854231
0.25250,34.09620941
0.25300,33.79101501
0.25350,35.31698704
0.25400,36.23257027
0.25450,33.4858206
0.25500,26.77154363
0.25550,17.00532258
0.25600,5.102740682
0.25650,-6.799841219
0.25700,-15.65047904
0.25750,-17.7868399
0.25800,-14.124507
0.25850,-10.76736852
0.25900,-12.90372937
0.25950,-19.61800634
0.26000,-27.55306094
0.26050,-33.6569491
0.26100,-39.76083725
0.26150,-46.78030863
0.26200,-53.18939119
0.26250,-56.54652967
0.26300,-55.63094645
0.26350,-52.57900237
0.26400,-48.91666948
0.26450,-44.03355896
0.26500,-37.01408758
0.26550,-29.38422739
0.26600,-23.58553364
0.26650,-19.92320075
0.26700,-18.39722871
0.26750,-17.17645108
0.26800,-15.95567345
0.26850,-12.90372937
0.26900,-6.189452403
0.26950,1.135213382
0.27000,6.018323905
0.27050,8.154684759
0.27100,9.070267982
0.27150,9.985851205
0.27200,9.985851205
0.27250,9.37546239
0.27300,10.29104561
0.27350,14.25857291
0.27400,20.05726666
0.27450,24.32998837
0.27500,25.24557159
0.27550,23.10921074
0.27600,18.83648903
0.27650,14.25857291
0.27700,10.59624002
0.27750,8.459879166
0.27800,5.713129497
0.27850,2.66118542
0.27900,0.8300189739
0.27950,1.440407789
0.28000,2.355991012
0.28050,0.8300189739
0.28100,-1.30634188
0.28150,-1.611536288
0.28200,0.2196301585
0.28250,2.66118542
0.28300,3.576768643
0.28350,3.881963051
0.28400,3.881963051
0.28450,2.966379828
0.28500,2.355991012
0.28550,2.966379828
0.28600,5.713129497
0.28650,9.985851205
0.28700,13.34298969
0.28750,14.86896173
0.28800,15.17415614
0.28850,14.56376732
0.28900,13.6481841
0.28950,13.03779528
0.29000,12.42740647
0.29050,11.20662884
0.29100,9.37546239
0.29150,8.459879166
0.29200,9.37546239
0.29250,10.59624002
0.29300,9.680656797
0.29350,7.239101536
0.29400,4.797546274
0.29450,3.881963051
0.29500,3.271574235
0.29550,1.745602197
0.29600,-0.6959530646
0.29650,-3.747897142
0.29700,-7.105035626
0.29750,-11.37775733
0.29800,-17.48164549
0.29850,-23.28033923
0.29900,-27.24786653
0.29950,-28.77383857
0.30000,-29.38422739
0.30050,-29.38422739
0.30100,-27.85825535
0.30150,-23.28033923
0.30200,-18.39722871
0.30250,-16.56606227
0.30300,-17.48164549
0.30350,-18.0920343
0.30400,-15.04009023
0.30450,-9.24139648
0.30500,-4.358285957
0.30550,-1.611536288
0.30600,-0.6959530646
0.30650,-0.6959530646
0.30700,-1.30634188
0.30750,-1.30634188
0.30800,0.2196301585
0.30850,3.576768643
0.30900,7.239101536
0.30950,10.59624002
0.31000,14.86896173
0.31050,20.97284988
0.31100,28.29751567
0.31150,35.01179264
0.31200,39.28451434
0.31250,39.89490316
0.31300,37.14815349
0.31350,34.40140382
0.31400,33.79101501
0.31450,34.40140382
0.31500,32.57023737
0.31550,26.77154363
0.31600,19.75207225
0.31650,14.86896173
0.31700,12.12221206
0.31750,9.680656797
0.31800,5.713129497
0.31850,-0.6959530646
0.31900,-9.546590888
0.31950,-18.70242312
0.32000,-26.33228331
0.32050,-29.6894218
0.32100,-28.77383857
0.32150,-24.80631127
0.32200,-20.22839516
0.32250,-15.65047904
0.32300,-10.76736852
0.32350,-6.189452403
0.32400,-3.442702734
0.32450,-4.358285957
0.32500,-8.325813257
0.32550,-13.8193126
0.32600,-18.39722871
0.32650,-18.39722871
0.32700,-13.51411819
0.32750,-6.494646811
0.32800,-1.611536288
0.32850,-1.30634188
0.32900,-2.221925103
0.32950,-2.527119511
0.33000,-3.137508326
0.33050,-5.579063588
0.33100,-6.189452403
0.33150,-0.08556424924
0.33200,12.12221206
0.33250,24.32998837
0.33300,30.73907093
0.33350,31.95984856
0.33400,31.65465415
0.33450,31.04426534
0.33500,30.12868211
0.33550,29.21309889
0.33600,27.38193244
0.33650,23.41440514
0.33700,17.92090581
0.33750,13.03779528
0.33800,11.20662884
0.33850,10.59624002
0.33900,8.459879166
0.33950,4.492351866
0.34000,-0.08556424924
0.34050,-3.442702734
0.34100,-6.494646811
0.34150,-10.46217411
0.34200,-17.17645108
0.34250,-26.63747772
0.34300,-33.9621435
0.34350,-36.09850436
0.34400,-34.26733791
0.34450,-32.43617147
0.34500,-32.43617147
0.34550,-34.26733791
0.34600,-37.31928199
0.34650,-42.20239251
0.34700,-45.8647254
0.34750,-44.33875337
0.34800,-38.23486521
0.34850,-32.74136587
0.34900,-29.07903298
0.34950,-24.50111687
0.35000,-17.48164549
0.35050,-11.07256293
0.35100,-7.715424442
0.35150,-6.799841219
0.35200,-5.884257996
0.35250,-6.494646811
0.35300,-8.020618849
0.35350,-8.325813257
0.35400,-6.189452403
0.35450,-3.747897142
0.35500,-3.747897142
0.35550,-4.663480365
0.35600,-4.053091549
0.35650,-2.832313919
0.35700,-3.747897142
0.35750,-4.053091549
0.35800,-1.611536288
0.35850,2.66118542
0.35900,5.407935089
0.35950,5.713129497
0.36000,6.933907128
0.36050,10.29104561
0.36100,13.34298969
0.36150,16.39493377
0.36200,21.27804429
0.36250,27.07673804
0.36300,29.5182933
0.36350,27.38193244
0.36400,24.63518277
0.36450,25.550766
0.36500,27.68712685
0.36550,27.07673804
0.36600,25.24557159
0.36650,24.94037718
0.36700,24.94037718
0.36750,21.88843311
0.36800,16.08973936
0.36850,11.51182324
0.36900,7.849490351
0.36950,1.745602197
0.37000,-6.799841219
0.37050,-13.51411819
0.37100,-15.34528463
0.37150,-15.65047904
0.37200,-17.17645108
0.37250,-19.31281193
0.37300,-19.92320075
0.37350,-20.22839516
0.37400,-21.7543672
0.37450,-23.28033923
0.37500,-22.97514483
0.37550,-20.83878397
0.37600,-17.48164549
0.37650,-11.68295174
0.37700,-2.832313919
0.37750,4.187157459
0.37800,5.713129497
0.37850,1.745602197
0.37900,-1.001147472
0.37950,2.355991012
0.38000,12.42740647
0.38050,24.02479396
0.38100,29.21309889
0.38150,27.07673804
0.38200,22.19362751
0.38250,19.75207225
0.38300,17.6157114
0.38350,11.51182324
0.38400,2.355991012
0.38450,-4.663480365
0.38500,-8.020618849
0.38550,-10.1569797
0.38600,-14.124507
0.38650,-16.56606227
0.38700,-15.95567345
0.38750,-15.34528463
0.38800,-17.17645108
0.38850,-17.17645108
0.38900,-11.37775733
0.38950,-3.137508326
0.39000,0.2196301585
0.39050,-2.221925103
0.39100,-5.27386918
0.39150,-4.358285957
0.39200,-1.001147472
0.39250,0.5248245662
0.39300,1.745602197
0.39350,6.018323905
0.39400,12.73260087
0.39450,18.22610021
0.39500,20.05726666
0.39550,20.05726666
0.39600,20.66765547
0.39650,21.5832387
0.39700,19.44687784
0.39750,13.95337851
0.39800,6.62871272
0.39850,-1.001147472
0.39900,-8.325813257
0.39950,-13.51411819
0.40000,-15.04009023
0.40050,-14.124507
0.40100,-11.98814615
0.40150,-9.851785296
0.40200,-7.410230034
0.40250,-6.189452403
0.40300,-6.799841219
0.40350,-6.494646811
0.40400,-3.137508326
0.40450,0.8300189739
0.40500,2.050796605
0.40550,-0.08556424924
0.40600,-2.221925103
0.40650,-2.832313919
0.40700,-2.832313919
0.40750,-3.137508326
0.40800,-1.611536288
0.40850,0.5248245662
0.40900,1.135213382
0.40950,0.2196301585
0.41000,2.050796605
0.41050,7.849490351
0.41100,13.34298969
0.41150,14.86896173
0.41200,14.56376732
0.41250,15.47935054
0.41300,16.39493377
0.41350,15.47935054
0.41400,13.34298969
0.41450,11.51182324
0.41500,10.59624002
0.41550,7.544295943
0.41600,1.745602197
0.41650,-4.968674772
0.41700,-11.68295174
0.41750,-17.7868399
0.41800,-21.44917279
0.41850,-21.14397838
0.41900,-18.70242312
0.41950,-17.17645108
0.42000,-17.48164549
0.42050,-17.17645108
0.42100,-14.73489582
0.42150,-11.98814615
0.42200,-11.37775733
0.42250,-11.68295174
0.42300,-10.1569797
0.42350,-7.410230034
0.42400,-6.799841219
0.42450,-8.936202073
0.42500,-9.851785296
0.42550,-7.410230034
0.42600,-4.358285957
0.42650,-3.442702734
0.42700,-3.442702734
0.42750,-2.832313919
0.42800,-0.6959530646
0.42850,1.135213382
0.42900,2.966379828
0.42950,4.797546274
0.43000,5.407935089
0.43050,4.187157459
0.43100,3.881963051
0.43150,7.239101536
0.43200,13.03779528
0.43250,16.70012817
0.43300,17.6157114
0.43350,17.00532258
0.43400,16.39493377
0.43450,15.47935054
0.43500,13.95337851
0.43550,13.34298969
0.43600,13.6481841
0.43650,14.25857291
0.43700,15.17415614
0.43750,15.78454495
0.43800,15.47935054
0.43850,13.95337851
0.43900,11.81701765
0.43950,9.070267982
0.44000,4.797546274
0.44050,1.135213382
0.44100,1.745602197
0.44150,5.407935089
0.44200,7.239101536
0.44250,4.187157459
0.44300,-0.08556424924
0.44350,-2.832313919
0.44400,-7.410230034
0.44450,-15.65047904
0.44500,-21.7543672
0.44550,-20.83878397
0.44600,-15.95567345
0.44650,-16.56606227
0.44700,-22.36475601
0.44750,-25.41670009
0.44800,-22.36475601
0.44850,-18.39722871
0.44900,-18.70242312
0.44950,-20.83878397
0.45000,-21.14397838
0.45050,-17.7868399
0.45100,-12.90372937
0.45150,-8.020618849
0.45200,-3.442702734
0.45250,-0.3907586569
0.45300,0.2196301585
0.45350,-0.08556424924
0.45400,-1.001147472
0.45450,-1.916730695
0.45500,-1.611536288
0.45550,-0.08556424924
0.45600,-0.08556424924
0.45650,-1.916730695
0.45700,-3.137508326
0.45750,0.5248245662
0.45800,7.544295943
0.45850,11.51182324
0.45900,10.90143443
0.45950,10.90143443
0.46000,14.86896173
0.46050,20.36246107
0.46100,22.80401633
0.46150,21.88843311
0.46200,19.75207225
0.46250,18.22610021
0.46300,17.31051699
0.46350,16.08973936
0.46400,13.6481841
0.46450,9.37546239
0.46500,5.102740682
0.46550,3.881963051
0.46600,6.018323905
0.46650,7.849490351
0.46700,6.62871272
0.46750,2.966379828
0.46800,-0.08556424924
0.46850,-2.527119511
0.46900,-3.442702734
0.46950,-2.832313919
0.47000,-0.6959530646
0.47050,1.135213382
0.47100,1.745602197
0.47150,0.5248245662
0.47200,-2.221925103
0.47250,-6.494646811
0.47300,-11.68295174
0.47350,-17.17645108
0.47400,-21.44917279
0.47450,-22.36475601
0.47500,-19.31281193
0.47550,-15.65047904
0.47600,-16.56606227
0.47650,-23.58553364
0.47700,-29.9946162
0.47750,-27.55306094
0.47800,-17.7868399
0.47850,-9.24139648
0.47900,-5.884257996
0.47950,-4.053091549
0.48000,0.8300189739
0.48050,7.544295943
0.48100,11.81701765
0.48150,13.03779528
0.48200,12.73260087
0.48250,10.90143443
0.48300,8.765073574
0.48350,8.459879166
0.48400,11.81701765
0.48450,16.08973936
0.48500,18.53129462
0.48550,19.44687784
0.48600,20.36246107
0.48650,20.66765547
0.48700,19.75207225
0.48750,17.00532258
0.48800,13.03779528
0.48850,6.62871272
0.48900,-1.30634188
0.48950,-8.020618849
0.49000,-9.851785296
0.49050,-8.020618849
0.49100,-5.579063588
0.49150,-3.747897142
0.49200,-0.3907586569
0.49250,3.881963051
0.49300,7.239101536
0.49350,8.765073574
0.49400,10.59624002
0.49450,14.56376732
0.49500,19.75207225
0.49550,23.41440514
0.49600,26.77154363
0.49650,31.04426534
0.49700,35.62218145
0.49750,35.62218145
0.49800,30.73907093
0.49850,24.32998837
0.49900,19.44687784
0.49950,13.34298969
0.50000,2.66118542
0.50050,-12.59853496
0.50100,-26.94267213
0.50150,-35.79330995
0.50200,-38.84525403
0.50250,-38.84525403
0.50300,-37.31928199
0.50350,-36.09850436
0.50400,-35.18292113
0.50450,-33.35175469
0.50500,-28.46864417
0.50550,-21.7543672
0.50600,-16.56606227
0.50650,-13.51411819
0.50700,-10.76736852
0.50750,-8.020618849
0.50800,-5.579063588
0.50850,-4.053091549
0.50900,-2.832313919
0.50950,-2.221925103
0.51000,-4.358285957
0.51050,-9.546590888
0.51100,-14.42970141
0.51150,-16.26086786
0.51200,-16.56606227
0.51250,-16.56606227
0.51300,-16.87125667
0.51350,-15.95567345
0.51400,-15.95567345
0.51450,-17.7868399
0.51500,-20.22839516
0.51550,-20.22839516
0.51600,-16.87125667
0.51650,-12.90372937
0.51700,-9.24139648
0.51750,-4.358285957
0.51800,1.440407789
0.51850,6.933907128
0.51900,8.765073574
0.51950,8.765073574
0.52000,9.985851205
0.52050,12.73260087
0.52100,13.95337851
0.52150,12.73260087
0.52200,10.59624002
0.52250,9.985851205
0.52300,9.985851205
0.52350,7.849490351
0.52400,3.271574235
0.52450,-0.3907586569
0.52500,-2.527119511
0.52550,-4.358285957
0.52600,-7.410230034
0.52650,-9.546590888
0.52700,-7.410230034
0.52750,-1.611536288
0.52800,3.271574235
0.52850,5.102740682
0.52900,6.323518312
0.52950,11.51182324
0.53000,19.44687784
0.53050,24.32998837
0.53100,24.02479396
0.53150,22.19362751
0.53200,22.80401633
0.53250,24.02479396
0.53300,20.97284988
0.53350,15.78454495
0.53400,12.73260087
0.53450,13.03779528
0.53500,12.42740647
0.53550,7.544295943
0.53600,-0.3907586569
0.53650,-7.715424442
0.53700,-11.68295174
0.53750,-12.29334056
0.53800,-10.46217411
0.53850,-8.631007665
0.53900,-8.631007665
0.53950,-8.325813257
0.54000,-4.968674772
0.54050,-0.08556424924
0.54100,3.271574235
0.54150,1.135213382
0.54200,-3.442702734
0.54250,-8.020618849
0.54300,-10.1569797
0.54350,-9.851785296
0.54400,-7.410230034
0.54450,-3.137508326
0.54500,1.745602197
0.54550,3.576768643
0.54600,1.135213382
0.54650,-3.442702734
0.54700,-5.27386918
0.54750,-2.527119511
0.54800,0.8300189739
0.54850,1.135213382
0.54900,-1.611536288
0.54950,-3.747897142
0.55000,-2.221925103
0.55050,1.440407789
0.55100,5.713129497
0.55150,8.765073574
0.55200,12.12221206
0.55250,16.39493377
0.55300,20.36246107
0.55350,24.94037718
0.55400,29.5182933
0.55450,33.4858206
0.55500,34.40140382
0.55550,31.65465415
0.55600,26.16115481
0.55650,20.97284988
0.55700,17.31051699
0.55750,15.47935054
0.55800,15.78454495
0.55850,18.53129462
0.55900,21.88843311
0.55950,21.88843311
0.56000,15.78454495
0.56050,6.018323905
0.56100,-2.832313919
0.56150,-7.715424442
0.56200,-8.020618849
0.56250,-3.137508326
0.56300,4.797546274
0.56350,11.81701765
0.56400,13.95337851
0.56450,10.90143443
0.56500,5.713129497
0.56550,-1.001147472
0.56600,-11.07256293
0.56650,-22.36475601
0.56700,-29.6894218
0.56750,-32.74136587
0.56800,-35.79330995
0.56850,-41.28680929
0.56900,-46.78030863
0.56950,-48.91666948
0.57000,-48.61147507
0.57050,-49.22186389
0.57100,-49.5270583
0.57150,-46.16991981
0.57200,-39.45564284
0.57250,-32.43617147
0.57300,-26.33228331
0.57350,-20.22839516
0.57400,-13.20892378
0.57450,-7.715424442
0.57500,-4.968674772
0.57550,-2.527119511
0.57600,1.135213382
0.57650,6.018323905
0.57700,9.37546239
0.57750,10.59624002
0.57800,10.29104561
0.57850,9.680656797
0.57900,9.070267982
0.57950,9.680656797
0.58000,12.42740647
0.58050,16.08973936
0.58100,18.22610021
0.58150,17.92090581
0.58200,15.47935054
0.58250,12.42740647
0.58300,8.154684759
0.58350,1.135213382
0.58400,-5.884257996
0.58450,-10.1569797
0.58500,-11.37775733
0.58550,-11.98814615
0.58600,-14.124507
0.58650,-16.56606227
0.58700,-17.17645108
0.58750,-16.87125667
0.58800,-18.0920343
0.58850,-20.53358957
0.58900,-20.53358957
0.58950,-17.17645108
0.59000,-12.59853496
0.59050,-9.851785296
0.59100,-7.715424442
0.59150,-3.137508326
0.59200,3.271574235
0.59250,8.765073574
0.59300,9.985851205
0.59350,9.37546239
0.59400,10.29104561
0.59450,12.12221206
0.59500,13.6481841
0.59550,13.95337851
0.59600,13.6481841
0.59650,12.42740647
0.59700,10.29104561
0.59750,8.154684759
0.59800,7.544295943
0.59850,7.849490351
0.59900,6.933907128
0.59950,4.492351866
0.60000,1.745602197
0.60050,-1.001147472
0.60100,-4.663480365
0.60150,-7.105035626
0.60200,-5.884257996
0.60250,-3.137508326
0.60300,-3.137508326
0.60350,-6.189452403
0.60400,-5.884257996
0.60450,1.745602197
0.60500,13.34298969
0.60550,20.36246107
0.60600,19.75207225
0.60650,16.70012817
0.60700,16.70012817
0.60750,18.83648903
0.60800,20.05726666
0.60850,19.14168344
0.60900,17.6157114
0.60950,17.00532258
0.61000,17.6157114
0.61050,17.6157114
0.61100,15.17415614
0.61150,9.37546239
0.61200,2.355991012
0.61250,-2.527119511
0.61300,-4.358285957
0.61350,-2.527119511
0.61400,0.2196301585
0.61450,2.355991012
0.61500,2.050796605
0.61550,1.745602197
0.61600,3.881963051
0.61650,7.544295943
0.61700,9.37546239
0.61750,6.62871272
0.61800,2.050796605
0.61850,-1.001147472
0.61900,-2.832313919
0.61950,-3.747897142
0.62000,-2.832313919
0.62050,-0.08556424924
0.62100,0.2196301585
0.62150,-4.358285957
0.62200,-10.76736852
0.62250,-13.20892378
0.62300,-10.1569797
0.62350,-5.27386918
0.62400,-1.611536288
0.62450,1.745602197
0.62500,6.933907128
0.62550,12.73260087
0.62600,17.31051699
0.62650,18.83648903
0.62700,16.08973936
0.62750,8.765073574
0.62800,0.8300189739
0.62850,-3.442702734
0.62900,-1.916730695
0.62950,3.881963051
0.63000,10.90143443
0.63050,16.39493377
0.63100,19.75207225
0.63150,21.5832387
0.63200,22.19362751
0.63250,21.5832387
0.63300,21.5832387
0.63350,24.63518277
0.63400,31.04426534
0.63450,35.31698704
0.63500,32.26504297
0.63550,24.02479396
0.63600,16.08973936
0.63650,10.59624002
0.63700,3.881963051
0.63750,-4.663480365
0.63800,-11.68295174
0.63850,-14.42970141
0.63900,-17.48164549
0.63950,-26.63747772
0.64000,-39.15044844
0.64050,-48.30628067
0.64100,-49.5270583
0.64150,-46.47511422
0.64200,-43.11797574
0.64250,-41.8971981
0.64300,-41.5920037
0.64350,-40.67642047
0.64400,-38.54005962
0.64450,-35.79330995
0.64500,-34.87772673
0.64550,-36.70889317
0.64600,-39.15044844
0.64650,-39.76083725
0.64700,-39.15044844
0.64750,-37.6244764
0.64800,-35.48811554
0.64850,-31.82578265
0.64900,-28.46864417
0.64950,-25.7218945
0.65000,-21.14397838
0.65050,-14.42970141
0.65100,-6.494646811
0.65150,-1.30634188
0.65200,0.2196301585
0.65250,0.8300189739
0.65300,0.2196301585
0.65350,-0.3907586569
0.65400,-0.3907586569
0.65450,2.966379828
0.65500,10.29104561
0.65550,18.22610021
0.65600,24.32998837
0.65650,29.21309889
0.65700,34.09620941
0.65750,40.20009757
0.65800,46.30398572
0.65850,51.18709624
0.65900,53.93384591
0.65950,54.23904032
0.66000,52.10267947
0.66050,48.74554098
0.66100,44.47281928
0.66150,40.50529198
0.66200,36.23257027
0.66250,29.5182933
0.66300,19.75207225
0.66350,8.459879166
0.66400,-1.916730695
0.66450,-10.1569797
0.66500,-15.65047904
0.66550,-19.61800634
0.66600,-22.36475601
0.66650,-24.80631127
0.66700,-27.55306094
0.66750,-31.52058824
0.66800,-35.18292113
0.66850,-35.79330995
0.66900,-32.13097706
0.66950,-24.19592246
0.67000,-15.04009023
0.67050,-6.189452403
0.67100,1.135213382
0.67150,7.849490351
0.67200,12.42740647
0.67250,13.95337851
0.67300,13.03779528
0.67350,12.73260087
0.67400,13.34298969
0.67450,13.95337851
0.67500,13.34298969
0.67550,12.42740647
0.67600,10.29104561
0.67650,6.323518312
0.67700,0.8300189739
0.67750,-3.442702734
0.67800,-4.358285957
0.67850,-2.832313919
0.67900,-1.916730695
0.67950,-2.221925103
0.68000,-2.527119511
0.68050,-1.611536288
0.68100,-0.6959530646
0.68150,-0.08556424924
0.68200,0.8300189739
0.68250,1.440407789
0.68300,0.8300189739
0.68350,-1.30634188
0.68400,-3.442702734
0.68450,-2.832313919
0.68500,-0.08556424924
0.68550,4.187157459
0.68600,7.544295943
0.68650,10.59624002
0.68700,13.03779528
0.68750,14.56376732
0.68800,14.86896173
0.68850,13.95337851
0.68900,12.42740647
0.68950,10.59624002
0.69000,6.933907128
0.69050,1.440407789
0.69100,-4.053091549
0.69150,-6.189452403
0.69200,-4.663480365
0.69250,-2.832313919
0.69300,-3.747897142
0.69350,-5.27386918
0.69400,-4.053091549
0.69450,-0.08556424924
0.69500,2.050796605
0.69550,1.745602197
0.69600,1.745602197
0.69650,5.713129497
0.69700,12.73260087
0.69750,18.22610021
0.69800,21.5832387
0.69850,23.71959955
0.69900,26.16115481
0.69950,30.43387652
0.70000,38.36893112
0.70050,47.21956894
0.70100,51.49229065
0.70150,48.74554098
0.70200,43.25204164
0.70250,38.67412553
0.70300,31.04426534
0.70350,15.78454495
0.70400,-2.221925103
0.70450,-15.04009023
0.70500,-19.61800634
0.70550,-21.7543672
0.70600,-25.11150568
0.70650,-26.63747772
0.70700,-27.55306094
0.70750,-32.43617147
0.70800,-40.06603166
0.70850,-41.8971981
0.70900,-35.79330995
0.70950,-30.29981061
0.71000,-30.60500502
0.71050,-31.21539383
0.71100,-23.28033923
0.71150,-10.76736852
0.71200,-2.832313919
0.71250,-1.611536288
0.71300,-2.221925103
0.71350,-0.3907586569
0.71400,1.135213382
0.71450,1.745602197
0.71500,2.355991012
0.71550,3.576768643
0.71600,4.797546274
0.71650,6.933907128
0.71700,11.20662884
0.71750,14.56376732
0.71800,13.03779528
0.71850,5.407935089
0.71900,-3.747897142
0.71950,-12.59853496
0.72000,-19.00761753
0.72050,-22.66995042
0.72100,-22.66995042
0.72150,-20.53358957
0.72200,-20.83878397
0.72250,-26.33228331
0.72300,-33.9621435
0.72350,-37.6244764
0.72400,-34.57253232
0.72450,-26.63747772
0.72500,-18.0920343
0.72550,-11.68295174
0.72600,-7.715424442
0.72650,-4.968674772
0.72700,-1.916730695
0.72750,1.135213382
0.72800,4.187157459
0.72850,6.933907128
0.72900,9.070267982
0.72950,11.81701765
0.73000,14.25857291
0.73050,16.39493377
0.73100,17.6157114
0.73150,17.31051699
0.73200,14.56376732
0.73250,10.29104561
0.73300,5.102740682
0.73350,0.2196301585
0.73400,-4.663480365
0.73450,-10.46217411
0.73500,-15.34528463
0.73550,-18.39722871
0.73600,-21.14397838
0.73650,-23.58553364
0.73700,-23.89072805
0.73750,-19.61800634
0.73800,-12.59853496
0.73850,-7.715424442
0.73900,-7.410230034
0.73950,-7.715424442
0.74000,-6.189452403
0.74050,-4.358285957
0.74100,-4.968674772
0.74150,-6.189452403
0.74200,-3.747897142
0.74250,1.135213382
0.74300,5.102740682
0.74350,4.492351866
0.74400,2.050796605
0.74450,1.745602197
0.74500,4.492351866
0.74550,7.544295943
0.74600,9.37546239
0.74650,10.59624002
0.74700,12.12221206
0.74750,14.25857291
0.74800,15.78454495
0.74850,16.08973936
0.74900,15.78454495
0.74950,16.08973936
0.75000,16.08973936
0.75050,14.86896173
0.75100,12.73260087
0.75150,11.81701765
0.75200,12.12221206
0.75250,11.81701765
0.75300,8.765073574
0.75350,4.797546274
0.75400,2.966379828
0.75450,3.576768643
0.75500,2.66118542
0.75550,-0.3907586569
0.75600,-2.832313919
0.75650,-1.611536288
0.75700,1.135213382
0.75750,1.440407789
0.75800,-0.6959530646
0.75850,-2.832313919
0.75900,-2.527119511
0.75950,-0.08556424924
0.76000,4.187157459
0.76050,8.765073574
0.76100,11.51182324
0.76150,9.680656797
0.76200,4.797546274
0.76250,0.2196301585
0.76300,-2.221925103
0.76350,-4.663480365
0.76400,-8.325813257
0.76450,-11.68295174
0.76500,-12.29334056
0.76550,-9.851785296
0.76600,-5.884257996
0.76650,-0.3907586569
0.76700,6.323518312
0.76750,12.42740647
0.76800,16.08973936
0.76850,17.31051699
0.76900,18.22610021
0.76950,18.53129462
0.77000,17.31051699
0.77050,15.17415614
0.77100,13.03779528
0.77150,11.20662884
0.77200,9.37546239
0.77250,8.459879166
0.77300,9.37546239
0.77350,11.20662884
0.77400,12.12221206
0.77450,11.81701765
0.77500,9.985851205
0.77550,6.933907128
0.77600,2.66118542
0.77650,-0.6959530646
0.77700,-1.30634188
0.77750,-0.08556424924
0.77800,-0.08556424924
0.77850,-1.916730695
0.77900,-3.747897142
0.77950,-4.968674772
0.78000,-7.715424442
0.78050,-15.04009023
0.78100,-25.41670009
0.78150,-34.87772673
0.78200,-39.76083725
0.78250,-38.84525403
0.78300,-32.74136587
0.78350,-23.28033923
0.78400,-12.90372937
0.78450,-4.968674772
0.78500,-1.30634188
0.78550,-1.916730695
0.78600,-4.968674772
0.78650,-8.325813257
0.78700,-11.68295174
0.78750,-15.34528463
0.78800,-19.00761753
0.78850,-21.14397838
0.78900,-22.0595616
0.78950,-22.36475601
0.79000,-21.44917279
0.79050,-17.48164549
0.79100,-11.07256293
0.79150,-4.053091549
0.79200,0.2196301585
0.79250,2.66118542
0.79300,3.271574235
0.79350,1.745602197
0.79400,-0.08556424924
0.79450,0.5248245662
0.79500,6.62871272
0.79550,15.17415614
0.79600,20.05726666
0.79650,19.44687784
0.79700,16.70012817
0.79750,14.86896173
0.79800,13.34298969
0.79850,9.37546239
0.79900,2.966379828
0.79950,-4.053091549
0.80000,-11.07256293
0.80050,-16.26086786
0.80100,-18.70242312
0.80150,-17.17645108
0.80200,-11.98814615
0.80250,-5.27386918
0.80300,0.2196301585
0.80350,3.576768643
0.80400,3.881963051
0.80450,1.745602197
0.80500,-0.3907586569
0.80550,-2.527119511
0.80600,-3.137508326
0.80650,-1.916730695
0.80700,0.2196301585
0.80750,0.8300189739
0.80800,-3.137508326
0.80850,-9.851785296
0.80900,-14.42970141
0.80950,-14.124507
0.81000,-12.90372937
0.81050,-14.73489582
0.81100,-18.0920343
0.81150,-18.70242312
0.81200,-15.65047904
0.81250,-10.76736852
0.81300,-5.884257996
0.81350,-1.30634188
0.81400,2.966379828
0.81450,6.323518312
0.81500,9.37546239
0.81550,13.6481841
0.81600,18.83648903
0.81650,21.88843311
0.81700,20.97284988
0.81750,18.22610021
0.81800,17.00532258
0.81850,17.00532258
0.81900,15.78454495
0.81950,12.73260087
0.82000,10.29104561
0.82050,10.59624002
0.82100,13.03779528
0.82150,14.56376732
0.82200,14.25857291
0.82250,13.6481841
0.82300,13.34298969
0.82350,11.20662884
0.82400,5.407935089
0.82450,-3.442702734
0.82500,-12.29334056
0.82550,-18.39722871
0.82600,-20.22839516
0.82650,-19.00761753
0.82700,-16.87125667
0.82750,-16.87125667
0.82800,-19.61800634
0.82850,-21.7543672
0.82900,-20.53358957
0.82950,-15.95567345
0.83000,-11.07256293
0.83050,-7.105035626
0.83100,-5.27386918
0.83150,-4.968674772
0.83200,-4.663480365
0.83250,0.2196301585
0.83300,11.20662884
0.83350,22.80401633
0.83400,27.99232126
0.83450,26.46634922
0.83500,25.550766
0.83550,27.68712685
0.83600,29.82348771
0.83650,27.68712685
0.83700,23.41440514
0.83750,19.75207225
0.83800,17.6157114
0.83850,14.86896173
0.83900,10.90143443
0.83950,5.713129497
0.84000,-2.527119511
0.84050,-15.34528463
0.84100,-28.77383857
0.84150,-37.01408758
0.84200,-39.15044844
0.84250,-39.15044844
0.84300,-39.15044844
0.84350,-38.84525403
0.84400,-37.31928199
0.84450,-34.87772673
0.84500,-32.43617147
0.84550,-29.6894218
0.84600,-25.11150568
0.84650,-18.70242312
0.84700,-11.07256293
0.84750,-3.442702734
0.84800,2.050796605
0.84850,5.102740682
0.84900,6.62871272
0.84950,8.459879166
0.85000,9.985851205
0.85050,10.29104561
0.85100,10.29104561
0.85150,11.20662884
0.85200,11.51182324
0.85250,9.985851205
0.85300,8.154684759
0.85350,11.20662884
0.85400,20.66765547
0.85450,33.18062619
0.85500,44.47281928
0.85550,53.01826269
0.85600,60.03773407
0.85650,66.14162222
0.85700,70.10914952
0.85750,70.71953834
0.85800,68.27798308
0.85850,63.70006696
0.85900,59.73253966
0.85950,56.37540118
0.86000,51.79748506
0.86050,43.86243046
0.86100,32.26504297
0.86150,18.83648903
0.86200,3.271574235
0.86250,-14.42970141
0.86300,-32.43617147
0.86350,-46.78030863
0.86400,-57.4621129
0.86450,-66.31275072
0.86500,-75.16338854
0.86550,-81.2672767
0.86600,-84.01402637
0.86650,-85.53999841
0.86700,-85.84519281
0.86750,-83.09844314
0.86800,-76.68936058
0.86850,-68.75430598
0.86900,-62.04002901
0.86950,-54.71536323
0.87000,-44.33875337
0.87050,-32.13097706
0.87100,-20.53358957
0.87150,-11.07256293
0.87200,-3.442702734
0.87250,1.745602197
0.87300,3.881963051
0.87350,4.492351866
0.87400,4.492351866
0.87450,5.102740682
0.87500,4.797546274
0.87550,5.407935089
0.87600,7.239101536
0.87650,9.680656797
0.87700,9.985851205
0.87750,8.459879166
0.87800,8.459879166
0.87850,11.20662884
0.87900,13.6481841
0.87950,12.42740647
0.88000,9.680656797
0.88050,9.070267982
0.88100,11.51182324
0.88150,13.95337851
0.88200,15.17415614
0.88250,16.70012817
0.88300,19.75207225
0.88350,22.49882192
0.88400,22.49882192
0.88450,20.97284988
0.88500,21.27804429
0.88550,23.71959955
0.88600,25.550766
0.88650,24.63518277
0.88700,20.66765547
0.88750,15.17415614
0.88800,9.985851205
0.88850,7.239101536
0.88900,7.544295943
0.88950,7.544295943
0.89000,4.797546274
0.89050,0.2196301585
0.89100,-2.832313919
0.89150,-4.663480365
0.89200,-6.189452403
0.89250,-6.494646811
0.89300,-3.442702734
0.89350,2.050796605
0.89400,7.239101536
0.89450,10.90143443
0.89500,14.25857291
0.89550,18.22610021
0.89600,20.36246107
0.89650,18.53129462
0.89700,14.86896173
0.89750,12.73260087
0.89800,13.95337851
0.89850,17.00532258
0.89900,19.75207225
0.89950,21.5832387
0.90000,24.32998837
0.90050,29.21309889
0.90100,34.09620941
0.90150,35.92737586
0.90200,33.4858206
0.90250,29.82348771
0.90300,27.07673804
0.90350,24.32998837
0.90400,19.44687784
0.90450,12.12221206
0.90500,4.492351866
0.90550,-2.527119511
0.90600,-10.46217411
0.90650,-19.00761753
0.90700,-27.55306094
0.90750,-34.87772673
0.90800,-41.5920037
0.90850,-47.69589185
0.90900,-52.88419678
0.90950,-55.32575204
0.91000,-52.27380797
0.91050,-44.33875337
0.91100,-34.57253232
0.91150,-25.7218945
0.91200,-17.7868399
0.91250,-11.07256293
0.91300,-6.189452403
0.91350,-3.442702734
0.91400,-0.08556424924
0.91450,5.713129497
0.91500,13.34298969
0.91550,20.05726666
0.91600,25.24557159
0.91650,30.43387652
0.91700,33.4858206
0.91750,32.57023737
0.91800,29.5182933
0.91850,28.29751567
0.91900,29.21309889
0.91950,29.21309889
0.92000,26.46634922
0.92050,24.32998837
0.92100,24.02479396
0.92150,23.71959955
0.92200,19.75207225
0.92250,12.12221206
0.92300,2.66118542
0.92350,-5.579063588
0.92400,-11.07256293
0.92450,-12.59853496
0.92500,-11.68295174
0.92550,-12.90372937
0.92600,-17.17645108
0.92650,-20.83878397
0.92700,-22.0595616
0.92750,-21.44917279
0.92800,-20.53358957
0.92850,-18.0920343
0.92900,-14.124507
0.92950,-11.68295174
0.93000,-12.59853496
0.93050,-14.42970141
0.93100,-13.20892378
0.93150,-8.325813257
0.93200,-3.137508326
0.93250,-0.08556424924
0.93300,2.050796605
0.93350,3.881963051
0.93400,5.407935089
0.93450,6.323518312
0.93500,6.323518312
0.93550,5.407935089
0.93600,2.355991012
0.93650,-2.221925103
0.93700,-8.020618849
0.93750,-13.51411819
0.93800,-19.31281193
0.93850,-25.11150568
0.93900,-30.29981061
0.93950,-33.6569491
0.94000,-36.40369877
0.94050,-38.54005962
0.94100,-39.76083725
0.94150,-37.9296708
0.94200,-32.43617147
0.94250,-26.33228331
0.94300,-22.36475601
0.94350,-21.44917279
0.94400,-20.53358957
0.94450,-16.87125667
0.94500,-11.07256293
0.94550,-7.105035626
0.94600,-6.189452403
0.94650,-6.494646811
0.94700,-4.358285957
0.94750,1.135213382
0.94800,8.459879166
0.94850,14.25857291
0.94900,17.31051699
0.94950,18.53129462
0.95000,19.14168344
0.95050,18.53129462
0.95100,17.00532258
0.95150,14.56376732
0.95200,12.73260087
0.95250,13.03779528
0.95300,15.78454495
0.95350,17.6157114
0.95400,16.70012817
0.95450,13.6481841
0.95500,9.680656797
0.95550,5.407935089
0.95600,1.440407789
0.95650,-1.001147472
0.95700,-3.137508326
0.95750,-6.799841219
0.95800,-11.98814615
0.95850,-15.34528463
0.95900,-14.42970141
0.95950,-11.98814615
0.96000,-15.04009023
0.96050,-22.36475601
0.96100,-26.33228331
0.96150,-21.7543672
0.96200,-11.98814615
0.96250,-3.747897142
0.96300,2.966379828
0.96350,11.81701765
0.96400,19.75207225
0.96450,20.97284988
0.96500,15.47935054
0.96550,11.81701765
0.96600,15.47935054
0.96650,23.71959955
0.96700,29.5182933
0.96750,30.73907093
0.96800,29.5182933
0.96850,26.77154363
0.96900,21.27804429
0.96950,13.6481841
0.97000,7.849490351
0.97050,5.407935089
0.97100,3.576768643
0.97150,1.135213382
0.97200,-0.08556424924
0.97250,-0.08556424924
0.97300,0.2196301585
0.97350,-1.611536288
0.97400,-4.663480365
0.97450,-6.189452403
0.97500,-4.663480365
0.97550,-1.916730695
0.97600,-0.3907586569
0.97650,0.2196301585
0.97700,0.8300189739
0.97750,1.135213382
0.97800,1.440407789
0.97850,1.745602197
0.97900,1.440407789
0.97950,1.135213382
0.98000,1.135213382
0.98050,1.745602197
0.98100,2.966379828
0.98150,4.797546274
0.98200,6.62871272
0.98250,9.070267982
0.98300,11.81701765
0.98350,14.86896173
0.98400,17.00532258
0.98450,19.14168344
0.98500,20.66765547
0.98550,21.27804429
0.98600,18.53129462
0.98650,12.12221206
0.98700,3.576768643
0.98750,-4.358285957
0.98800,-12.90372937
0.98850,-22.36475601
0.98900,-32.43617147
0.98950,-39.15044844
0.99000,-40.37122607
0.99050,-38.54005962
0.99100,-37.01408758
0.99150,-37.6244764
0.99200,-37.9296708
0.99250,-36.09850436
0.99300,-32.74136587
0.99350,-30.29981061
0.99400,-27.55306094
0.99450,-22.0595616
0.99500,-12.29334056
0.99550,-2.832313919
0.99600,2.66118542
0.99650,5.407935089
0.99700,8.459879166
0.99750,11.51182324
0.99800,12.73260087
0.99850,13.95337851
0.99900,18.53129462
0.99950,24.94037718
1.00000,27.38193244
1.00050,24.94037718
1.00100,22.80401633
1.00150,24.94037718
1.00200,27.38193244
1.00250,25.550766
1.00300,20.97284988
1.00350,18.83648903
1.00400,20.66765547
1.00450,22.19362751
1.00500,21.5832387
1.00550,21.27804429
1.00600,23.41440514
1.00650,28.29751567
1.00700,33.4858206
1.00750,36.23257027
1.00800,35.92737586
1.00850,33.18062619
1.00900,31.34945974
1.00950,31.65465415
1.01000,32.57023737
1.01050,31.34945974
1.01100,27.07673804
1.01150,19.75207225
1.01200,10.90143443
1.01250,2.66118542
1.01300,-2.832313919
1.01350,-5.579063588
1.01400,-8.325813257
1.01450,-12.29334056
1.01500,-15.65047904
1.01550,-17.17645108
1.01600,-17.7868399
1.01650,-19.61800634
1.01700,-22.97514483
1.01750,-27.85825535
1.01800,-34.57253232
1.01850,-42.20239251
1.01900,-46.47511422
1.01950,-45.25433659
1.02000,-40.98161488
1.02050,-36.09850436
1.02100,-29.6894218
1.02150,-21.14397838
1.02200,-13.51411819
1.02250,-8.936202073
1.02300,-5.884257996
1.02350,-1.611536288
1.02400,3.576768643
1.02450,7.239101536
1.02500,9.680656797
1.02550,13.03779528
1.02600,17.6157114
1.02650,20.05726666
1.02700,19.14168344
1.02750,17.00532258
1.02800,15.47935054
1.02850,15.17415614
1.02900,13.03779528
1.02950,9.680656797
1.03000,7.239101536
1.03050,8.459879166
1.03100,13.6481841
1.03150,20.36246107
1.03200,26.46634922
1.03250,29.82348771
1.03300,27.99232126
1.03350,17.92090581
1.03400,0.5248245662
1.03450,-15.65047904
1.03500,-22.66995042
1.03550,-19.61800634
1.03600,-13.8193126
1.03650,-11.68295174
1.03700,-12.90372937
1.03750,-14.124507
1.03800,-14.42970141
1.03850,-15.04009023
1.03900,-15.95567345
1.03950,-16.56606227
1.04000,-17.17645108
1.04050,-18.0920343
1.04100,-19.92320075
1.04150,-21.7543672
1.04200,-23.28033923
1.04250,-25.41670009
1.04300,-26.63747772
1.04350,-26.33228331
1.04400,-24.80631127
1.04450,-22.66995042
1.04500,-20.83878397
1.04550,-18.70242312
1.04600,-16.26086786
1.04650,-14.42970141
1.04700,-13.8193126
1.04750,-14.124507
1.04800,-13.51411819
1.04850,-10.76736852
1.04900,-7.105035626
1.04950,-3.442702734
1.05000,-1.30634188
1.05050,-0.3907586569
1.05100,-0.3907586569
1.05150,0.2196301585
1.05200,2.966379828
1.05250,7.239101536
1.05300,10.29104561
1.05350,9.680656797
1.05400,6.018323905
1.05450,2.66118542
1.05500,3.271574235
1.05550,7.239101536
1.05600,12.42740647
1.05650,16.39493377
1.05700,19.14168344
1.05750,20.05726666
1.05800,20.05726666
1.05850,17.31051699
1.05900,11.81701765
1.05950,4.492351866
1.06000,-1.30634188
1.06050,-3.442702734
1.06100,-1.611536288
1.06150,0.8300189739
1.06200,2.66118542
1.06250,4.797546274
1.06300,8.459879166
1.06350,11.81701765
1.06400,12.42740647
1.06450,9.985851205
1.06500,6.933907128
1.06550,6.018323905
1.06600,6.62871272
1.06650,6.933907128
1.06700,5.407935089
1.06750,2.050796605
1.06800,-1.30634188
1.06850,-2.221925103
1.06900,0.5248245662
1.06950,5.713129497
1.07000,9.680656797
1.07050,10.29104561
1.07100,10.29104561
1.07150,11.51182324
1.07200,12.42740647
1.07250,11.51182324
1.07300,9.070267982
1.07350,8.459879166
1.07400,9.37546239
1.07450,9.680656797
1.07500,7.239101536
1.07550,2.966379828
1.07600,-0.6959530646
1.07650,-2.527119511
1.07700,-1.30634188
1.07750,2.966379828
1.07800,8.154684759
1.07850,11.51182324
1.07900,13.03779528
1.07950,17.92090581
1.08000,27.68712685
1.08050,38.36893112
1.08100,44.77801368
1.08150,46.30398572
1.08200,46.60918013
1.08250,47.82995776
1.08300,47.82995776
1.08350,43.25204164
1.08400,33.18062619
1.08450,19.75207225
1.08500,5.102740682
1.08550,-8.631007665
1.08600,-21.44917279
1.08650,-33.04656028
1.08700,-43.11797574
1.08750,-49.8322527
1.08800,-51.96861356
1.08850,-51.05303034
1.08900,-51.66341915
1.08950,-54.71536323
1.09000,-57.7673073
1.09050,-57.4621129
1.09100,-52.57900237
1.09150,-44.33875337
1.09200,-35.18292113
1.09250,-27.55306094
1.09300,-22.36475601
1.09350,-19.31281193
1.09400,-15.65047904
1.09450,-10.1569797
1.09500,-4.358285957
1.09550,-0.3907586569
1.09600,2.966379828
1.09650,8.154684759
1.09700,14.56376732
1.09750,18.53129462
1.09800,17.6157114
1.09850,13.95337851
1.09900,12.12221206
1.09950,11.81701765
1.10000,9.070267982
1.10050,2.050796605
1.10100,-5.579063588
1.10150,-9.24139648
1.10200,-7.410230034
1.10250,-3.442702734
1.10300,-1.30634188
1.10350,-2.221925103
1.10400,-4.053091549
1.10450,-5.27386918
1.10500,-6.189452403
1.10550,-8.325813257
1.10600,-11.37775733
1.10650,-12.90372937
1.10700,-11.07256293
1.10750,-9.24139648
1.10800,-10.46217411
1.10850,-13.8193126
1.10900,-16.56606227
1.10950,-17.7868399
1.11000,-18.39722871
1.11050,-19.31281193
1.11100,-19.92320075
1.11150,-20.53358957
1.11200,-21.44917279
1.11250,-21.44917279
1.11300,-18.0920343
1.11350,-13.20892378
1.11400,-9.546590888
1.11450,-6.494646811
1.11500,-0.08556424924
1.11550,8.765073574
1.11600,15.17415614
1.11650,17.31051699
1.11700,18.83648903
1.11750,21.88843311
1.11800,23.71959955
1.11850,23.10921074
1.11900,24.32998837
1.11950,29.21309889
1.12000,33.18062619
1.12050,31.95984856
1.12100,29.21309889
1.12150,29.82348771
1.12200,31.95984856
1.12250,30.43387652
1.12300,24.94037718
1.12350,19.44687784
1.12400,15.47935054
1.12450,11.20662884
1.12500,7.544295943
1.12550,6.62871272
1.12600,6.62871272
1.12650,2.355991012
1.12700,-6.189452403
1.12750,-13.20892378
1.12800,-15.04009023
1.12850,-15.95567345
1.12900,-20.53358957
1.12950,-26.63747772
1.13000,-31.52058824
1.13050,-34.26733791
1.13100,-36.40369877
1.13150,-37.31928199
1.13200,-36.40369877
1.13250,-36.40369877
1.13300,-38.23486521
1.13350,-38.84525403
1.13400,-35.18292113
1.13450,-29.38422739
1.13500,-26.33228331
1.13550,-24.50111687
1.13600,-18.0920343
1.13650,-5.27386918
1.13700,8.765073574
1.13750,19.44687784
1.13800,27.07673804
1.13850,33.18062619
1.13900,36.84295908
1.13950,36.84295908
1.14000,34.09620941
1.14050,33.18062619
1.14100,33.79101501
1.14150,33.18062619
1.14200,29.21309889
1.14250,25.85596041
1.14300,26.77154363
1.14350,30.43387652
1.14400,31.95984856
1.14450,28.29751567
1.14500,23.41440514
1.14550,20.97284988
1.14600,21.88843311
1.14650,23.10921074
1.14700,22.19362751
1.14750,18.22610021
1.14800,10.90143443
1.14850,1.135213382
1.14900,-7.105035626
1.14950,-10.1569797
1.15000,-9.546590888
1.15050,-12.59853496
1.15100,-23.58553364
1.15150,-40.37122607
1.15200,-56.85172408
1.15250,-69.66988921
1.15300,-78.21533262
1.15350,-82.18285992
1.15400,-79.43611025
1.15450,-70.28027802
1.15500,-58.07250171
1.15550,-45.8647254
1.15600,-34.87772673
1.15650,-24.50111687
1.15700,-14.42970141
1.15750,-5.579063588
1.15800,0.5248245662
1.15850,4.492351866
1.15900,6.62871272
1.15950,8.459879166
1.16000,10.29104561
1.16050,10.90143443
1.16100,10.59624002
1.16150,9.680656797
1.16200,8.765073574
1.16250,8.154684759
1.16300,7.849490351
1.16350,9.070267982
1.16400,12.73260087
1.16450,16.39493377
1.16500,17.92090581
1.16550,18.53129462
1.16600,19.75207225
1.16650,21.88843311
1.16700,23.10921074
1.16750,21.5832387
1.16800,18.83648903
1.16850,16.70012817
1.16900,15.17415614
1.16950,12.73260087
1.17000,9.070267982
1.17050,5.407935089
1.17100,2.966379828
1.17150,2.355991012
1.17200,3.271574235
1.17250,4.187157459
1.17300,3.271574235
1.17350,2.66118542
1.17400,4.492351866
1.17450,8.459879166
1.17500,11.81701765
1.17550,13.03779528
1.17600,13.34298969
1.17650,12.73260087
1.17700,9.070267982
1.17750,2.66118542
1.17800,-1.30634188
1.17850,-0.6959530646
1.17900,-0.08556424924
1.17950,-4.968674772
1.18000,-15.04009023
1.18050,-23.28033923
1.18100,-26.63747772
1.18150,-28.46864417
1.18200,-31.21539383
1.18250,-32.13097706
1.18300,-29.6894218
1.18350,-24.50111687
1.18400,-17.48164549
1.18450,-8.020618849
1.18500,3.271574235
1.18550,13.34298969
1.18600,17.6157114
1.18650,17.31051699
1.18700,17.92090581
1.18750,24.32998837
1.18800,36.53776467
1.18850,49.3559298
1.18900,57.59617881
1.18950,58.20656762
1.19000,53.01826269
1.19050,46.30398572
1.19100,40.50529198
1.19150,35.01179264
1.19200,25.85596041
1.19250,13.34298969
1.19300,1.440407789
1.19350,-3.137508326
1.19400,-0.08556424924
1.19450,6.323518312
1.19500,8.765073574
1.19550,6.018323905
1.19600,-0.08556424924
1.19650,-8.936202073
1.19700,-22.0595616
1.19750,-35.79330995
1.19800,-43.72836455
1.19850,-42.50758692
1.19900,-34.57253232
1.19950,-26.33228331
1.20000,-20.22839516
1.20050,-15.34528463
1.20100,-10.1569797
1.20150,-4.663480365
1.20200,-0.08556424924
1.20250,1.135213382
1.20300,1.135213382
1.20350,2.966379828
1.20400,8.765073574
1.20450,16.39493377
1.20500,21.88843311
1.20550,23.41440514
1.20600,22.80401633
1.20650,21.27804429
1.20700,17.92090581
1.20750,12.42740647
1.20800,5.713129497
1.20850,0.2196301585
1.20900,-3.137508326
1.20950,-5.884257996
1.21000,-9.851785296
1.21050,-16.26086786
1.21100,-22.0595616
1.21150,-22.0595616
1.21200,-14.124507
1.21250,-1.611536288
1.21300,9.070267982
1.21350,15.47935054
1.21400,18.53129462
1.21450,19.44687784
1.21500,18.53129462
1.21550,16.70012817
1.21600,14.86896173
1.21650,12.73260087
1.21700,11.51182324
1.21750,13.95337851
1.21800,21.27804429
1.21850,27.07673804
1.21900,21.27804429
1.21950,3.271574235
1.22000,-15.95567345
1.22050,-27.55306094
1.22100,-33.04656028
1.22150,-40.67642047
1.22200,-52.27380797
1.22250,-60.81925138
1.22300,-62.65041783
1.22350,-61.12444579
1.22400,-60.81925138
1.22450,-60.51405697
1.22500,-57.7673073
1.22550,-52.88419678
1.22600,-48.00108626
1.22650,-42.81278133
1.22700,-35.48811554
1.22750,-27.55306094
1.22800,-22.0595616
1.22850,-19.31281193
1.22900,-16.87125667
1.22950,-11.07256293
1.23000,-3.137508326
1.23050,2.355991012
1.23100,3.271574235
1.23150,0.8300189739
1.23200,-0.08556424924
1.23250,2.355991012
1.23300,6.62871272
1.23350,10.29104561
1.23400,13.6481841
1.23450,19.44687784
1.23500,25.24557159
1.23550,27.68712685
1.23600,27.99232126
1.23650,31.34945974
1.23700,39.58970875
1.23750,47.52476335
1.23800,51.18709624
1.23850,53.3234571
1.23900,56.68059558
1.23950,58.51176203
1.24000,55.15462354
1.24050,51.79748506
1.24100,54.84942914
1.24150,61.86890051
1.24200,62.78448374
1.24250,54.23904032
1.24300,41.11568079
1.24350,29.82348771
1.24400,21.88843311
1.24450,18.53129462
1.24500,21.88843311
1.24550,30.12868211
1.24600,37.4533479
1.24650,39.58970875
1.24700,39.58970875
1.24750,41.11568079
1.24800,41.11568079
1.24850,36.53776467
1.24900,27.68712685
1.24950,17.00532258
1.25000,4.187157459
1.25050,-10.76736852
1.25100,-25.41670009
1.25150,-36.70889317
1.25200,-47.39069744
1.25250,-59.90366816
1.25300,-72.41663887
1.25350,-80.35169347
1.25400,-82.79324874
1.25450,-82.79324874
1.25500,-81.2672767
1.25550,-76.68936058
1.25600,-69.66988921
1.25650,-62.34522342
1.25700,-55.93614086
1.25750,-48.00108626
1.25800,-37.31928199
1.25850,-26.0270889
1.25900,-15.04009023
1.25950,-4.053091549
1.26000,5.713129497
1.26050,13.03779528
1.26100,16.70012817
1.26150,18.53129462
1.26200,21.88843311
1.26250,26.16115481
1.26300,28.90790448
1.26350,29.21309889
1.26400,27.99232126
1.26450,26.16115481
1.26500,24.63518277
1.26550,23.41440514
1.26600,23.41440514
1.26650,24.02479396
1.26700,24.02479396
1.26750,22.19362751
1.26800,20.97284988
1.26850,22.49882192
1.26900,25.24557159
1.26950,24.94037718
1.27000,20.97284988
1.27050,16.39493377
1.27100,14.56376732
1.27150,13.95337851
1.27200,11.81701765
1.27250,8.154684759
1.27300,3.271574235
1.27350,-1.30634188
1.27400,-7.715424442
1.27450,-14.42970141
1.27500,-19.00761753
1.27550,-20.53358957
1.27600,-20.83878397
1.27650,-21.44917279
1.27700,-21.7543672
1.27750,-20.83878397
1.27800,-18.70242312
1.27850,-17.48164549
1.27900,-18.70242312
1.27950,-21.7543672
1.28000,-25.7218945
1.28050,-29.38422739
1.28100,-29.6894218
1.28150,-26.0270889
1.28200,-20.22839516
1.28250,-16.56606227
1.28300,-15.04009023
1.28350,-12.59853496
1.28400,-7.105035626
1.28450,-0.08556424924
1.28500,5.407935089
1.28550,11.20662884
1.28600,18.83648903
1.28650,25.85596041
1.28700,28.29751567
1.28750,26.16115481
1.28800,24.32998837
1.28850,24.63518277
1.28900,23.71959955
1.28950,19.44687784
1.29000,16.08973936
1.29050,15.78454495
1.29100,16.70012817
1.29150,14.56376732
1.29200,11.81701765
1.29250,11.20662884
1.29300,10.29104561
1.29350,5.102740682
1.29400,-1.611536288
1.29450,-3.747897142
1.29500,-0.08556424924
1.29550,2.355991012
1.29600,-2.221925103
1.29650,-9.24139648
1.29700,-10.76736852
1.29750,-5.884257996
1.29800,-0.3907586569
1.29850,3.271574235
1.29900,10.29104561
1.29950,22.49882192
1.30000,37.14815349
1.30050,49.66112421
1.30100,58.81695644
1.30150,65.83642781
1.30200,70.10914952
1.30250,67.66759426
1.30300,53.01826269
1.30350,26.77154363
1.30400,-3.137508326
1.30450,-25.7218945
1.30500,-36.09850436
1.30550,-37.31928199
1.30600,-35.48811554
1.30650,-32.74136587
1.30700,-29.6894218
1.30750,-27.55306094
1.30800,-28.77383857
1.30850,-30.91019943
1.30900,-28.77383857
1.30950,-18.39722871
1.31000,-0.6959530646
1.31050,19.14168344
1.31100,39.28451434
1.31150,57.2909844
1.31200,71.02473275
1.31250,77.43381531
1.31300,75.90784327
1.31350,67.97278867
1.31400,57.59617881
1.31450,47.52476335
1.31500,36.23257027
1.31550,21.5832387
1.31600,4.797546274
1.31650,-10.46217411
1.31700,-22.36475601
1.31750,-33.9621435
1.31800,-48.30628067
1.31850,-64.48158427
1.31900,-77.2997494
1.31950,-86.15038722
1.32000,-93.47505301
1.32050,-101.4101076
1.32100,-106.5984125
1.32150,-106.2932181
1.32200,-102.0204964
1.32250,-96.83219149
1.32300,-91.33869215
1.32350,-84.62441518
1.32400,-76.38416617
1.32450,-66.92313954
1.32500,-56.24133527
1.32550,-44.33875337
1.32600,-35.18292113
1.32650,-30.60500502
1.32700,-26.94267213
1.32750,-20.53358957
1.32800,-11.37775733
1.32850,-3.747897142
1.32900,0.8300189739
1.32950,7.239101536
1.33000,16.70012817
1.33050,25.550766
1.33100,31.34945974
1.33150,35.62218145
1.33200,39.89490316
1.33250,42.94684724
1.33300,42.64165283
1.33350,41.4208752
1.33400,43.25204164
1.33450,45.69359691
1.33500,42.94684724
1.33550,34.40140382
1.33600,27.38193244
1.33650,25.24557159
1.33700,24.32998837
1.33750,19.44687784
1.33800,11.51182324
1.33850,4.797546274
1.33900,0.2196301585
1.33950,-2.221925103
1.34000,-1.001147472
1.34050,4.797546274
1.34100,11.81701765
1.34150,15.47935054
1.34200,17.31051699
1.34250,20.97284988
1.34300,24.94037718
1.34350,24.94037718
1.34400,21.27804429
1.34450,17.00532258
1.34500,11.81701765
1.34550,3.271574235
1.34600,-5.579063588
1.34650,-10.1569797
1.34700,-8.936202073
1.34750,-6.494646811
1.34800,-5.579063588
1.34850,-3.747897142
1.34900,-0.08556424924
1.34950,3.271574235
1.35000,3.576768643
1.35050,3.881963051
1.35100,7.849490351
1.35150,15.78454495
1.35200,24.32998837
1.35250,30.43387652
1.35300,33.18062619
1.35350,32.57023737
1.35400,29.5182933
1.35450,24.63518277
1.35500,18.53129462
1.35550,14.56376732
1.35600,17.00532258
1.35650,27.38193244
1.35700,42.33645842
1.35750,57.59617881
1.35800,71.94031597
1.35850,86.58964754
1.35900,98.49222944
1.35950,102.4597567
1.36000,97.27145181
1.36050,84.45328668
1.36100,67.36239985
1.36150,46.30398572
1.36200,20.97284988
1.36250,-7.105035626
1.36300,-35.79330995
1.36350,-60.81925138
1.36400,-79.13091584
1.36450,-92.86466419
1.36500,-105.6828293
1.36550,-116.3646336
1.36600,-118.8061888
1.36650,-111.4815231
1.36700,-98.66335794
1.36750,-85.234804
1.36800,-69.05950039
1.36850,-48.91666948
1.36900,-30.29981061
1.36950,-21.14397838
1.37000,-21.14397838
1.37050,-21.7543672
1.37100,-16.87125667
1.37150,-9.546590888
1.37200,-4.968674772
1.37250,-3.442702734
1.37300,-2.221925103
1.37350,-0.6959530646
1.37400,-2.527119511
1.37450,-9.24139648
1.37500,-16.87125667
1.37550,-22.36475601
1.37600,-26.0270889
1.37650,-32.13097706
1.37700,-41.8971981
1.37750,-54.71536323
1.37800,-69.97508361
1.37850,-87.98155367
1.37900,-104.7672461
1.37950,-111.4815231
1.38000,-104.4620517
1.38050,-88.59194248
1.38100,-71.19586124
1.38150,-56.85172408
1.38200,-44.64394777
1.38250,-33.9621435
1.38300,-25.7218945
1.38350,-19.92320075
1.38400,-15.34528463
1.38450,-11.98814615
1.38500,-7.410230034
1.38550,-1.916730695
1.38600,3.881963051
1.38650,8.765073574
1.38700,12.73260087
1.38750,17.6157114
1.38800,23.10921074
1.38850,27.68712685
1.38900,31.65465415
1.38950,35.62218145
1.39000,40.50529198
1.39050,46.91437454
1.39100,54.84942914
1.39150,62.47928933
1.39200,65.83642781
1.39250,64.00526137
1.39300,60.34292848
1.39350,57.90137321
1.39400,56.07020677
1.39450,51.79748506
1.39500,45.3884025
1.39550,38.67412553
1.39600,31.34945974
1.39650,23.10921074
1.39700,18.53129462
1.39750,21.88843311
1.39800,29.21309889
1.39850,32.87543178
1.39900,31.95984856
1.39950,31.95984856
1.40000,35.62218145
1.40050,39.89490316
1.40100,42.64165283
1.40150,46.91437454
1.40200,53.93384591
1.40250,59.12215084
1.40300,58.51176203
1.40350,54.54423473
1.40400,54.54423473
1.40450,61.86890051
1.40500,74.38187123
1.40550,86.28445313
1.40600,90.55717484
1.40650,83.53770346
1.40700,67.97278867
1.40750,52.71306828
1.40800,42.94684724
1.40850,36.84295908
1.40900,28.29751567
1.40950,17.6157114
1.41000,10.29104561
1.41050,9.680656797
1.41100,10.90143443
1.41150,6.018323905
1.41200,-6.799841219
1.41250,-22.97514483
1.41300,-34.57253232
1.41350,-43.11797574
1.41400,-54.41016882
1.41450,-69.05950039
1.41500,-82.79324874
1.41550,-91.33869215
1.41600,-96.83219149
1.41650,-103.8516629
1.41700,-112.3971063
1.41750,-119.4165777
1.41800,-122.7737161
1.41850,-125.2152714
1.41900,-127.9620211
1.41950,-129.7931875
1.42000,-127.9620211
1.42050,-120.3321609
1.42100,-108.429579
1.42150,-93.78024741
1.42200,-76.99455499
1.42250,-57.15691849
1.42300,-36.70889317
1.42350,-18.70242312
1.42400,-4.358285957
1.42450,6.62871272
1.42500,15.78454495
1.42550,20.36246107
1.42600,19.14168344
1.42650,14.56376732
1.42700,11.20662884
1.42750,8.459879166
1.42800,5.102740682
1.42850,2.355991012
1.42900,2.966379828
1.42950,4.492351866
1.43000,5.102740682
1.43050,8.154684759
1.43100,17.31051699
1.43150,24.63518277
1.43200,20.36246107
1.43250,9.070267982
1.43300,9.985851205
1.43350,31.65465415
1.43400,60.64812288
1.43450,80.48575938
1.43500,94.21950773
1.43550,113.141561
1.43600,136.6415304
1.43650,152.2064452
1.43700,155.5635837
1.43750,155.5635837
1.43800,156.1739725
1.43850,149.4596955
1.43900,130.2324478
1.43950,103.9857288
1.44000,77.1286209
1.44050,47.21956894
1.44100,11.20662884
1.44150,-23.89072805
1.44200,-46.47511422
1.44250,-54.10497441
1.44300,-56.54652967
1.44350,-62.65041783
1.44400,-71.19586124
1.44450,-73.94261091
1.44500,-67.22833394
1.44550,-58.98808494
1.44600,-56.54652967
1.44650,-57.7673073
1.44700,-54.71536323
1.44750,-47.08550304
1.44800,-43.11797574
1.44850,-47.69589185
1.44900,-55.02055764
1.44950,-59.29327934
1.45000,-63.56600105
1.45050,-73.94261091
1.45100,-87.67635926
1.45150,-98.66335794
1.45200,-105.6828293
1.45250,-111.1763287
1.45300,-112.0919119
1.45350,-104.1568573
1.45400,-92.55946978
1.45450,-85.53999841
1.45500,-80.35169347
1.45550,-68.14391717
1.45600,-48.00108626
1.45650,-29.38422739
1.45700,-15.95567345
1.45750,-0.08556424924
1.45800,23.41440514
1.45850,50.27151302
1.45900,73.1610936
1.45950,94.82989655
1.46000,119.855838
1.46050,145.4921682
1.46100,165.6349991
1.46150,179.9791363
1.46200,194.018079
1.46250,208.3622162
1.46300,220.5699925
1.46350,230.641408
1.46400,237.6608794
1.46450,236.4401017
1.46500,222.401159
1.46550,200.4271616
1.46600,177.537581
1.46650,149.7648899
1.46700,107.0376729
1.46750,48.74554098
1.46800,-12.59853496
1.46850,-66.00755631
1.46900,-112.3971063
1.46950,-155.1243234
1.47000,-190.5268747
1.47050,-213.7216496
1.47100,-226.2346204
1.47150,-230.2021477
1.47200,-218.9099546
1.47250,-186.8645418
1.47300,-141.390575
1.47350,-98.35816353
1.47400,-63.26080664
1.47450,-30.60500502
1.47500,2.966379828
1.47550,29.82348771
1.47600,42.64165283
1.47650,45.69359691
1.47700,47.21956894
1.47750,47.21956894
1.47800,40.50529198
1.47850,26.77154363
1.47900,9.37546239
1.47950,-11.68295174
1.48000,-37.9296708
1.48050,-63.56600105
1.48100,-82.18285992
1.48150,-93.78024741
1.48200,-103.5464685
1.48250,-109.0399678
1.48300,-102.3256908
1.48350,-83.70883196
1.48400,-66.31275072
1.48450,-58.68289053
1.48500,-54.71536323
1.48550,-45.25433659
1.48600,-30.60500502
1.48650,-15.34528463
1.48700,-1.916730695
1.48750,6.018323905
1.48800,1.440407789
1.48850,-13.8193126
1.48900,-24.19592246
1.48950,-16.26086786
1.49000,-0.08556424924
1.49050,6.018323905
1.49100,-1.001147472
1.49150,-6.189452403
1.49200,4.492351866
1.49250,27.99232126
1.49300,52.40787388
1.49350,69.80395511
1.49400,80.79095379
1.49450,87.81042517
1.49500,90.55717484
1.49550,82.01173142
1.49600,55.15462354
1.49650,15.47935054
1.49700,-20.53358957
1.49750,-44.94914218
1.49800,-64.48158427
1.49850,-88.59194248
1.49900,-112.3971063
1.49950,-126.1308546
1.50000,-129.1827987
1.50050,-124.2996882
1.50100,-105.9880237
1.50150,-69.66988921
1.50200,-24.50111687
1.50250,15.47935054
1.50300,48.44034658
1.50350,78.65459294
1.50400,103.6805344
1.50450,112.5311722
1.50500,104.901312
1.50550,89.64159162
1.50600,70.41434393
1.50650,45.3884025
1.50700,16.70012817
1.50750,-7.715424442
1.50800,-25.41670009
1.50850,-33.35175469
1.50900,-23.89072805
1.50950,0.8300189739
1.51000,18.83648903
1.51050,3.271574235
1.51100,-40.98161488
1.51150,-83.40363755
1.51200,-103.2412741
1.51250,-107.5139958
1.51300,-108.7347734
1.51350,-105.9880237
1.51400,-96.52699708
1.51450,-84.92960959
1.51500,-74.85819414
1.51550,-61.7348346
1.51600,-45.559531
1.51650,-33.6569491
1.51700,-26.94267213
1.51750,-14.73489582
1.51800,8.154684759
1.51850,29.5182933
1.51900,36.23257027
1.51950,33.4858206
1.52000,38.67412553
1.52050,58.51176203
1.52100,84.45328668
1.52150,106.427284
1.52200,124.4337541
1.52250,148.8493067
1.52300,184.8622468
1.52350,218.1284373
1.52400,224.5375198
1.52450,198.2908008
1.52500,161.057083
1.52550,134.810364
1.52600,110.7000057
1.52650,66.14162222
1.52700,6.62871272
1.52750,-36.40369877
1.52800,-47.08550304
1.52850,-41.5920037
1.52900,-40.37122607
1.52950,-38.84525403
1.53000,-26.0270889
1.53050,-4.663480365
1.53100,13.03779528
1.53150,25.24557159
1.53200,32.57023737
1.53250,34.70659823
1.53300,40.50529198
1.53350,69.80395511
1.53400,120.4662268
1.53450,151.9012508
1.53500,128.7064758
1.53550,73.77148241
1.53600,45.3884025
1.53650,62.78448374
1.53700,89.64159162
1.53750,96.35586858
1.53800,100.6285903
1.53850,125.0441429
1.53900,154.0376116
1.53950,165.3298047
1.54000,167.4661656
1.54050,175.0960258
1.54100,171.7388873
1.54150,140.9142521
1.54200,104.5961176
1.54250,87.50523076
1.54300,61.2585117
1.54350,-17.48164549
1.54400,-131.9295484
1.54450,-223.4878707
1.54500,-282.6955858
1.54550,-351.9747163
1.54600,-436.2083729
1.54650,-477.7148123
1.54700,-440.1759002
1.54750,-355.0266604
1.54800,-262.2475605
1.54850,-163.3645724
1.54900,-56.85172408
1.54950,32.57023737
1.55000,93.30392451
1.55050,141.5246409
1.55100,172.3492761
1.55150,140.6090577
1.55200,34.70659823
1.55250,-80.96208229
1.55300,-143.2217415
1.55350,-168.2476829
1.55400,-207.0073727
1.55450,-260.7215884
1.55500,-291.2410292
1.55550,-287.2735019
1.55600,-270.4878095
1.55650,-248.5138121
1.55700,-212.8060664
1.55750,-171.299627
1.55800,-145.0529079
1.55850,-135.2866869
1.55900,-127.0464379
1.55950,-116.669828
1.56000,-111.1763287
1.56050,-105.0724405
1.56100,-87.98155367
1.56150,-62.95561224
1.56200,-38.23486521
1.56250,-10.46217411
1.56300,20.97284988
1.56350,40.81048638
1.56400,39.58970875
1.56450,32.87543178
1.56500,35.92737586
1.56550,37.4533479
1.56600,24.32998837
1.56650,16.70012817
1.56700,45.99879131
1.56750,108.5636449
1.56800,175.0960258
1.56850,233.3881576
1.56900,294.4270392
1.56950,355.7711151
1.57000,393.6152217
1.57050,396.0567769
1.57100,378.0503069
1.57150,358.5178648
1.57200,338.0698395
1.57250,307.5503987
1.57300,266.9595425
1.57350,224.5375198
1.57400,188.2193853
1.57450,160.1414998
1.57500,138.4726968
1.57550,118.3298659
1.57600,95.74547977
1.57650,68.88837189
1.57700,37.14815349
1.57750,2.66118542
1.57800,-27.55306094
1.57850,-48.61147507
1.57900,-62.04002901
1.57950,-73.02702769
1.58000,-83.70883196
1.58050,-93.78024741
1.58100,-106.9036069
1.58150,-123.384105
1.58200,-136.8126589
1.58250,-149.0204352
1.58300,-180.4554592
1.58350,-243.3255072
1.58400,-313.520221
1.58450,-348.007189
1.58500,-333.0526631
1.58550,-289.1046683
1.58600,-234.4748694
1.58650,-168.8580717
1.58700,-93.1698586
1.58750,-16.87125667
1.58800,56.37540118
1.58850,135.7259472
1.58900,217.212854
1.58950,281.9140685
1.59000,320.3685638
1.59050,340.8165892
1.59100,342.0373668
1.59150,313.0438981
1.59200,259.6348767
1.59250,205.3102721
1.59300,148.5441123
1.59350,57.90137321
1.59400,-75.16338854
1.59450,-206.3969839
1.59500,-285.137141
1.59550,-305.8903608
1.59600,-289.4098628
1.59650,-237.5268134
1.59700,-145.9684911
1.59750,-38.54005962
1.59800,47.52476335
1.59850,112.8363666
1.59900,185.1674412
1.59950,272.4530418
1.60000,349.0568382
1.60050,393.3100273
1.60100,407.6541644
1.60150,392.6996385
1.60200,339.5958115
1.60250,253.5309886
1.60300,157.3947501
1.60350,62.17409492
1.60400,-46.78030863
1.60450,-173.4359878
1.60500,-289.4098628
1.60550,-364.7928815
1.60600,-401.111016
1.60650,-415.7603475
1.60700,-409.0460706
1.60750,-373.0331305
1.60800,-319.0137203
1.60850,-272.0137815
1.60900,-238.1372023
1.60950,-202.734651
1.61000,-161.8386003
1.61050,-132.5399372
1.61100,-127.0464379
1.61150,-131.9295484
1.61200,-117.5854112
1.61250,-68.14391717
1.61300,4.492351866
1.61350,71.32992715
1.61400,108.5636449
1.61450,117.1090883
1.61500,116.4986995
1.61550,123.5181709
1.61600,136.9467248
1.61650,147.6285291
1.61700,153.4272228
1.61750,155.8687781
1.61800,154.9531949
1.61850,154.342806
1.61900,158.9207222
1.61950,162.5830551
1.62000,149.7648899
1.62050,117.1090883
1.62100,83.84289787
1.62150,63.70006696
1.62200,44.47281928
1.62250,10.90143443
1.62300,-29.6894218
1.62350,-61.12444579
1.62400,-85.53999841
1.62450,-110.5659398
1.62500,-125.5204658
1.62550,-122.4685217
1.62600,-132.5399372
1.62650,-196.6307628
1.62700,-296.1241397
1.62750,-355.9422436
1.62800,-329.0851358
1.62850,-246.3774513
1.62900,-165.8061276
1.62950,-99.88413557
1.63000,-25.41670009
1.63050,64.61565018
1.63100,149.7648899
1.63150,209.5829938
1.63200,241.9336011
1.63250,250.7842389
1.63300,241.3232122
1.63350,225.1479086
1.63400,213.5505211
1.63450,203.1739113
1.63500,183.9466636
1.63550,154.342806
1.63600,123.8233653
1.63650,101.5441735
1.63700,95.74547977
1.63750,115.5831163
1.63800,159.2259166
1.63850,204.3946889
1.63900,226.9790751
1.63950,226.3686863
1.64000,221.4855757
1.64050,220.2647981
1.64100,211.7193547
1.64150,183.0310804
1.64200,133.8947807
1.64250,67.66759426
1.64300,-13.8193126
1.64350,-105.3776349
1.64400,-192.0528467
1.64450,-262.5527549
1.64500,-317.7929427
1.64550,-361.1305486
1.64600,-389.2084341
1.64650,-397.4486831
1.64700,-390.4292117
1.64750,-378.8318242
1.64800,-367.5396311
1.64850,-351.9747163
1.64900,-322.6760532
1.64950,-272.3189759
1.65000,-202.1242621
1.65050,-124.6048826
1.65100,-55.02055764
1.65150,1.745602197
1.65200,53.3234571
1.65250,99.40781266
1.65300,126.2649205
1.65350,127.4856982
1.65400,123.8233653
1.65450,147.3233347
1.65500,205.0050777
1.65550,272.7582362
1.65600,324.6412855
1.65650,359.1282536
1.65700,388.4269168
1.65750,417.7255799
1.65800,444.5826878
1.65850,465.6411019
1.65900,478.7644614
1.65950,478.7644614
1.66000,460.7579914
1.66050,423.5242736
1.66100,365.8425306
1.66150,286.4919846
1.66200,190.966135
1.66250,92.38834128
1.66300,-2.832313919
1.66350,-102.3256908
1.66400,-211.5852888
1.66450,-323.286442
1.66500,-422.4746245
1.66550,-501.5199761
1.66600,-556.4549695
1.66650,-580.2601333
1.66700,-573.5458563
1.66750,-550.6562757
1.66800,-524.4095567
1.66850,-486.5654501
1.66900,-423.6954021
1.66950,-344.6500505
1.67000,-270.7930039
1.67050,-200.2930957
1.67100,-110.5659398
1.67150,-4.663480365
1.67200,71.94031597
1.67250,86.58964754
1.67300,64.31045578
1.67350,60.64812288
1.67400,92.08314688
1.67450,124.7389485
1.67500,129.9272534
1.67550,122.2973932
1.67600,126.8753094
1.67650,139.0830857
1.67700,138.1675024
1.67750,123.5181709
1.67800,117.7194771
1.67850,131.1480311
1.67900,147.9337235
1.67950,149.1545011
1.68000,129.3168646
1.68050,91.47275806
1.68100,38.97931994
1.68150,-18.0920343
1.68200,-64.48158427
1.68250,-91.03349774
1.68300,-103.5464685
1.68350,-106.5984125
1.68400,-99.27374675
1.68450,-87.67635926
1.68500,-90.42310893
1.68550,-118.1958
1.68600,-150.8516017
1.68650,-156.6502954
1.68700,-127.3516323
1.68750,-84.01402637
1.68800,-51.66341915
1.68850,-41.28680929
1.68900,-45.25433659
1.68950,-45.559531
1.69000,-24.50111687
1.69050,17.6157114
1.69100,59.12215084
1.69150,77.1286209
1.69200,71.32992715
1.69250,57.2909844
1.69300,44.47281928
1.69350,29.21309889
1.69400,9.680656797
1.69450,-10.1569797
1.69500,-29.6894218
1.69550,-50.74783593
1.69600,-65.3971675
1.69650,-61.7348346
1.69700,-43.42317014
1.69750,-29.38422739
1.69800,-26.33228331
1.69850,-15.04009023
1.69900,27.99232126
1.69950,97.88184062
1.70000,166.8557768
1.70050,215.3816876
1.70100,244.6803507
1.70150,259.0244879
1.70200,253.2257941
1.70250,218.7388261
1.70300,158.3103333
1.70350,83.53770346
1.70400,10.59624002
1.70450,-42.20239251
1.70500,-60.81925138
1.70550,-50.13744711
1.70600,-37.6244764
1.70650,-41.5920037
1.70700,-47.39069744
1.70750,-26.63747772
1.70800,23.71959955
1.70850,81.0961482
1.70900,131.7584199
1.70950,182.1154971
1.71000,224.8427142
1.71050,230.9466024
1.71100,188.2193853
1.71150,126.5701149
1.71200,79.57017616
1.71250,45.08320809
1.71300,1.745602197
1.71350,-47.69589185
1.71400,-88.89713689
1.71450,-125.2152714
1.71500,-169.1632661
1.71550,-206.7021783
1.71600,-211.5852888
1.71650,-189.306097
1.71700,-176.1827375
1.71750,-187.1697362
1.71800,-199.6827069
1.71850,-192.3580411
1.71900,-165.5009332
1.71950,-127.9620211
1.72000,-90.11791452
1.72050,-76.68936058
1.72100,-107.2088014
1.72150,-154.5139345
1.72200,-161.8386003
1.72250,-114.5334671
1.72300,-57.15691849
1.72350,-26.33228331
1.72400,-8.631007665
1.72450,19.14168344
1.72500,46.91437454
1.72550,57.90137321
1.72600,65.53123341
1.72650,87.50523076
1.72700,111.615589
1.72750,118.0246715
1.72800,111.0052002
1.72850,104.2909232
1.72900,94.21950773
1.72950,77.43381531
1.73000,68.88837189
1.73050,76.51823208
1.73100,82.92731465
1.73150,79.87537057
1.73200,90.86236925
1.73250,133.2843919
1.73300,181.5051083
1.73350,199.8167728
1.73400,192.492107
1.73450,185.77783
1.73500,189.7453573
1.73550,202.8687169
1.73600,228.1998527
1.73650,254.4465718
1.73700,247.4271004
1.73750,198.9011896
1.73800,147.6285291
1.73850,122.2973932
1.73900,95.13509095
1.73950,34.70659823
1.74000,-31.21539383
1.74050,-65.09197309
1.74100,-89.2023313
1.74150,-149.9360184
1.74200,-233.2540917
1.74250,-277.5072808
1.74300,-268.656643
1.74350,-249.1242009
1.74400,-246.3774513
1.74450,-250.0397842
1.74500,-266.5202822
1.74550,-324.2020252
1.74600,-412.7084035
1.74650,-472.8317018
1.74700,-473.4420906
1.74750,-448.1109548
1.74800,-433.1564288
1.74850,-413.0135979
1.74900,-355.9422436
1.74950,-268.9618374
1.75000,-182.2866256
1.75050,-104.7672461
1.75100,-24.19592246
1.75150,60.64812288
1.75200,131.7584199
1.75250,172.9596649
1.75300,184.8622468
1.75350,186.3882189
1.75400,206.2258554
1.75450,260.2452655
1.75500,331.0503681
1.75550,380.4918622
1.75600,389.0373056
1.75650,368.5892803
1.75700,336.238673
1.75750,294.4270392
1.75800,242.2387955
1.75850,187.6089965
1.75900,131.4532255
1.75950,63.70006696
1.76000,-10.76736852
1.76050,-60.20886257
1.76100,-57.15691849
1.76150,-17.17645108
1.76200,17.92090581
1.76250,31.65465415
1.76300,37.14815349
1.76350,45.99879131
1.76400,50.57670743
1.76450,47.52476335
1.76500,52.71306828
1.76550,81.0961482
1.76600,125.9597261
1.76650,173.2648593
1.76700,217.8232428
1.76750,252.6154053
1.76800,260.5504599
1.76850,234.3037409
1.76900,196.4596343
1.76950,181.8103027
1.77000,194.9336623
1.77050,203.1739113
1.77100,175.4012202
1.77150,110.3948113
1.77200,22.19362751
1.77250,-82.48805433
1.77300,-200.9034845
1.77350,-317.7929427
1.77400,-414.2343755
1.77450,-484.4290893
1.77500,-537.5329162
1.77550,-578.1237724
1.77600,-597.0458257
1.77650,-588.5003823
1.77700,-557.9809415
1.77750,-514.3381412
1.77800,-460.3187311
1.77850,-400.5006272
1.77900,-344.955245
1.77950,-299.7864726
1.78000,-259.1956164
1.78050,-219.215149
1.78100,-188.0853194
1.78150,-167.9424885
1.78200,-140.4749918
1.78250,-87.06597044
1.78300,-19.31281193
1.78350,36.84295908
1.78400,75.90784327
1.78450,109.1740337
1.78500,131.1480311
1.78550,123.8233653
1.78600,94.21950773
1.78650,72.55070478
1.78700,68.27798308
1.78750,59.42734525
1.78800,40.20009757
1.78850,36.84295908
1.78900,59.73253966
1.78950,78.95978735
1.79000,74.07667682
1.79050,64.00526137
1.79100,51.18709624
1.79150,-18.70242312
1.79200,-185.6437641
1.79250,-388.5980453
1.79300,-513.1173636
1.79350,-516.1693077
1.79400,-446.5849827
1.79450,-351.9747163
1.79500,-219.5203434
1.79550,-28.16344976
1.79600,199.8167728
1.79650,418.9463575
1.79700,602.673391
1.79750,738.179708
1.79800,816.6146708
1.79850,837.0626961
1.79900,810.815977
1.79950,742.7576241
1.80000,631.3616653
1.80050,494.3293762
1.80100,364.621753
1.80150,255.9725438
1.80200,158.0051389
1.80250,70.41434393
1.80300,16.70012817
1.80350,3.271574235
1.80400,-1.916730695
1.80450,-35.48811554
1.80500,-93.1698586
1.80550,-148.4100464
1.80600,-190.2216802
1.80650,-233.8644805
1.80700,-298.565695
1.80750,-382.4941571
1.80800,-456.6563982
1.80850,-476.4940347
1.80900,-418.5070972
1.80950,-304.0591943
1.81000,-172.825599
1.81050,-39.15044844
1.81100,100.3233959
1.81150,231.2517968
1.81200,325.2516744
1.81250,386.5957503
1.81300,448.8554095
1.81350,515.082596
1.81400,540.4137318
1.81450,497.3813203
1.81500,424.4398569
1.81550,377.1347237
1.81600,358.8230592
1.81650,334.712701
1.81700,292.2906783
1.81750,248.647878
1.81800,207.1414386
1.81850,145.4921682
1.81900,53.62865151
1.81950,-39.76083725
1.82000,-100.18933
1.82050,-126.7412434
1.82100,-144.7477135
1.82150,-163.9749612
1.82200,-158.1762674
1.82250,-102.6308852
1.82300,-14.73489582
1.82350,51.49229065
1.82400,58.51176203
1.82450,16.08973936
1.82500,-33.6569491
1.82550,-50.44264152
1.82600,-17.48164549
1.82650,43.25204164
1.82700,79.57017616
1.82750,51.79748506
1.82800,-19.00761753
1.82850,-78.82572144
1.82900,-112.3971063
1.82950,-159.3970451
1.83000,-241.4943407
1.83050,-318.0981371
1.83100,-337.9357736
1.83150,-300.3968614
1.83200,-237.8320078
1.83250,-170.3840437
1.83300,-105.6828293
1.83350,-59.90366816
1.83400,-37.6244764
1.83450,-20.83878397
1.83500,-7.410230034
1.83550,-33.6569491
1.83600,-123.6892994
1.83650,-242.1047296
1.83700,-333.3578575
1.83750,-386.4616844
1.83800,-421.5590413
1.83850,-436.8187617
1.83900,-414.2343755
1.83950,-361.1305486
1.84000,-308.331916
1.84050,-266.5202822
1.84100,-228.0657868
1.84150,-200.5982901
1.84200,-204.5658174
1.84250,-232.6437029
1.84300,-249.7345897
1.84350,-237.5268134
1.84400,-211.2800944
1.84450,-185.9489585
1.84500,-149.630824
1.84550,-89.50752571
1.84600,-20.53358957
1.84650,25.24557159
1.84700,41.72606961
1.84750,55.45981795
1.84800,89.64159162
1.84850,132.9791975
1.84900,160.1414998
1.84950,172.6544705
1.85000,191.8817182
1.85050,215.3816876
1.85100,216.6024652
1.85150,193.1024958
1.85200,180.2843307
1.85250,199.206384
1.85300,225.1479086
1.85350,235.5245185
1.85400,249.5634613
1.85450,276.7257635
1.85500,266.0439593
1.85550,166.2453879
1.85600,18.53129462
1.85650,-75.46858295
1.85700,-80.96208229
1.85750,-56.85172408
1.85800,-55.63094645
1.85850,-53.18939119
1.85900,-5.884257996
1.85950,74.68706564
1.86000,145.7973626
1.86050,195.2388567
1.86100,244.6803507
1.86150,303.5828714
1.86200,357.907476
1.86250,390.2580832
1.86300,396.6671658
1.86350,380.4918622
1.86400,349.9724214
1.86450,313.6542869
1.86500,269.7062922
1.86550,209.2777994
1.86600,130.8428367
1.86650,43.86243046
1.86700,-41.5920037
1.86750,-121.2477441
1.86800,-183.8125977
1.86850,-215.8580105
1.86900,-222.2670931
1.86950,-228.3709812
1.87000,-246.9878401
1.87050,-260.7215884
1.87100,-243.3255072
1.87150,-192.0528467
1.87200,-121.8581329
1.87250,-39.15044844
1.87300,59.12215084
1.87350,166.2453879
1.87400,262.6868208
1.87450,335.9334786
1.87500,389.9528888
1.87550,429.9333562
1.87600,450.9917703
1.87650,449.1606039
1.87700,431.7645226
1.87750,405.5178036
1.87800,361.2646145
1.87850,284.6608181
1.87900,181.5051083
1.87950,80.48575938
1.88000,-2.527119511
1.88050,-90.42310893
1.88100,-211.5852888
1.88150,-349.8383555
1.88200,-448.7213436
1.88250,-478.6303955
1.88300,-477.1044235
1.88350,-498.1628376
1.88400,-542.1108323
1.88450,-564.3900241
1.88500,-543.33161
1.88550,-497.8576432
1.88600,-444.1434275
1.88650,-373.0331305
1.88700,-288.7994739
1.88750,-227.455398
1.88800,-212.1956776
1.88850,-212.8060664
1.88900,-184.7281809
1.88950,-120.9425497
1.89000,-42.50758692
1.89050,36.23257027
1.89100,108.5636449
1.89150,157.3947501
1.89200,175.4012202
1.89250,183.9466636
1.89300,202.2583281
1.89350,215.3816876
1.89400,208.3622162
1.89450,209.2777994
1.89500,250.4790445
1.89550,311.517926
1.89600,343.8685332
1.89650,345.6996997
1.89700,356.6866984
1.89750,385.3749727
1.89800,389.6476944
1.89850,339.2906171
1.89900,245.9011284
1.89950,126.2649205
1.90000,-10.76736852
1.90050,-136.2022701
1.90100,-207.3125671
1.90150,-223.4878707
1.90200,-228.3709812
1.90250,-239.9683687
1.90300,-226.5398148
1.90350,-173.1307934
1.90400,-125.8256602
1.90450,-127.9620211
1.90500,-155.1243234
1.90550,-148.7152408
1.90600,-91.64388656
1.90650,-16.56606227
1.90700,43.86243046
1.90750,79.26498175
1.90800,84.14809228
1.90850,56.68059558
1.90900,8.459879166
1.90950,-41.28680929
1.91000,-81.2672767
1.91050,-106.2932181
1.91100,-114.5334671
1.91150,-110.8711342
1.91200,-106.5984125
1.91250,-104.7672461
1.91300,-98.35816353
1.91350,-87.37116485
1.91400,-84.01402637
1.91450,-92.86466419
1.91500,-100.4945244
1.91550,-94.08544182
1.91600,-78.82572144
1.91650,-67.53352835
1.91700,-67.83872276
1.91750,-81.2672767
1.91800,-107.2088014
1.91850,-135.8970757
1.91900,-148.7152408
1.91950,-130.4035763
1.92000,-79.74130466
1.92050,-6.799841219
1.92100,80.48575938
1.92150,186.6934133
1.92200,320.3685638
1.92250,468.3878516
1.92300,578.5630328
1.92350,599.6214469
1.92400,541.329315
1.92450,472.0501845
1.92500,434.5112723
1.92550,400.3294987
1.92600,322.5049247
1.92650,209.5829938
1.92700,107.0376729
1.92750,38.36893112
1.92800,-4.663480365
1.92850,-29.38422739
1.92900,-36.70889317
1.92950,-42.81278133
1.93000,-61.4296402
1.93050,-79.13091584
1.93100,-80.96208229
1.93150,-96.83219149
1.93200,-176.7931263
1.93250,-311.6890545
1.93300,-426.7473462
1.93350,-461.2343143
1.93400,-427.0525406
1.93450,-374.5591025
1.93500,-328.1695525
1.93550,-277.5072808
1.93600,-215.8580105
1.93650,-157.871073
1.93700,-117.8906056
1.93750,-89.50752571
1.93800,-54.41016882
1.93850,-9.546590888
1.93900,27.68712685
1.93950,47.82995776
1.94000,62.17409492
1.94050,87.20003635
1.94100,119.5506436
1.94150,147.3233347
1.94200,165.3298047
1.94250,173.8752481
1.94300,169.6025264
1.94350,158.9207222
1.94400,163.8038327
1.94450,187.3038021
1.94500,191.2713294
1.94550,142.4402241
1.94600,67.05720545
1.94650,14.25857291
1.94700,-24.50111687
1.94750,-104.1568573
1.94800,-229.2865644
1.94850,-332.7474686
1.94900,-363.8772982
1.94950,-348.007189
1.95000,-331.2214966
1.95050,-306.5007496
1.95100,-242.409924
1.95150,-145.3581023
1.95200,-51.66341915
1.95250,28.60271007
1.95300,118.9402548
1.95350,231.2517968
1.95400,353.6347543
1.95450,468.693046
1.95500,561.1669515
1.95550,607.8616959
1.95600,590.1604202
1.95650,517.2189568
1.95700,410.7061085
1.95750,276.1153747
1.95800,109.4792281
1.95850,-75.46858295
1.95900,-254.0073115
1.95950,-417.2863196
1.96000,-568.3575514
1.96050,-689.8249257
1.96100,-755.7469177
1.96150,-781.6884424
1.96200,-815.5650216
1.96250,-868.0584598
1.96300,-880.2662361
1.96350,-792.0650522
1.96400,-615.0522958
1.96450,-411.4876258
1.96500,-226.8450092
1.96550,-68.75430598
1.96600,60.64812288
1.96650,147.6285291
1.96700,185.77783
1.96750,188.8297741
1.96800,179.0635531
1.96850,170.5181097
1.96900,161.057083
1.96950,139.3882801
1.97000,103.6805344
1.97050,78.34939853
1.97100,100.9337847
1.97150,183.9466636
1.97200,302.9724826
1.97250,418.0307743
1.97300,490.9722377
1.97350,492.8034042
1.97400,422.303496
1.97450,325.5568688
1.97500,272.7582362
1.97550,292.9010671
1.97600,358.2126704
1.97650,433.2904947
1.97700,510.5046798
1.97750,588.0240594
1.97800,645.400608
1.97850,667.3746054
1.97900,664.0174669
1.97950,648.1473577
1.98000,610.91364
1.98050,542.8552871
1.98100,454.0437144
1.98150,349.9724214
1.98200,216.6024652
1.98250,49.66112421
1.98300,-118.1958
1.98350,-256.4488667
1.98400,-373.3383249
1.98450,-497.8576432
1.98500,-629.3964329
1.98550,-740.1820029
1.98600,-811.2922999
1.98650,-841.8117407
1.98700,-832.3507141
1.98750,-790.5390802
1.98800,-742.0131694
1.98850,-709.9677566
1.98900,-686.4677872
1.98950,-647.402903
1.99000,-589.7211599
1.99050,-529.5978616
1.99100,-471.6109241
1.99150,-404.7733489
1.99200,-327.5591637
1.99250,-243.0203128
1.99300,-143.8321303
1.99350,-29.38422739
1.99400,60.03773407
1.99450,73.1610936
1.99500,20.05726666
1.99550,-23.28033923
1.99600,-3.747897142
1.99650,53.01826269
1.99700,92.38834128
1.99750,107.0376729
1.99800,125.0441429
1.99850,151.290862
1.99900,158.9207222
1.99950,129.3168646
2.00000,69.1935663
2.00050,-9.24139648
2.00100,-94.39063623
2.00150,-161.8386003
2.00200,-192.3580411
2.00250,-194.1892075
2.00300,-186.2541529
2.00350,-161.5334059
2.00400,-97.74777471
2.00450,-1.30634188
2.00500,93.91431332
2.00550,171.1284985
2.00600,237.0504905
2.00650,288.9335398
2.00700,309.0763708
2.00750,301.1413162
2.00800,287.1023734
2.00850,260.5504599
2.00900,183.3362748
2.00950,53.62865151
2.01000,-66.00755631
2.01050,-115.143856
2.01100,-100.4945244
2.01150,-69.97508361
2.01200,-47.69589185
2.01250,-32.13097706
2.01300,-29.6894218
2.01350,-49.5270583
2.01400,-76.38416617
2.01450,-81.57247111
2.01500,-54.71536323
2.01550,-8.631007665
2.01600,37.75854231
2.01650,70.41434393
2.01700,81.40134261
2.01750,77.1286209
2.01800,71.94031597
2.01850,68.58317748
2.01900,61.86890051
2.01950,67.66759426
2.02000,119.5506436
2.02050,219.3492149
2.02100,324.6412855
2.02150,399.4139154
2.02200,449.1606039
2.02250,489.1410713
2.02300,506.5371525
2.02350,482.1215999
2.02400,422.6086904
2.02450,345.0893109
2.02500,251.6998221
2.02550,147.0181403
2.02600,57.59617881
2.02650,5.102740682
2.02700,-27.85825535
2.02750,-72.41663887
2.02800,-127.3516323
2.02850,-166.111322
2.02900,-172.2152102
2.02950,-147.4944632
2.03000,-100.7997188
2.03050,-50.44264152
2.03100,-20.53358957
2.03150,-11.98814615
2.03200,5.407935089
2.03250,56.07020677
2.03300,122.2973932
2.03350,172.6544705
2.03400,202.5635225
2.03450,225.1479086
2.03500,241.0180178
2.03550,247.121906
2.03600,257.4985159
2.03650,285.5764014
2.03700,311.8231204
2.03750,305.4140379
2.03800,268.7907089
2.03850,229.1154359
2.03900,193.7128846
2.03950,143.9661962
2.04000,75.90784327
2.04050,13.03779528
2.04100,-30.91019943
2.04150,-74.55299973
2.04200,-136.5074645
2.04250,-208.5333447
2.04300,-270.7930039
2.04350,-318.7085259
2.04400,-356.5526324
2.04450,-380.0526018
2.04500,-378.2214354
2.04550,-350.4487443
2.04600,-303.7539999
2.04650,-243.6307016
2.04700,-179.539876
2.04750,-132.5399372
2.04800,-120.9425497
2.04850,-135.8970757
2.04900,-150.8516017
2.04950,-153.9035457
2.05000,-158.7866563
2.05050,-173.4359878
2.05100,-174.6567655
2.05150,-130.0983819
2.05200,-41.28680929
2.05250,63.08967814
2.05300,166.5505824
2.05350,277.0309579
2.05400,394.2256105
2.05450,490.0566545
2.05500,541.9397038
2.05550,562.0825347
2.05600,570.6279782
2.05650,556.283841
2.05700,490.6670433
2.05750,378.3555013
2.05800,259.6348767
2.05850,166.8557768
2.05900,97.88184062
2.05950,32.26504297
2.06000,-48.30628067
2.06050,-157.5658786
2.06100,-286.9683075
2.06150,-394.396739
2.06200,-439.8707057
2.06250,-444.1434275
2.06300,-468.8641745
2.06350,-528.377084
2.06400,-552.4874422
2.06450,-463.981064
2.06500,-269.5722262
2.06550,-44.33875337
2.06600,148.2389179
2.06650,289.8491231
2.06700,378.6606957
2.06750,409.7905253
2.06800,388.4269168
2.06850,334.712701
2.06900,265.4335705
2.06950,186.9986077
2.07000,102.4597567
2.07050,15.78454495
2.07100,-72.72183328
2.07150,-159.3970451
2.07200,-224.4034539
2.07250,-249.4293953
2.07300,-244.2410904
2.07350,-238.7475911
2.07400,-252.4813394
2.07450,-281.1696137
2.07500,-314.1306098
2.07550,-348.3123834
2.07600,-377.916241
2.07650,-390.7344061
2.07700,-381.8837683
2.07750,-361.1305486
2.07800,-337.0201904
2.07850,-302.8384167
2.07900,-252.176145
2.07950,-197.546346
2.08000,-153.5983513
2.08050,-111.7867175
2.08100,-50.13744711
2.08150,28.60271007
2.08200,100.6285903
2.08250,163.4986383
2.08300,245.9011284
2.08350,361.8750033
2.08400,485.173544
2.08450,584.3617265
2.08500,660.6603284
2.08550,718.0368771
2.08600,725.3615429
2.08650,652.7252738
2.08700,526.0695946
2.08750,406.4333868
2.08800,313.3490925
2.08850,215.9920764
2.08900,99.40781266
2.08950,-2.527119511
2.09000,-55.63094645
2.09050,-66.00755631
2.09100,-55.63094645
2.09150,-24.80631127
2.09200,36.84295908
2.09250,118.0246715
2.09300,190.966135
2.09350,242.8491843
2.09400,279.7777076
2.09450,307.2452043
2.09500,319.758175
2.09550,309.991954
2.09600,277.0309579
2.09650,227.2842695
2.09700,164.4142215
2.09750,88.72600839
2.09800,1.135213382
2.09850,-92.86466419
2.09900,-187.780125
2.09950,-282.3903914
2.10000,-379.442213
2.10050,-474.9680626
2.10100,-556.7601639
2.10150,-613.5263237
2.10200,-644.9613477
2.10250,-657.7795128
2.10300,-660.2210681
2.10350,-652.5912079
2.10400,-623.9029336
2.10450,-560.7276912
2.10500,-463.6758695
2.10550,-347.3968002
2.10600,-221.3515098
2.10650,-85.53999841
2.10700,48.44034658
2.10750,151.9012508
2.10800,205.3102721
2.10850,224.8427142
2.10900,231.2517968
2.10950,206.2258554
2.11000,110.7000057
2.11050,-51.96861356
2.11100,-214.026844
2.11150,-302.8384167
2.11200,-310.1630825
2.11250,-284.5267522
2.11300,-264.0787269
2.11350,-234.169675
2.11400,-160.3126283
2.11450,-51.96861356
2.11500,33.18062619
2.11550,56.98578999
2.11600,58.20656762
2.11650,112.5311722
2.11700,246.5115172
2.11750,419.2515519
2.11800,586.8032818
2.11850,745.1991794
2.11900,897.4911888
2.11950,1020.484535
2.12000,1087.627305
2.12050,1100.44547
2.12100,1067.484474
2.12150,976.8417348
2.12200,817.2250596
2.12250,611.8292232
2.12300,396.9723602
2.12350,177.8427754
2.12400,-59.29327934
2.12450,-305.5851664
2.12500,-522.2731958
2.12550,-680.9742878
2.12600,-779.8572759
2.12650,-821.6689098
2.12700,-804.2728285
2.12750,-736.8248644
2.12800,-643.7405701
2.12850,-543.6368044
2.12900,-441.0914834
2.12950,-344.6500505
2.13000,-271.0981983
2.13050,-222.2670931
2.13100,-179.8450704
2.13150,-135.8970757
2.13200,-107.8191902
2.13250,-110.5659398
2.13300,-128.2672155
2.13350,-138.0334365
2.13400,-143.2217415
2.13450,-158.4814618
2.13500,-178.3190983
2.13550,-193.5788187
2.13600,-221.0463154
2.13650,-284.2215578
2.13700,-362.3513262
2.13750,-401.111016
2.13800,-382.7993515
2.13850,-346.1760226
2.13900,-320.2344979
2.13950,-276.896892
2.14000,-176.7931263
2.14050,-29.38422739
2.14100,120.7714212
2.14150,253.5309886
2.14200,375.6087516
2.14250,486.699516
2.14300,573.3747278
2.14350,632.5824429
2.14400,671.6473271
2.14450,680.8031593
2.14500,631.9720541
2.14550,518.13454
2.14600,367.0633082
2.14650,210.4985771
2.14700,56.98578999
2.14750,-95.30621945
2.14800,-235.695647
2.14850,-339.76694
2.14900,-397.4486831
2.14950,-419.7278748
2.15000,-424.6109854
2.15050,-420.6434581
2.15100,-405.6889321
2.15150,-377.0006578
2.15200,-335.1890239
2.15250,-291.5462236
2.15300,-267.7410598
2.15350,-282.6955858
2.15400,-327.5591637
2.15450,-358.9941877
2.15500,-330.3059134
2.15550,-230.8125365
2.15600,-87.67635926
2.15650,64.00526137
2.15700,205.0050777
2.15750,328.9140073
2.15800,433.5956891
2.15850,523.0176506
2.15900,600.2318357
2.15950,660.0499396
2.16000,692.4005468
2.16050,698.504435
2.16100,688.4330195
2.16150,664.0174669
2.16200,619.153889
2.16250,554.757869
2.16300,483.0371831
2.16350,404.6022204
2.16400,300.5309273
2.16450,160.7518886
2.16500,13.03779528
2.16550,-95.00102504
2.16600,-142.3061582
2.16650,-147.4944632
2.16700,-147.7996576
2.16750,-161.2282115
2.16800,-181.065848
2.16850,-196.9359572
2.16900,-209.4489279
2.16950,-220.1307322
2.17000,-217.6891769
2.17050,-189.0009026
2.17100,-137.4230477
2.17150,-80.35169347
2.17200,-23.89072805
2.17250,37.4533479
2.17300,100.6285903
2.17350,145.4921682
2.17400,158.0051389
2.17450,142.1350297
2.17500,102.1545623
2.17550,36.23257027
2.17600,-48.30628067
2.17650,-132.5399372
2.17700,-202.734651
2.17750,-263.7735325
2.17800,-325.1176085
2.17850,-386.4616844
2.17900,-443.838233
2.17950,-486.5654501
2.18000,-492.0589495
2.18050,-442.6174554
2.18100,-355.0266604
2.18150,-271.4033927
2.18200,-212.8060664
2.18250,-167.6372941
2.18300,-135.2866869
2.18350,-143.2217415
2.18400,-205.4814006
2.18450,-292.7670012
2.18500,-362.6565206
2.18550,-402.9421824
2.18600,-423.0850133
2.18650,-421.5590413
2.18700,-387.0720732
2.18750,-316.572165
2.18800,-215.8580105
2.18850,-94.08544182
2.18900,33.4858206
2.18950,147.0181403
2.19000,241.6284067
2.19050,329.8295905
2.19100,411.0113029
2.19150,457.0956585
2.19200,447.3294374
2.19250,400.9398875
2.19300,352.1087822
2.19350,303.8880658
2.19400,228.8102415
2.19450,115.8883107
2.19500,-6.799841219
2.19550,-100.18933
2.19600,-152.0723793
2.19650,-176.4879319
2.19700,-181.6762368
2.19750,-154.2087401
2.19800,-89.81272011
2.19850,-18.39722871
2.19900,22.19362751
2.19950,36.53776467
2.20000,64.61565018
2.20050,117.1090883
2.20100,154.0376116
2.20150,143.3558074
2.20200,110.0896169
2.20250,92.08314688
2.20300,78.65459294
2.20350,38.36893112
2.20400,-15.04009023
2.20450,-39.76083725
2.20500,-35.79330995
2.20550,-52.27380797
2.20600,-107.2088014
2.20650,-154.2087401
2.20700,-141.390575
2.20750,-69.3646948
2.20800,30.43387652
2.20850,142.1350297
2.20900,260.2452655
2.20950,368.5892803
2.21000,446.1086598
2.21050,486.0891272
2.21100,495.2449595
2.21150,479.3748502
2.21200,438.783994
2.21250,378.3555013
2.21300,309.0763708
2.21350,249.2582668
2.21400,219.9596037
2.21450,229.1154359
2.21500,262.6868208
2.21550,298.3945665
2.21600,330.4399793
2.21650,367.3685026
2.21700,411.0113029
2.21750,449.7709927
2.21800,469.3034348
2.21850,463.504741
2.21900,431.7645226
2.21950,374.6931684
2.22000,291.9854839
2.22050,181.5051083
2.22100,45.99879131
2.22150,-101.715302
2.22200,-246.6826457
2.22250,-385.5461012
2.22300,-514.6433356
2.22350,-607.4224356
2.22400,-631.5327938
2.22450,-597.0458257
2.22500,-552.4874422
2.22550,-514.0329468
2.22600,-445.6693995
2.22650,-331.8318854
2.22700,-228.3709812
2.22750,-196.3255684
2.22800,-208.2281503
2.22850,-185.0333753
2.22900,-112.3971063
2.22950,-56.24133527
2.23000,-60.20886257
2.23050,-88.59194248
2.23100,-91.64388656
2.23150,-79.13091584
2.23200,-92.55946978
2.23250,-138.6438253
2.23300,-191.7476523
2.23350,-236.0008414
2.23400,-275.37092
2.23450,-308.9423048
2.23500,-326.3383861
2.23550,-326.0331917
2.23600,-314.4358042
2.23650,-290.325446
2.23700,-239.9683687
2.23750,-158.7866563
2.23800,-57.4621129
2.23850,45.69359691
2.23900,135.4207528
2.23950,200.1219672
2.24000,234.3037409
2.24050,239.1868514
2.24100,215.686882
2.24150,162.5830551
2.24200,84.14809228
2.24250,-2.221925103
2.24300,-78.82572144
2.24350,-144.4425191
2.24400,-208.2281503
2.24450,-267.7410598
2.24500,-301.3124447
2.24550,-285.7475299
2.24600,-218.9099546
2.24650,-118.5009944
2.24700,-3.442702734
2.24750,112.2259778
2.24800,214.7712988
2.24850,286.4919846
2.24900,315.4854533
2.24950,306.6348155
2.25000,275.8101803
2.25050,237.3556849
2.25100,198.9011896
2.25150,161.9726662
2.25200,123.2129765
2.25250,73.46628801
2.25300,13.34298969
2.25350,-40.06603166
2.25400,-73.02702769
2.25450,-91.94908097
2.25500,-115.143856
2.25550,-140.1697974
2.25600,-146.2736855
2.25650,-127.9620211
2.25700,-102.6308852
2.25750,-77.60494381
2.25800,-38.23486521
2.25850,20.05726666
2.25900,77.43381531
2.25950,124.1285597
2.26000,184.251858
2.26050,269.4010978
2.26100,342.6477556
2.26150,359.433448
2.26200,331.0503681
2.26250,308.4659819
2.26300,312.1283148
2.26350,322.1997303
2.26400,322.1997303
2.26450,310.9075372
2.26500,273.3686251
2.26550,195.5440511
2.26600,107.9532561
2.26650,67.97278867
2.26700,84.75848109
2.26750,108.2584505
2.26800,107.3428673
2.26850,108.2584505
2.26900,134.810364
2.26950,155.8687781
2.27000,134.1999751
2.27050,84.75848109
2.27100,39.58970875
2.27150,-13.8193126
2.27200,-111.4815231
2.27250,-244.2410904
2.27300,-366.9292423
2.27350,-467.033008
2.27400,-575.3770228
2.27450,-702.3378964
2.27500,-811.2922999
2.27550,-865.9220989
2.27600,-869.5844318
2.27650,-837.2338246
2.27700,-763.9871667
2.27750,-648.3184862
2.27800,-518.6108629
2.27850,-412.4032091
2.27900,-335.7994127
2.27950,-270.1826151
2.28000,-206.3969839
2.28050,-150.8516017
2.28100,-105.3776349
2.28150,-60.81925138
2.28200,-15.95567345
2.28250,19.75207225
2.28300,47.21956894
2.28350,82.62212024
2.28400,135.7259472
2.28450,194.6284679
2.28500,237.9660738
2.28550,259.0244879
2.28600,269.7062922
2.28650,283.4400405
2.28700,301.4465106
2.28750,309.3815652
2.28800,291.3750951
2.28850,240.7128234
2.28900,162.2778606
2.28950,68.58317748
2.29000,-19.61800634
2.29050,-80.04649907
2.29100,-104.4620517
2.29150,-109.0399678
2.29200,-108.1243846
2.29250,-83.40363755
2.29300,-4.663480365
2.29350,111.615589
2.29400,201.0375504
2.29450,228.8102415
2.29500,244.3751563
2.29550,323.1153135
2.29600,465.9462963
2.29650,599.6214469
2.29700,665.5434389
2.29750,668.9005774
2.29800,635.0239982
2.29850,563.9137012
2.29900,448.8554095
2.29950,308.4659819
2.30000,167.77136
2.30050,30.12868211
2.30100,-109.3451622
2.30150,-239.3579799
2.30200,-335.4942183
2.30250,-388.9032397
2.30300,-406.6045153
2.30350,-395.3123222
2.30400,-359.6045765
2.30450,-312.6046377
2.30500,-272.6241703
2.30550,-245.461868
2.30600,-224.0982595
2.30650,-201.5138733
2.30700,-178.0139039
2.30750,-158.1762674
2.30800,-145.3581023
2.30850,-137.1178533
2.30900,-125.8256602
2.30950,-101.715302
2.31000,-63.87119546
2.31050,-18.70242312
2.31100,31.65465415
2.31150,90.55717484
2.31200,152.2064452
2.31250,206.8362442
2.31300,260.2452655
2.31350,332.5763401
2.31400,425.0502457
2.31450,504.7059861
2.31500,540.1085374
2.31550,537.0565933
2.31600,522.7124561
2.31650,508.368319
2.31700,484.2579608
2.31750,440.6151605
2.31800,371.6412243
2.31850,269.4010978
2.31900,137.5571136
2.31950,5.407935089
2.32000,-94.69583064
2.32050,-163.059378
2.32100,-221.3515098
2.32150,-277.8124753
2.32200,-329.3903302
2.32250,-386.7668788
2.32300,-462.7602863
2.32350,-538.143305
2.32400,-576.9029948
2.32450,-577.818578
2.32500,-570.7991067
2.32550,-561.33808
2.32600,-521.9680014
2.32650,-455.1304261
2.32700,-408.4356818
2.32750,-403.8577656
2.32800,-390.7344061
2.32850,-318.4033315
2.32900,-212.500872
2.32950,-137.4230477
2.33000,-105.3776349
2.33050,-70.28027802
2.33100,-4.053091549
2.33150,72.24551038
2.33200,131.4532255
2.33250,165.9401935
2.33300,176.3168034
2.33350,160.7518886
2.33400,131.4532255
2.33450,114.667533
2.33500,120.4662268
2.33550,133.5895863
2.33600,133.5895863
2.33650,118.0246715
2.33700,102.7649511
2.33750,107.6480617
2.33800,139.9986689
2.33850,176.6219978
2.33900,177.8427754
2.33950,133.2843919
2.34000,81.40134261
2.34050,69.1935663
2.34100,97.88184062
2.34150,131.4532255
2.34200,143.050613
2.34250,136.0311416
2.34300,121.0766156
2.34350,100.0182015
2.34400,75.90784327
2.34450,58.51176203
2.34500,52.40787388
2.34550,51.79748506
2.34600,53.62865151
2.34650,58.20656762
2.34700,62.47928933
2.34750,62.17409492
2.34800,64.92084459
2.34850,88.72600839
2.34900,138.7778913
2.34950,196.1544399
2.35000,233.3881576
2.35050,236.4401017
2.35100,213.5505211
2.35150,188.2193853
2.35200,180.5895251
2.35250,186.9986077
2.35300,183.0310804
2.35350,153.7324172
2.35400,116.4986995
2.35450,101.2389791
2.35500,110.3948113
2.35550,112.8363666
2.35600,86.89484195
2.35650,44.47281928
2.35700,11.81701765
2.35750,0.2196301585
2.35800,7.544295943
2.35850,36.23257027
2.35900,79.87537057
2.35950,108.2584505
2.36000,88.72600839
2.36050,24.94037718
2.36100,-52.88419678
2.36150,-137.4230477
2.36200,-249.7345897
2.36250,-384.3253235
2.36300,-488.3966166
2.36350,-521.662807
2.36400,-509.7602251
2.36450,-503.9615314
2.36500,-501.8251705
2.36550,-458.4875646
2.36600,-364.7928815
2.36650,-265.2995045
2.36700,-190.5268747
2.36750,-116.9750224
2.36800,-13.20892378
2.36850,114.3623386
2.36900,237.9660738
2.36950,342.0373668
2.37000,416.8099967
2.37050,444.2774934
2.37100,420.1671352
2.37150,371.0308355
2.37200,323.4205079
2.37250,269.7062922
2.37300,190.6609406
2.37350,94.21950773
2.37400,2.966379828
2.37450,-83.40363755
2.37500,-186.5593474
2.37550,-308.9423048
2.37600,-423.6954021
2.37650,-502.1303649
2.37700,-533.8705833
2.37750,-519.5264462
2.37800,-463.3706751
2.37850,-374.2539081
2.37900,-259.5008108
2.37950,-124.6048826
2.38000,19.14168344
2.38050,147.3233347
2.38100,237.6608794
2.38150,290.4595119
2.38200,315.7906477
2.38250,312.7387036
2.38300,273.3686251
2.38350,203.1739113
2.38400,119.2454492
2.38450,30.73907093
2.38500,-65.3971675
2.38550,-170.3840437
2.38600,-268.9618374
2.38650,-335.1890239
2.38700,-348.007189
2.38750,-307.4163328
2.38800,-241.7995351
2.38850,-186.8645418
2.38900,-154.819129
2.38950,-133.150326
2.39000,-112.0919119
2.39050,-93.78024741
2.39100,-69.3646948
2.39150,-14.124507
2.39200,78.65459294
2.39250,179.0635531
2.39300,256.2777382
2.39350,316.4010365
2.39400,379.2710845
2.39450,440.9203549
2.39500,479.0696558
2.39550,484.2579608
2.39600,460.1476026
2.39650,403.6866371
2.39700,312.4335092
2.39750,204.6998833
2.39800,106.7324784
2.39850,25.24557159
2.39900,-50.44264152
2.39950,-118.5009944
2.40000,-161.5334059
2.40050,-171.6048214
2.40100,-160.6178227
2.40150,-142.0009638
2.40200,-113.6178839
2.40250,-69.05950039
2.40300,-15.65047904
2.40350,25.24557159
2.40400,40.50529198
2.40450,39.89490316
2.40500,46.60918013
2.40550,69.1935663
2.40600,90.25198043
2.40650,91.16756365
2.40700,82.92731465
2.40750,92.38834128
2.40800,129.3168646
2.40850,184.5570524
2.40900,249.5634613
2.40950,314.8750645
2.41000,351.4983934
2.41050,332.5763401
2.41100,276.7257635
2.41150,234.6089353
2.41200,215.686882
2.41250,169.297332
2.41300,56.37540118
2.41350,-89.2023313
2.41400,-206.7021783
2.41450,-288.4942795
2.41500,-376.3902689
2.41550,-484.4290893
2.41600,-564.0848297
2.41650,-560.1173024
2.41700,-472.5265074
2.41750,-353.195494
2.41800,-251.2605618
2.41850,-172.825599
2.41900,-92.55946978
2.41950,0.5248245662
2.42000,86.28445313
2.42050,136.9467248
2.42100,151.290862
2.42150,148.2389179
2.42200,135.4207528
2.42250,105.8168952
2.42300,64.61565018
2.42350,32.57023737
2.42400,16.39493377
2.42450,-0.08556424924
2.42500,-27.85825535
2.42550,-49.5270583
2.42600,-42.20239251
2.42650,-7.410230034
2.42700,27.07673804
2.42750,27.68712685
2.42800,-29.07903298
2.42850,-139.2542142
2.42900,-256.4488667
2.42950,-319.6241091
2.43000,-308.9423048
2.43050,-266.8254766
2.43100,-244.8514792
2.43150,-245.461868
2.43200,-228.3709812
2.43250,-166.4165164
2.43300,-73.63741651
2.43350,18.53129462
2.43400,89.64159162
2.43450,130.8428367
2.43500,138.4726968
2.43550,118.3298659
2.43600,85.36886991
2.43650,53.01826269
2.43700,19.75207225
2.43750,-24.80631127
2.43800,-81.87766551
2.43850,-139.2542142
2.43900,-183.8125977
2.43950,-215.5528161
2.44000,-247.5982289
2.44050,-289.1046683
2.44100,-337.0201904
2.44150,-376.0850745
2.44200,-389.2084341
2.44250,-363.5721038
2.44300,-297.3449174
2.44350,-202.1242621
2.44400,-100.7997188
2.44450,-18.0920343
2.44500,38.97931994
2.44550,84.14809228
2.44600,136.336336
2.44650,200.4271616
2.44700,262.076432
2.44750,305.7192323
2.44800,331.6607569
2.44850,350.8880046
2.44900,369.5048635
2.44950,382.9334174
2.45000,391.1736664
2.45050,404.9074148
2.45100,433.9008835
2.45150,474.4917397
2.45200,508.368319
2.45250,522.1020673
2.45300,515.3877904
2.45350,496.1605427
2.45400,460.7579914
2.45450,393.6152217
2.45500,287.1023734
2.45550,163.1934439
2.45600,54.54423473
2.45650,-31.82578265
2.45700,-118.1958
2.45750,-216.4683993
2.45800,-307.4163328
2.45850,-367.8448255
2.45900,-401.7214048
2.45950,-417.591514
2.46000,-401.4162104
2.46050,-339.4617456
2.46100,-260.7215884
2.46150,-213.7216496
2.46200,-203.3450398
2.46250,-183.5074033
2.46300,-122.7737161
2.46350,-43.11797574
2.46400,15.47935054
2.46450,42.94684724
2.46500,49.05073539
2.46550,38.36893112
2.46600,7.849490351
2.46650,-34.26733791
2.46700,-73.94261091
2.46750,-98.96855234
2.46800,-97.44258031
2.46850,-57.15691849
2.46900,24.32998837
2.46950,134.5051695
2.47000,252.6154053
2.47050,361.8750033
2.47100,445.1930766
2.47150,487.3099049
2.47200,485.173544
2.47250,449.4657983
2.47300,394.8359993
2.47350,327.6932296
2.47400,245.9011284
2.47450,137.862308
2.47500,-4.663480365
2.47550,-157.5658786
2.47600,-256.4488667
2.47650,-252.4813394
2.47700,-168.8580717
2.47750,-79.13091584
2.47800,-26.94267213
2.47850,-1.916730695
2.47900,11.20662884
2.47950,2.66118542
2.48000,-24.80631127
2.48050,-30.91019943
2.48100,14.56376732
2.48150,83.23250905
2.48200,122.9077821
2.48250,122.6025876
2.48300,111.9207834
2.48350,100.0182015
2.48400,62.47928933
2.48450,-15.95567345
2.48500,-113.3126895
2.48550,-197.2411516
2.48600,-257.3644499
2.48650,-300.3968614
2.48700,-335.4942183
2.48750,-365.7084647
2.48800,-386.7668788
2.48850,-382.4941571
2.48900,-338.240968
2.48950,-258.890422
2.49000,-163.3645724
2.49050,-61.4296402
2.49100,45.69359691
2.49150,143.3558074
2.49200,202.2583281
2.49250,210.8037715
2.49300,189.7453573
2.49350,165.3298047
2.49400,138.7778913
2.49450,103.9857288
2.49500,72.55070478
2.49550,59.42734525
2.49600,54.23904032
2.49650,32.26504297
2.49700,-8.936202073
2.49750,-47.39069744
2.49800,-74.55299973
2.49850,-110.8711342
2.49900,-167.0269053
2.49950,-214.6372329
2.50000,-216.1632049
2.50050,-178.6242928
2.50100,-143.2217415
2.50150,-131.9295484
2.50200,-127.3516323
2.50250,-113.0074951
2.50300,-98.66335794
2.50350,-96.52699708
2.50400,-96.83219149
2.50450,-89.2023313
2.50500,-90.72830334
2.50550,-124.910077
2.50600,-181.6762368
2.50650,-230.2021477
2.50700,-257.0592555
2.50750,-273.5397535
2.50800,-283.9163634
2.50850,-278.4228641
2.50900,-257.0592555
2.50950,-234.7800638
2.51000,-215.8580105
2.51050,-181.6762368
2.51100,-116.669828
2.51150,-27.85825535
2.51200,66.75201104
2.51250,155.8687781
2.51300,234.3037409
2.51350,300.8361217
2.51400,364.0113641
2.51450,433.9008835
2.51500,504.4007917
2.51550,554.4526745
2.51600,572.1539502
2.51650,564.8292844
2.51700,540.7189262
2.51750,496.7709315
2.51800,431.4593282
2.51850,353.3295599
2.51900,269.4010978
2.51950,184.5570524
2.52000,116.1935051
2.52050,90.25198043
2.52100,106.427284
2.52150,127.4856982
2.52200,126.2649205
2.52250,120.4662268
2.52300,141.2194465
2.52350,182.725886
2.52400,214.4661044
2.52450,232.16738
2.52500,255.362155
2.52550,277.6413468
2.52600,257.8037103
2.52650,180.8947195
2.52700,89.94678602
2.52750,29.82348771
2.52800,-7.410230034
2.52850,-60.81925138
2.52900,-138.9490198
2.52950,-218.6047602
2.53000,-288.7994739
2.53050,-357.4682157
2.53100,-423.0850133
2.53150,-465.2018416
2.53200,-471.6109241
2.53250,-447.1953715
2.53300,-398.9746551
2.53350,-330.000719
2.53400,-255.8384779
2.53450,-201.2086789
2.53500,-174.351571
2.53550,-162.4489891
2.53600,-157.871073
2.53650,-173.7411822
2.53700,-226.8450092
2.53750,-311.3838601
2.53800,-401.111016
2.53850,-464.8966472
2.53900,-483.8187005
2.53950,-458.1823702
2.54000,-398.3642663
2.54050,-311.0786657
2.54100,-199.6827069
2.54150,-79.13091584
2.54200,26.77154363
2.54250,110.3948113
2.54300,186.6934133
2.54350,264.8231816
2.54400,329.8295905
2.54450,367.673697
2.54500,388.7321112
2.54550,398.1931378
2.54600,368.5892803
2.54650,278.55693
2.54700,170.5181097
2.54750,122.6025876
2.54800,157.0895557
2.54850,217.5180484
2.54900,241.3232122
2.54950,226.3686863
2.55000,205.3102721
2.55050,189.7453573
2.55100,166.2453879
2.55150,132.3688087
2.55200,105.5117008
2.55250,102.7649511
2.55300,125.3493373
2.55350,167.77136
2.55400,217.212854
2.55450,248.9530724
2.55500,237.9660738
2.55550,181.8103027
2.55600,105.2065064
2.55650,31.04426534
2.55700,-46.16991981
2.55750,-139.864603
2.55800,-233.8644805
2.55850,-290.0202516
2.55900,-294.9033621
2.55950,-280.8644193
2.56000,-284.2215578
2.56050,-302.5332223
2.56100,-312.2994433
2.56150,-314.4358042
2.56200,-330.3059134
2.56250,-361.435743
2.56300,-380.9681851
2.56350,-368.4552143
2.56400,-327.8643581
2.56450,-268.9618374
2.56500,-195.7151796
2.56550,-119.7217721
2.56600,-59.90366816
2.56650,-18.39722871
2.56700,30.73907093
2.56750,105.2065064
2.56800,187.9141909
2.56850,247.4271004
2.56900,273.9790139
2.56950,279.1673188
2.57000,272.1478474
2.57050,254.7517662
2.57100,233.3881576
2.57150,219.3492149
2.57200,213.2453267
2.57250,202.5635225
2.57300,179.9791363
2.57350,154.0376116
2.57400,142.4402241
2.57450,158.0051389
2.57500,200.4271616
2.57550,254.7517662
2.57600,290.7647063
2.57650,276.4205691
2.57700,201.6479392
2.57750,89.94678602
2.57800,-16.87125667
2.57850,-94.39063623
2.57900,-151.7671849
2.57950,-214.026844
2.58000,-285.7475299
2.58050,-339.76694
2.58100,-344.3448561
2.58150,-298.8708894
2.58200,-234.169675
2.58250,-178.9294872
2.58300,-132.2347428
2.58350,-72.11144447
2.58400,12.12221206
2.58450,103.9857288
2.58500,176.6219978
2.58550,217.5180484
2.58600,236.7452961
2.58650,249.2582668
2.58700,260.8556543
2.58750,268.1803201
2.58800,265.128376
2.58850,244.6803507
2.58900,200.1219672
2.58950,133.8947807
2.59000,60.95331729
2.59050,-4.663480365
2.59100,-64.78677868
2.59150,-121.2477441
2.59200,-159.7022395
2.59250,-167.0269053
2.59300,-164.8905444
2.59350,-189.9164858
2.59400,-238.4423967
2.59450,-266.2150878
2.59500,-254.0073115
2.59550,-239.9683687
2.59600,-253.3969226
2.59650,-265.9098934
2.59700,-240.5787575
2.59750,-203.6502342
2.59800,-203.9554286
2.59850,-228.6761756
2.59900,-220.1307322
2.59950,-167.3320997
2.60000,-119.4165777
2.60050,-105.3776349
2.60100,-105.6828293
2.60150,-104.7672461
2.60200,-114.8386615
2.60250,-132.8451316
2.60300,-126.1308546
2.60350,-86.15038722
2.60400,-48.00108626
2.60450,-29.07903298
2.60500,-2.527119511
2.60550,50.57670743
2.60600,106.7324784
2.60650,141.5246409
2.60700,172.0440817
2.60750,218.7388261
2.60800,267.8751257
2.60850,299.9205385
2.60900,326.1672576
2.60950,361.2646145
2.61000,394.8359993
2.61050,413.4528582
2.61100,429.9333562
2.61150,455.8748809
2.61200,470.5242124
2.61250,448.2450207
2.61300,398.8035266
2.61350,351.193199
2.61400,311.2127316
2.61450,259.3296823
2.61500,182.725886
2.61550,91.77795247
2.61600,3.881963051
2.61650,-70.28027802
2.61700,-132.5399372
2.61750,-190.5268747
2.61800,-244.8514792
2.61850,-283.0007802
2.61900,-295.8189453
2.61950,-299.4812782
2.62000,-316.2669706
2.62050,-343.7344673
2.62100,-362.3513262
2.62150,-367.2344367
2.62200,-368.4552143
2.62250,-362.6565206
2.62300,-337.3253848
2.62350,-297.0397229
2.62400,-259.1956164
2.62450,-225.0138427
2.62500,-179.8450704
2.62550,-126.436049
2.62600,-84.92960959
2.62650,-57.4621129
2.62700,-29.38422739
2.62750,-1.916730695
2.62800,5.102740682
2.62850,-9.546590888
2.62900,-25.11150568
2.62950,-28.16344976
2.63000,-24.19592246
2.63050,-16.56606227
2.63100,-5.884257996
2.63150,-9.24139648
2.63200,-39.15044844
2.63250,-63.87119546
2.63300,-33.04656028
2.63350,49.66112421
2.63400,126.2649205
2.63450,160.1414998
2.63500,172.3492761
2.63550,180.2843307
2.63600,162.2778606
2.63650,106.7324784
2.63700,56.68059558
2.63750,50.88190184
2.63800,66.75201104
2.63850,62.47928933
2.63900,52.71306828
2.63950,84.14809228
2.64000,152.5116396
2.64050,204.6998833
2.64100,221.4855757
2.64150,241.6284067
2.64200,296.2582056
2.64250,363.7061697
2.64300,412.2320806
2.64350,443.972299
2.64400,464.4203243
2.64450,448.5502151
2.64500,374.0827796
2.64550,265.4335705
2.64600,171.4336929
2.64650,105.2065064
2.64700,45.08320809
2.64750,-13.20892378
2.64800,-47.08550304
2.64850,-51.35822474
2.64900,-62.04002901
2.64950,-112.3971063
2.65000,-188.3905138
2.65050,-244.2410904
2.65100,-252.176145
2.65150,-218.6047602
2.65200,-166.7217109
2.65250,-116.3646336
2.65300,-75.77377736
2.65350,-41.5920037
2.65400,-4.968674772
2.65450,35.31698704
2.65500,70.41434393
2.65550,89.64159162
2.65600,89.64159162
2.65650,67.36239985
2.65700,23.41440514
2.65750,-22.0595616
2.65800,-39.45564284
2.65850,-23.58553364
2.65900,-6.494646811
2.65950,-15.65047904
2.66000,-36.09850436
2.66050,-32.13097706
2.66100,2.050796605
2.66150,39.89490316
2.66200,61.56370611
2.66250,72.55070478
2.66300,78.04420412
2.66350,66.44681663
2.66400,31.95984856
2.66450,-11.07256293
2.66500,-51.66341915
2.66550,-96.83219149
2.66600,-148.7152408
2.66650,-185.0333753
2.66700,-189.0009026
2.66750,-187.780125
2.66800,-220.1307322
2.66850,-270.4878095
2.66900,-275.37092
2.66950,-212.1956776
2.67000,-138.9490198
2.67050,-122.7737161
2.67100,-160.0074339
2.67150,-199.6827069
2.67200,-214.9424273
2.67250,-205.786595
2.67300,-157.2606842
2.67350,-52.27380797
2.67400,82.01173142
2.67450,185.77783
2.67500,234.9141297
2.67550,254.4465718
2.67600,262.9920152
2.67650,247.121906
2.67700,199.206384
2.67750,139.0830857
2.67800,73.46628801
2.67850,-14.73489582
2.67900,-120.6373553
2.67950,-192.3580411
2.68000,-195.7151796
2.68050,-166.7217109
2.68100,-167.6372941
2.68150,-212.500872
2.68200,-262.8579493
2.68250,-290.6306404
2.68300,-303.1436111
2.68350,-318.4033315
2.68400,-335.4942183
2.68450,-338.5461624
2.68500,-306.5007496
2.68550,-227.7605924
2.68600,-116.0594392
2.68650,-11.37775733
2.68700,50.27151302
2.68750,71.63512156
2.68800,85.36886991
2.68850,115.8883107
2.68900,156.4791669
2.68950,184.8622468
2.69000,193.4076902
2.69050,191.2713294
2.69100,181.1999139
2.69150,149.4596955
2.69200,88.72600839
2.69250,23.41440514
2.69300,-9.851785296
2.69350,-5.27386918
2.69400,10.59624002
2.69450,22.19362751
2.69500,46.60918013
2.69550,107.6480617
2.69600,205.6154665
2.69650,325.2516744
2.69700,451.6021591
2.69750,563.3033124
2.69800,629.5304988
2.69850,638.0759423
2.69900,609.9980567
2.69950,567.8812285
2.70000,501.9592364
2.70050,396.9723602
2.70100,270.316681
2.70150,162.2778606
2.70200,87.50523076
2.70250,22.49882192
2.70300,-63.26080664
2.70350,-180.1502648
2.70400,-315.046193
2.70450,-440.4810946
2.70500,-529.903056
2.70550,-577.818578
2.70600,-611.0847685
2.70650,-657.7795128
2.70700,-714.5456727
2.70750,-749.6430296
2.70800,-742.9287526
2.70850,-700.8119243
2.70900,-642.8249869
2.70950,-582.7016886
2.71000,-528.6822784
2.71050,-486.2602557
2.71100,-452.0784821
2.71150,-413.9291811
2.71200,-360.8253542
2.71250,-291.5462236
2.71300,-211.5852888
2.71350,-127.6568267
2.71400,-44.33875337
2.71450,36.23257027
2.71500,111.9207834
2.71550,175.0960258
2.71600,218.4336317
2.71650,243.7647675
2.71700,265.128376
2.71750,298.0893721
2.71800,346.3100885
2.71850,396.3619714
2.71900,426.5762177
2.71950,427.4918009
2.72000,416.1996079
2.72050,420.4723296
2.72100,446.7190486
2.72150,472.9657677
2.72200,481.2060167
2.72250,482.7319887
2.72300,496.4657371
2.72350,516.9137624
2.72400,524.5436226
2.72450,516.9137624
2.72500,501.3488476
2.72550,468.9982404
2.72600,411.9268861
2.72650,349.3620326
2.72700,299.3101497
2.72750,225.7582974
2.72800,72.24551038
2.72850,-140.1697974
2.72900,-303.7539999
2.72950,-343.1240785
2.73000,-306.1955552
2.73050,-292.4618068
2.73100,-324.2020252
2.73150,-340.0721344
2.73200,-292.4618068
2.73250,-199.0723181
2.73300,-104.1568573
2.73350,-37.01408758
2.73400,-12.90372937
2.73450,-37.31928199
2.73500,-87.06597044
2.73550,-121.2477441
2.73600,-120.9425497
2.73650,-106.2932181
2.73700,-100.4945244
2.73750,-95.91660827
2.73800,-74.85819414
2.73850,-40.67642047
2.73900,-16.56606227
2.73950,-23.28033923
2.74000,-64.48158427
2.74050,-124.6048826
2.74100,-165.8061276
2.74150,-149.630824
2.74200,-79.74130466
2.74250,-2.832313919
2.74300,46.30398572
2.74350,81.70653701
2.74400,121.6870044
2.74450,143.9661962
2.74500,118.9402548
2.74550,74.99226005
2.74600,70.71953834
2.74650,113.4467554
2.74700,157.0895557
2.74750,184.251858
2.74800,232.16738
2.74850,314.8750645
2.74900,385.0697783
2.74950,396.9723602
2.75000,364.9269474
2.75050,322.1997303
2.75100,259.3296823
2.75150,142.7454186
2.75200,-31.21539383
2.75250,-234.7800638
2.75300,-435.9031784
2.75350,-609.5587964
2.75400,-743.5391414
2.75450,-852.7987394
2.75500,-962.9739205
2.75550,-1053.921854
2.75600,-1064.603658
2.75650,-971.2141696
2.75700,-826.8572147
2.75750,-690.4353145
2.75800,-560.7276912
2.75850,-414.8447643
2.75900,-276.5916976
2.75950,-186.2541529
2.76000,-131.3191596
2.76050,-63.26080664
2.76100,24.63518277
2.76150,93.91431332
2.76200,129.0116702
2.76250,156.7843613
2.76300,192.492107
2.76350,212.3297435
2.76400,204.6998833
2.76450,202.8687169
2.76500,241.0180178
2.76550,304.803649
2.76600,352.4139766
2.76650,369.8100579
2.76700,376.2191404
2.76750,382.628223
2.76800,380.7970566
2.76850,367.9788914
2.76900,354.8555319
2.76950,338.6802283
2.77000,296.2582056
2.77050,219.9596037
2.77100,146.7129459
2.77150,123.8233653
2.77200,154.6480005
2.77250,190.3557462
2.77300,177.8427754
2.77350,103.9857288
2.77400,-4.968674772
2.77450,-110.2607454
2.77500,-182.2866256
2.77550,-216.1632049
2.77600,-229.5917588
2.77650,-244.8514792
2.77700,-270.1826151
2.77750,-298.565695
2.77800,-321.76047
2.77850,-336.7149959
2.77900,-344.0396617
2.77950,-348.007189
2.78000,-352.5851051
2.78050,-351.9747163
2.78100,-332.7474686
2.78150,-292.4618068
2.78200,-246.3774513
2.78250,-205.4814006
2.78300,-154.2087401
2.78350,-71.19586124
2.78400,33.18062619
2.78450,121.0766156
2.78500,166.8557768
2.78550,182.1154971
2.78600,193.7128846
2.78650,216.9076596
2.78700,250.4790445
2.78750,285.271207
2.78800,307.8555931
2.78850,307.5503987
2.78900,291.9854839
2.78950,282.8296517
2.79000,291.3750951
2.79050,302.0568994
2.79100,288.0179566
2.79150,243.4595731
2.79200,189.4401629
2.79250,160.1414998
2.79300,180.5895251
2.79350,251.6998221
2.79400,350.2776158
2.79450,443.6671045
2.79500,514.7774015
2.79550,565.1344788
2.79600,599.9266413
2.79650,614.5759729
2.79700,602.673391
2.79750,564.52409
2.79800,498.2969035
2.79850,398.8035266
2.79900,268.7907089
2.79950,122.6025876
2.80000,-33.6569491
2.80050,-203.6502342
2.80100,-369.9811864
2.80150,-488.3966166
2.80200,-534.4809721
2.80250,-543.33161
2.80300,-568.3575514
2.80350,-608.9484076
2.80400,-615.967879
2.80450,-565.0004129
2.80500,-492.0589495
2.80550,-447.1953715
2.80600,-441.0914834
2.80650,-448.7213436
2.80700,-436.2083729
2.80750,-383.1045459
2.80800,-294.5981677
2.80850,-211.8904832
2.80900,-179.2346816
2.80950,-188.6957082
2.81000,-174.351571
2.81050,-83.40363755
2.81100,64.31045578
2.81150,204.0894945
2.81200,298.6997609
2.81250,359.1282536
2.81300,405.822998
2.81350,434.2060779
2.81400,429.3229674
2.81450,393.0048329
2.81500,338.3750339
2.81550,270.6218754
2.81600,182.725886
2.81650,78.04420412
2.81700,-16.26086786
2.81750,-64.78677868
2.81800,-42.20239251
2.81850,50.88190184
2.81900,188.2193853
2.81950,318.232203
2.82000,395.4463881
2.82050,421.9983016
2.82100,447.9398263
2.82150,501.0436532
2.82200,532.4786772
2.82250,467.4722683
2.82300,306.0244267
2.82350,134.810364
2.82400,34.70659823
2.82450,14.56376732
2.82500,43.55723605
2.82550,99.71300707
2.82600,157.0895557
2.82650,165.3298047
2.82700,87.20003635
2.82750,-51.66341915
2.82800,-177.4035151
2.82850,-233.2540917
2.82900,-218.6047602
2.82950,-176.7931263
2.83000,-158.7866563
2.83050,-184.7281809
2.83100,-232.9488973
2.83150,-271.4033927
2.83200,-299.4812782
2.83250,-344.0396617
2.83300,-418.8122916
2.83350,-503.9615314
2.83400,-570.4939122
2.83450,-595.2146593
2.83500,-557.9809415
2.83550,-458.1823702
2.83600,-338.240968
2.83650,-254.0073115
2.83700,-215.2476217
2.83750,-187.1697362
2.83800,-162.4489891
2.83850,-180.1502648
2.83900,-256.4488667
2.83950,-346.1760226
2.84000,-392.870767
2.84050,-381.2733795
2.84100,-315.046193
2.84150,-192.9684299
2.84200,-38.23486521
2.84250,99.10261825
2.84300,207.1414386
2.84350,332.8815346
2.84400,494.939765
2.84450,627.6993324
2.84500,665.8486334
2.84550,639.2967199
2.84600,622.2058331
2.84650,620.3746666
2.84700,582.8357545
2.84750,497.9917091
2.84800,400.9398875
2.84850,302.3620938
2.84900,183.3362748
2.84950,57.90137321
2.85000,-21.14397838
2.85050,-36.70889317
2.85100,-24.19592246
2.85150,-12.29334056
2.85200,7.544295943
2.85250,42.03126401
2.85300,71.02473275
2.85350,80.79095379
2.85400,77.1286209
2.85450,64.92084459
2.85500,45.3884025
2.85550,37.14815349
2.85600,58.20656762
2.85650,87.50523076
2.85700,79.26498175
2.85750,22.49882192
2.85800,-56.85172408
2.85850,-147.4944632
2.85900,-253.3969226
2.85950,-347.3968002
2.86000,-374.5591025
2.86050,-330.3059134
2.86100,-284.2215578
2.86150,-291.851418
2.86200,-321.4552756
2.86250,-299.1760838
2.86300,-200.2930957
2.86350,-65.3971675
2.86400,54.84942914
2.86450,145.4921682
2.86500,214.7712988
2.86550,272.1478474
2.86600,312.4335092
2.86650,318.8425918
2.86700,280.082902
2.86750,204.3946889
2.86800,105.8168952
2.86850,-15.65047904
2.86900,-160.6178227
2.86950,-293.9877789
2.87000,-363.2669094
2.87050,-366.3188535
2.87100,-359.6045765
2.87150,-380.9681851
2.87200,-397.7538775
2.87250,-363.8772982
2.87300,-293.9877789
2.87350,-232.0333141
2.87400,-182.2866256
2.87450,-124.6048826
2.87500,-80.04649907
2.87550,-92.86466419
2.87600,-142.6113526
2.87650,-150.2412128
2.87700,-83.70883196
2.87750,3.271574235
2.87800,64.31045578
2.87850,122.9077821
2.87900,216.9076596
2.87950,334.4075066
2.88000,443.0567157
2.88050,534.615038
2.88100,595.959114
2.88150,585.5825041
2.88200,487.6150993
2.88250,353.6347543
2.88300,239.4920458
2.88350,138.1675024
2.88400,18.22610021
2.88450,-103.2412741
2.88500,-177.7087095
2.88550,-193.2736243
2.88600,-175.8775431
2.88650,-144.7477135
2.88700,-103.5464685
2.88750,-65.70236191
2.88800,-45.8647254
2.88850,-41.5920037
2.88900,-47.39069744
2.88950,-73.63741651
2.89000,-123.0789106
2.89050,-169.1632661
2.89100,-181.6762368
2.89150,-156.9554898
2.89200,-102.0204964
2.89250,-19.31281193
2.89300,76.82342649
2.89350,151.290862
2.89400,184.8622468
2.89450,199.206384
2.89500,221.7907701
2.89550,254.7517662
2.89600,292.5958727
2.89650,345.3945053
2.89700,417.4203855
2.89750,481.8164055
2.89800,497.3813203
2.89850,441.5307437
2.89900,318.8425918
2.89950,150.9856676
2.90000,-31.82578265
2.90050,-199.9879013
2.90100,-328.4747469
2.90150,-388.9032397
2.90200,-354.1110772
2.90250,-237.221619
2.90300,-96.83219149
2.90350,21.27804429
2.90400,128.7064758
2.90450,238.5764626
2.90500,305.7192323
2.90550,278.8621244
2.90600,188.2193853
2.90650,108.2584505
2.90700,38.97931994
2.90750,-90.42310893
2.90800,-294.5981677
2.90850,-480.461562
2.90900,-564.0848297
2.90950,-573.5458563
2.91000,-594.6042705
2.91050,-657.4743184
2.91100,-721.2599496
2.91150,-743.233947
2.91200,-719.7339776
2.91250,-668.7665115
2.91300,-603.1497139
2.91350,-524.1043623
2.91400,-425.831763
2.91450,-313.2150266
2.91500,-206.3969839
2.91550,-124.6048826
2.91600,-62.65041783
2.91650,-2.832313919
2.91700,53.3234571
2.91750,90.25198043
2.91800,111.0052002
2.91850,140.9142521
2.91900,189.7453573
2.91950,235.2193241
2.92000,259.3296823
2.92050,276.1153747
2.92100,302.9724826
2.92150,330.1347849
2.92200,338.6802283
2.92250,340.8165892
2.92300,361.8750033
2.92350,387.8165279
2.92400,370.7256411
2.92450,295.3426224
2.92500,201.6479392
2.92550,118.9402548
2.92600,21.27804429
2.92650,-113.0074951
2.92700,-229.8969532
2.92750,-250.9553674
2.92800,-185.0333753
2.92850,-122.4685217
2.92900,-114.2282727
2.92950,-118.1958
2.93000,-80.65688788
2.93050,-16.87125667
2.93100,29.21309889
2.93150,51.18709624
2.93200,67.05720545
2.93250,78.04420412
2.93300,72.85589919
2.93350,53.93384591
2.93400,26.77154363
2.93450,-15.65047904
2.93500,-72.11144447
2.93550,-116.9750224
2.93600,-131.3191596
2.93650,-126.1308546
2.93700,-116.9750224
2.93750,-99.57894116
2.93800,-69.05950039
