type,name,time_units,begin_time,frequency,count,units
signal,"Noraxon MyoMotion-Segments-Forearm RT-Course","s",0.0000,200,5184,"deg"

time,value
0.0000,-169.2873922
0.0050,-169.2632228
0.0100,-169.2390536
0.0150,-169.2148845
0.0200,-169.1885207
0.0250,-169.1600417
0.0300,-169.1295443
0.0350,-169.0971405
0.0400,-169.0629571
0.0450,-169.027135
0.0500,-168.9898282
0.0550,-168.9512036
0.0600,-168.9114411
0.0650,-168.8707354
0.0700,-168.8292971
0.0750,-168.7873525
0.0800,-168.7451433
0.0850,-168.7029256
0.0900,-168.6609676
0.0950,-168.6195449
0.1000,-168.5789362
0.1050,-168.5394181
0.1100,-168.501261
0.1150,-168.4647249
0.1200,-168.4300565
0.1250,-168.3974856
0.1300,-168.3672234
0.1350,-168.3394577
0.1400,-168.3143466
0.1450,-168.2920085
0.1500,-168.2725113
0.1550,-168.2038963
0.1600,-168.1376961
0.1650,-168.0736741
0.1700,-168.011975
0.1750,-167.9520651
0.1800,-167.8939514
0.1850,-167.8369908
0.1900,-167.7808901
0.1950,-167.7252027
0.2000,-167.6695243
0.2050,-167.6135366
0.2100,-167.5567859
0.2150,-167.4988853
0.2200,-167.4397719
0.2250,-167.3793952
0.2300,-167.3175067
0.2350,-167.2543302
0.2400,-167.1898728
0.2450,-167.1241197
0.2500,-167.0571862
0.2550,-166.9890664
0.2600,-166.9196223
0.2650,-166.849109
0.2700,-166.7774079
0.2750,-166.7047562
0.2800,-166.6314481
0.2850,-166.5574185
0.2900,-166.483294
0.2950,-166.4089411
0.3000,-166.3347372
0.3050,-166.260725
0.3100,-166.187031
0.3150,-166.1137087
0.3200,-166.0405843
0.3250,-165.9676941
0.3300,-165.8952007
0.3350,-165.8230433
0.3400,-165.7512823
0.3450,-165.6799783
0.3500,-165.6091616
0.3550,-165.5391022
0.3600,-165.4699623
0.3650,-165.4019913
0.3700,-165.3353878
0.3750,-165.270372
0.3800,-165.2070051
0.3850,-165.1451454
0.3900,-165.0848049
0.3950,-165.0258172
0.4000,-164.9678681
0.4050,-164.9109798
0.4100,-164.8552654
0.4150,-164.8007377
0.4200,-164.7476326
0.4250,-164.6960237
0.4300,-164.6462369
0.4350,-164.5982919
0.4400,-164.5523047
0.4450,-164.5081633
0.4500,-164.4657127
0.4550,-164.424998
0.4600,-164.3854583
0.4650,-164.3472679
0.4700,-164.309991
0.4750,-164.2738314
0.4800,-164.2384728
0.4850,-164.2041126
0.4900,-164.1709262
0.4950,-164.1389379
0.5000,-164.1081414
0.5050,-164.0785836
0.5100,-164.0504042
0.5150,-164.0235057
0.5200,-163.9975678
0.5250,-163.9724928
0.5300,-163.9481089
0.5350,-163.9238462
0.5400,-163.8996311
0.5450,-163.8753055
0.5500,-163.8507347
0.5550,-163.8258253
0.5600,-163.8007166
0.5650,-163.7753795
0.5700,-163.7500807
0.5750,-163.7246762
0.5800,-163.6994207
0.5850,-163.6745006
0.5900,-163.6497514
0.5950,-163.6253267
0.6000,-163.6011739
0.6050,-163.5773338
0.6100,-163.5538108
0.6150,-163.5308546
0.6200,-163.5084935
0.6250,-163.4868245
0.6300,-163.4657032
0.6350,-163.445177
0.6400,-163.425081
0.6450,-163.4054782
0.6500,-163.3864121
0.6550,-163.3679801
0.6600,-163.3501202
0.6650,-163.3327735
0.6700,-163.3160015
0.6750,-163.2996193
0.6800,-163.2836424
0.6850,-163.2682506
0.6900,-163.253242
0.6950,-163.2388146
0.7000,-163.2252862
0.7050,-163.2125125
0.7100,-163.2005153
0.7150,-163.1895335
0.7200,-163.1793371
0.7250,-163.1700213
0.7300,-163.1614241
0.7350,-163.1535093
0.7400,-163.1460933
0.7450,-163.1392472
0.7500,-163.1327206
0.7550,-163.1263977
0.7600,-163.1205224
0.7650,-163.1148607
0.7700,-163.1095569
0.7750,-163.1045584
0.7800,-163.0998594
0.7850,-163.0953607
0.7900,-163.090878
0.7950,-163.0864969
0.8000,-163.0821503
0.8050,-163.0777056
0.8100,-163.0730299
0.8150,-163.0681606
0.8200,-163.0631552
0.8250,-163.0577742
0.8300,-163.0520966
0.8350,-163.0462521
0.8400,-163.040335
0.8450,-163.0343268
0.8500,-163.0282785
0.8550,-163.0224079
0.8600,-163.016519
0.8650,-163.0107718
0.8700,-163.005072
0.8750,-162.9994207
0.8800,-162.9937737
0.8850,-162.9880582
0.8900,-162.9819705
0.8950,-162.975665
0.9000,-162.9689057
0.9050,-162.9618052
0.9100,-162.9542943
0.9150,-162.9465548
0.9200,-162.9387093
0.9250,-162.9307659
0.9300,-162.9228417
0.9350,-162.9150045
0.9400,-162.907313
0.9450,-162.8994075
0.9500,-162.8911016
0.9550,-162.8820737
0.9600,-162.8722439
0.9650,-162.8613951
0.9700,-162.8494321
0.9750,-162.8365461
0.9800,-162.8226932
0.9850,-162.8081378
0.9900,-162.7933591
0.9950,-162.778316
1.0000,-162.7633087
1.0050,-162.7482999
1.0100,-162.7333027
1.0150,-162.7179173
1.0200,-162.7021487
1.0250,-162.6856462
1.0300,-162.668368
1.0350,-162.65021
1.0400,-162.6310191
1.0450,-162.6108836
1.0500,-162.5899729
1.0550,-162.5684522
1.0600,-162.5464942
1.0650,-162.5242817
1.0700,-162.5018663
1.0750,-162.4792727
1.0800,-162.4563964
1.0850,-162.433297
1.0900,-162.4100613
1.0950,-162.3867124
1.1000,-162.3633617
1.1050,-162.3399471
1.1100,-162.3168406
1.1150,-162.2941938
1.1200,-162.2722806
1.1250,-162.2517103
1.1300,-162.2328671
1.1350,-162.2161139
1.1400,-162.2015033
1.1450,-162.1890473
1.1500,-162.1786465
1.1550,-162.1702325
1.1600,-162.1638868
1.1650,-162.1594503
1.1700,-162.1568317
1.1750,-162.1560534
1.1800,-162.1570273
1.1850,-162.1597709
1.1900,-162.1644248
1.1950,-162.1708677
1.2000,-162.1790299
1.2050,-162.1886905
1.2100,-162.1999092
1.2150,-162.2123249
1.2200,-162.225609
1.2250,-162.2396826
1.2300,-162.2542428
1.2350,-162.2692792
1.2400,-162.2849152
1.2450,-162.3013658
1.2500,-162.3188782
1.2550,-162.3375343
1.2600,-162.3574406
1.2650,-162.3786002
1.2700,-162.4010054
1.2750,-162.4244225
1.2800,-162.4488299
1.2850,-162.473899
1.2900,-162.4992653
1.2950,-162.5250322
1.3000,-162.5507643
1.3050,-162.5767497
1.3100,-162.6028641
1.3150,-162.6294147
1.3200,-162.6564171
1.3250,-162.6841564
1.3300,-162.7127037
1.3350,-162.7421605
1.3400,-162.7727877
1.3450,-162.8044233
1.3500,-162.8372985
1.3550,-162.8712453
1.3600,-162.9060923
1.3650,-162.9421077
1.3700,-162.9791812
1.3750,-163.017414
1.3800,-163.057116
1.3850,-163.0984386
1.3900,-163.1415884
1.3950,-163.1868451
1.4000,-163.2343386
1.4050,-163.2844144
1.4100,-163.3371339
1.4150,-163.3926766
1.4200,-163.4512522
1.4250,-163.5125906
1.4300,-163.576416
1.4350,-163.6427417
1.4400,-163.7116161
1.4450,-163.7834432
1.4500,-163.8582204
1.4550,-163.9359653
1.4600,-164.0170285
1.4650,-164.1014155
1.4700,-164.1892965
1.4750,-164.2806619
1.4800,-164.3754131
1.4850,-164.4735152
1.4900,-164.5748511
1.4950,-164.6794029
1.5000,-164.7872197
1.5050,-164.8983546
1.5100,-165.012894
1.5150,-165.1306185
1.5200,-165.2517112
1.5250,-165.3759774
1.5300,-165.5036071
1.5350,-165.6346181
1.5400,-165.7688781
1.5450,-165.9062498
1.5500,-166.0465608
1.5550,-166.1896952
1.5600,-166.3354729
1.5650,-166.4839923
1.5700,-166.635223
1.5750,-166.7892084
1.5800,-166.9457723
1.5850,-167.1052091
1.5900,-167.2674598
1.5950,-167.4326758
1.6000,-167.6007458
1.6050,-167.7717013
1.6100,-167.9458794
1.6150,-168.1231936
1.6200,-168.3038985
1.6250,-168.4877198
1.6300,-168.6745138
1.6350,-168.8641851
1.6400,-169.0565066
1.6450,-169.2514575
1.6500,-169.4487925
1.6550,-169.6486023
1.6600,-169.8508251
1.6650,-170.055371
1.6700,-170.262761
1.6750,-170.4728223
1.6800,-170.6854035
1.6850,-170.9004434
1.6900,-171.1178339
1.6950,-171.3373182
1.7000,-171.5589524
1.7050,-171.782754
1.7100,-172.0086363
1.7150,-172.2367163
1.7200,-172.467199
1.7250,-172.7002896
1.7300,-172.9362202
1.7350,-173.1750981
1.7400,-173.4167331
1.7450,-173.6609608
1.7500,-173.9078458
1.7550,-174.1572463
1.7600,-174.4088857
1.7650,-174.6622544
1.7700,-174.9168931
1.7750,-175.17277
1.7800,-175.4292459
1.7850,-175.6864178
1.7900,-175.9440716
1.7950,-176.2017616
1.8000,-176.4596605
1.8050,-176.7178543
1.8100,-176.9760681
1.8150,-177.2345518
1.8200,-177.4933102
1.8250,-177.7526796
1.8300,-178.0125668
1.8350,-178.2730768
1.8400,-178.5343778
1.8450,-178.7964728
1.8500,-179.0597114
1.8550,-179.3243817
1.8600,-179.5906967
1.8650,-179.8586788
1.8700,179.8714368
1.8750,179.5996779
1.8800,179.3257829
1.8850,179.0499311
1.8900,178.7718952
1.8950,178.4917668
1.9000,178.2092642
1.9050,177.924484
1.9100,177.6375867
1.9150,177.3486441
1.9200,177.0580124
1.9250,176.7655458
1.9300,176.471291
1.9350,176.1752849
1.9400,175.8775953
1.9450,175.578006
1.9500,175.2765421
1.9550,174.973185
1.9600,174.6678976
1.9650,174.3608116
1.9700,174.0520966
1.9750,173.7417177
1.9800,173.4297552
1.9850,173.1164382
1.9900,172.8015996
1.9950,172.4852699
2.0000,172.1677209
2.0050,171.8490995
2.0100,171.5294728
2.0150,171.2089161
2.0200,170.8876553
2.0250,170.5658133
2.0300,170.2434937
2.0350,169.9210094
2.0400,169.5981032
2.0450,169.2751627
2.0500,168.9522773
2.0550,168.6296687
2.0600,168.3076592
2.0650,167.9862974
2.0700,167.6654385
2.0750,167.3454513
2.0800,167.0263092
2.0850,166.7082788
2.0900,166.3911872
2.0950,166.07502
2.1000,165.7597762
2.1050,165.4457301
2.1100,165.1326005
2.1150,164.8204773
2.1200,164.5093823
2.1250,164.1995937
2.1300,163.8909317
2.1350,163.5833147
2.1400,163.2770104
2.1450,162.9716823
2.1500,162.6676928
2.1550,162.3647295
2.1600,162.0628575
2.1650,161.7618033
2.1700,161.4618184
2.1750,161.1629203
2.1800,160.8650635
2.1850,160.5683554
2.1900,160.2728007
2.1950,159.9784826
2.2000,159.6856348
2.2050,159.3942593
2.2100,159.1044712
2.2150,158.8160715
2.2200,158.5290146
2.2250,158.2433782
2.2300,157.9590282
2.2350,157.6758978
2.2400,157.3937612
2.2450,157.1126292
2.2500,156.8324301
2.2550,156.5530716
2.2600,156.2749522
2.2650,155.9978375
2.2700,155.7216571
2.2750,155.4463096
2.2800,155.1717765
2.2850,154.8976844
2.2900,154.6242092
2.2950,154.3514212
2.3000,154.0790728
2.3050,153.8070733
2.3100,153.5356541
2.3150,153.2646032
2.3200,152.9940647
2.3250,152.7240683
2.3300,152.4544078
2.3350,152.1852898
2.3400,151.9167273
2.3450,151.648566
2.3500,151.3806447
2.3550,151.11295
2.3600,150.8456576
2.3650,150.5784728
2.3700,150.3116846
2.3750,150.0452172
2.3800,149.7791038
2.3850,149.5134078
2.3900,149.2483163
2.3950,148.9840096
2.4000,148.7204874
2.4050,148.4576985
2.4100,148.1958415
2.4150,147.9348864
2.4200,147.67481
2.4250,147.415531
2.4300,147.1572891
2.4350,146.9002214
2.4400,146.6443224
2.4450,146.3899627
2.4500,146.1370592
2.4550,145.8859296
2.4600,145.6362269
2.4650,145.3883319
2.4700,145.1420034
2.4750,144.8971551
2.4800,144.6536717
2.4850,144.4115985
2.4900,144.1708043
2.4950,143.9315133
2.5000,143.6932492
2.5050,143.4560186
2.5100,143.219636
2.5150,142.9843134
2.5200,142.7497962
2.5250,142.5159399
2.5300,142.2829641
2.5350,142.0508092
2.5400,141.8195276
2.5450,141.5888883
2.5500,141.3588522
2.5550,141.1295589
2.5600,140.9007742
2.5650,140.6727687
2.5700,140.4458736
2.5750,140.220226
2.5800,139.9959262
2.5850,139.7730579
2.5900,139.5517583
2.5950,139.3317496
2.6000,139.1131925
2.6050,138.8959661
2.6100,138.6800319
2.6150,138.4657443
2.6200,138.2530427
2.6250,138.0418949
2.6300,137.8321505
2.6350,137.6239408
2.6400,137.4173192
2.6450,137.2124359
2.6500,137.0094072
2.6550,136.808217
2.6600,136.6087285
2.6650,136.4110726
2.6700,136.2153425
2.6750,136.0215839
2.6800,135.829562
2.6850,135.6389275
2.6900,135.4497763
2.6950,135.2621066
2.7000,135.0763522
2.7050,134.8922784
2.7100,134.7098656
2.7150,134.52901
2.7200,134.3497832
2.7250,134.1719506
2.7300,133.9953888
2.7350,133.8200127
2.7400,133.6455314
2.7450,133.4715839
2.7500,133.2980113
2.7550,133.1249943
2.7600,132.9529859
2.7650,132.7819383
2.7700,132.6119715
2.7750,132.4433108
2.7800,132.2762483
2.7850,132.111201
2.7900,131.9482373
2.7950,131.7870588
2.8000,131.6278209
2.8050,131.4705411
2.8100,131.3152729
2.8150,131.1618679
2.8200,131.0104758
2.8250,130.8610584
2.8300,130.7137241
2.8350,130.5688179
2.8400,130.4264831
2.8450,130.2869563
2.8500,130.1503222
2.8550,130.0165796
2.8600,129.8857077
2.8650,129.7577874
2.8700,129.6323874
2.8750,129.5095248
2.8800,129.3888576
2.8850,129.2707669
2.8900,129.1547603
2.8950,129.0416288
2.9000,128.9314843
2.9050,128.8243753
2.9100,128.7198358
2.9150,128.6178305
2.9200,128.5183532
2.9250,128.4210058
2.9300,128.3258895
2.9350,128.2324168
2.9400,128.1402847
2.9450,128.0493613
2.9500,127.9598169
2.9550,127.8714268
2.9600,127.7843391
2.9650,127.6986984
2.9700,127.614189
2.9750,127.5307503
2.9800,127.4485423
2.9850,127.3676371
2.9900,127.2875962
2.9950,127.2082912
3.0000,127.1293138
3.0050,127.0506586
3.0100,126.9720838
3.0150,126.893553
3.0200,126.8151398
3.0250,126.7368793
3.0300,126.6587669
3.0350,126.5806475
3.0400,126.5024754
3.0450,126.4241647
3.0500,126.3456764
3.0550,126.2665897
3.0600,126.1866955
3.0650,126.1058261
3.0700,126.0241238
3.0750,125.9416902
3.0800,125.8587434
3.0850,125.7749859
3.0900,125.6908451
3.0950,125.6063992
3.1000,125.5218888
3.1050,125.4376856
3.1100,125.354094
3.1150,125.2712948
3.1200,125.1895293
3.1250,125.1092291
3.1300,125.0306159
3.1350,124.953783
3.1400,124.8787886
3.1450,124.8056893
3.1500,124.7345555
3.1550,124.6653051
3.1600,124.5979608
3.1650,124.5325211
3.1700,124.4694232
3.1750,124.4083202
3.1800,124.3495501
3.1850,124.2929188
3.1900,124.2390059
3.1950,124.1871909
3.2000,124.1369391
3.2050,124.0883348
3.2100,124.0415004
3.2150,123.9962527
3.2200,123.9522696
3.2250,123.909432
3.2300,123.8674128
3.2350,123.8263504
3.2400,123.7862241
3.2450,123.7468428
3.2500,123.7081809
3.2550,123.670239
3.2600,123.6328685
3.2650,123.5956426
3.2700,123.5586136
3.2750,123.5216741
3.2800,123.4845869
3.2850,123.4473838
3.2900,123.4100759
3.2950,123.3726592
3.3000,123.3350746
3.3050,123.297419
3.3100,123.2596735
3.3150,123.2215924
3.3200,123.1828628
3.3250,123.1435246
3.3300,123.1034491
3.3350,123.0628634
3.3400,123.0216544
3.3450,122.9798212
3.3500,122.9378124
3.3550,122.8957722
3.3600,122.8539702
3.3650,122.8124081
3.3700,122.7712478
3.3750,122.7305489
3.3800,122.6900248
3.3850,122.6499507
3.3900,122.6101369
3.3950,122.5709096
3.4000,122.5326459
3.4050,122.4953033
3.4100,122.4589029
3.4150,122.4236576
3.4200,122.389633
3.4250,122.3567113
3.4300,122.3247055
3.4350,122.2934597
3.4400,122.2629024
3.4450,122.2332471
3.4500,122.204293
3.4550,122.1760542
3.4600,122.1485596
3.4650,122.1218336
3.4700,122.0959893
3.4750,122.0711528
3.4800,122.0473452
3.4850,122.0244712
3.4900,122.0022902
3.4950,121.980599
3.5000,121.9594743
3.5050,121.9387836
3.5100,121.9185645
3.5150,121.8987659
3.5200,121.87965
3.5250,121.861133
3.5300,121.8435799
3.5350,121.8267363
3.5400,121.8106433
3.5450,121.7951527
3.5500,121.7799695
3.5550,121.7649608
3.5600,121.7499853
3.5650,121.7352755
3.5700,121.7206972
3.5750,121.7061778
3.5800,121.6915539
3.5850,121.6765996
3.5900,121.6612937
3.5950,121.6454868
3.6000,121.6291587
3.6050,121.6121208
3.6100,121.5942348
3.6150,121.5755823
3.6200,121.5561778
3.6250,121.5362864
3.6300,121.5159326
3.6350,121.4949646
3.6400,121.4735608
3.6450,121.4518873
3.6500,121.4295891
3.6550,121.4066318
3.6600,121.3827687
3.6650,121.357969
3.6700,121.3320697
3.6750,121.3053381
3.6800,121.2778813
3.6850,121.2495865
3.6900,121.2206184
3.6950,121.1910448
3.7000,121.1609592
3.7050,121.1303131
3.7100,121.0992176
3.7150,121.067648
3.7200,121.0355637
3.7250,121.0032764
3.7300,120.9708299
3.7350,120.9383534
3.7400,120.9059569
3.7450,120.8734955
3.7500,120.8411262
3.7550,120.8088705
3.7600,120.7768972
3.7650,120.7451781
3.7700,120.7137434
3.7750,120.6829167
3.7800,120.6526792
3.7850,120.6232444
3.7900,120.5946645
3.7950,120.5671326
3.8000,120.5405734
3.8050,120.5151629
3.8100,120.4909312
3.8150,120.4679037
3.8200,120.4458746
3.8250,120.4250188
3.8300,120.4051915
3.8350,120.386411
3.8400,120.3688257
3.8450,120.352331
3.8500,120.3370258
3.8550,120.3228386
3.8600,120.3096777
3.8650,120.2973423
3.8700,120.28592
3.8750,120.2753514
3.8800,120.2653359
3.8850,120.2559176
3.8900,120.2471396
3.8950,120.2386842
3.9000,120.2304894
3.9050,120.222503
3.9100,120.2148284
3.9150,120.2075458
3.9200,120.2006267
3.9250,120.1936022
3.9300,120.1864677
3.9350,120.1792388
3.9400,120.1720686
3.9450,120.1647945
3.9500,120.1575288
3.9550,120.1504289
3.9600,120.1434644
3.9650,120.1368867
3.9700,120.1309432
3.9750,120.1253358
3.9800,120.1202701
3.9850,120.1157196
3.9900,120.1116548
3.9950,120.1081659
4.0000,120.1051892
4.0050,120.102833
4.0100,120.1011646
4.0150,120.1002891
4.0200,120.1002249
4.0250,120.101037
4.0300,120.103044
4.0350,120.1061642
4.0400,120.1104404
4.0450,120.116228
4.0500,120.1234446
4.0550,120.1323742
4.0600,120.14277
4.0650,120.1549005
4.0700,120.1687364
4.0750,120.18407
4.0800,120.2010905
4.0850,120.2198081
4.0900,120.2403776
4.0950,120.2627529
4.1000,120.2869664
4.1050,120.3128199
4.1100,120.34016
4.1150,120.3690633
4.1200,120.3994845
4.1250,120.4313726
4.1300,120.464581
4.1350,120.4990476
4.1400,120.5345817
4.1450,120.5711718
4.1500,120.6087906
4.1550,120.647364
4.1600,120.6868805
4.1650,120.7273533
4.1700,120.7685052
4.1750,120.8102155
4.1800,120.8523568
4.1850,120.8948271
4.1900,120.9373787
4.1950,120.9800947
4.2000,121.0228637
4.2050,121.0658929
4.2100,121.1091348
4.2150,121.1523307
4.2200,121.1954885
4.2250,121.2386209
4.2300,121.2816689
4.2350,121.3246614
4.2400,121.3674941
4.2450,121.4101376
4.2500,121.4526876
4.2550,121.4949505
4.2600,121.5374709
4.2650,121.580325
4.2700,121.6234416
4.2750,121.6669272
4.2800,121.7109505
4.2850,121.7556693
4.2900,121.8011945
4.2950,121.8472712
4.3000,121.8939445
4.3050,121.9414603
4.3100,121.9898251
4.3150,122.0390906
4.3200,122.0892486
4.3250,122.140175
4.3300,122.1917685
4.3350,122.2440592
4.3400,122.2969883
4.3450,122.3504336
4.3500,122.4044058
4.3550,122.4590249
4.3600,122.5143938
4.3650,122.5704572
4.3700,122.6270487
4.3750,122.6843201
4.3800,122.7418735
4.3850,122.799712
4.3900,122.8576887
4.3950,122.9159302
4.4000,122.9744588
4.4050,123.0331519
4.4100,123.0921931
4.4150,123.1516001
4.4200,123.2117328
4.4250,123.2726301
4.4300,123.3344843
4.4350,123.3976043
4.4400,123.4619793
4.4450,123.5278425
4.4500,123.5951774
4.4550,123.6641778
4.4600,123.734912
4.4650,123.8072772
4.4700,123.8814207
4.4750,123.957244
4.4800,124.0349608
4.4850,124.1144733
4.4900,124.1957107
4.4950,124.2788353
4.5000,124.3638139
4.5050,124.4503257
4.5100,124.5382975
4.5150,124.6278103
4.5200,124.7188612
4.5250,124.8116117
4.5300,124.9059462
4.5350,125.0017857
4.5400,125.0991727
4.5450,125.1982097
4.5500,125.298984
4.5550,125.4015942
4.5600,125.5055831
4.5650,125.6109021
4.5700,125.7175296
4.5750,125.8255287
4.5800,125.9346664
4.5850,126.0447284
4.5900,126.155622
4.5950,126.2673278
4.6000,126.3795391
4.6050,126.4920336
4.6100,126.6045394
4.6150,126.7168632
4.6200,126.8288078
4.6250,126.940243
4.6300,127.0509076
4.6350,127.1608119
4.6400,127.2698986
4.6450,127.378117
4.6500,127.4857268
4.6550,127.5921158
4.6600,127.6974064
4.6650,127.8016269
4.6700,127.9050171
4.6750,128.0074216
4.6800,128.1091775
4.6850,128.2100928
4.6900,128.3105436
4.6950,128.4105285
4.7000,128.5101892
4.7050,128.6099081
4.7100,128.7097106
4.7150,128.8096776
4.7200,128.9097747
4.7250,129.0100075
4.7300,129.1104672
4.7350,129.2110614
4.7400,129.3115759
4.7450,129.412172
4.7500,129.5129631
4.7550,129.6138688
4.7600,129.715082
4.7650,129.8169495
4.7700,129.9198379
4.7750,130.0243219
4.7800,130.1303852
4.7850,130.2380673
4.7900,130.3473855
4.7950,130.4581793
4.8000,130.5705441
4.8050,130.6845185
4.8100,130.7997999
4.8150,130.9167888
4.8200,131.0354237
4.8250,131.1558049
4.8300,131.27809
4.8350,131.402354
4.8400,131.5287299
4.8450,131.657207
4.8500,131.7875956
4.8550,131.9198949
4.8600,132.0540852
4.8650,132.1900815
4.8700,132.3278727
4.8750,132.4669466
4.8800,132.6071454
4.8850,132.7482175
4.8900,132.8898464
4.8950,133.0320019
4.9000,133.1746296
4.9050,133.3175194
4.9100,133.4607819
4.9150,133.604117
4.9200,133.7475419
4.9250,133.8908189
4.9300,134.0339303
4.9350,134.176751
4.9400,134.3189122
4.9450,134.4600882
4.9500,134.6000897
4.9550,134.7392942
4.9600,134.8779357
4.9650,135.0160272
4.9700,135.1536012
4.9750,135.291003
4.9800,135.4284785
4.9850,135.5667721
4.9900,135.7059344
4.9950,135.8462101
5.0000,135.98759
5.0050,136.1301951
5.0100,136.2741395
5.0150,136.4194746
5.0200,136.5667563
5.0250,136.7162289
5.0300,136.8678512
5.0350,137.021789
5.0400,137.1785429
5.0450,137.3382008
5.0500,137.5013364
5.0550,137.6680734
5.0600,137.8379986
5.0650,138.0110721
5.0700,138.1872166
5.0750,138.3658112
5.0800,138.5472529
5.0850,138.7318513
5.0900,138.9199774
5.0950,139.1116483
5.1000,139.306772
5.1050,139.5056029
5.1100,139.7085415
5.1150,139.9155087
5.1200,140.1266572
5.1250,140.3416034
5.1300,140.5602562
5.1350,140.7824435
5.1400,141.0078108
5.1450,141.2361445
5.1500,141.4672181
