type,name,time_units,begin_time,frequency,count,units
signal_4d,"Noraxon MyoMotion-Segments-Upper arm RT-Orientation","s",0.0000,200,5184,""

time,x,y,z,w
0.0000,0.6735088616,0.01800963756,-0.04879186524,0.7373471504
0.0050,0.6735036168,0.01801389135,-0.04876800361,0.7373534157
0.0100,0.6734983716,0.01801814513,-0.04874414195,0.7373596806
0.0150,0.6734931259,0.0180223989,-0.04872028026,0.737365945
0.0200,0.6734870013,0.01802700381,-0.04869439812,0.737373136
0.0250,0.6734799305,0.01803194405,-0.04866666835,0.737381304
0.0300,0.6734718446,0.01803720785,-0.04863731024,0.7373904974
0.0350,0.6734626713,0.01804278047,-0.04860657616,0.7374007656
0.0400,0.6734523298,0.01804863689,-0.04857473455,0.7374121652
0.0450,0.6734407284,0.0180547424,-0.04854205628,0.7374247625
0.0500,0.6734277717,0.01806105597,-0.04850881046,0.7374386279
0.0550,0.6734133721,0.01806752994,-0.04847526354,0.7374538246
0.0600,0.6733974631,0.01807410749,-0.04844167536,0.7374703977
0.0650,0.6733800108,0.01808072129,-0.0484082935,0.7374883631
0.0700,0.673361025,0.01808729764,-0.04837534866,0.7375076985
0.0750,0.6733405681,0.01809376416,-0.04834305456,0.7375283345
0.0800,0.6733187625,0.01810005429,-0.04831161048,0.7375501477
0.0850,0.6732957937,0.0181061113,-0.04828120043,0.7375729581
0.0900,0.6732719041,0.01811189841,-0.04825199165,0.7375965344
0.0950,0.6732473809,0.01811741087,-0.04822413537,0.7376206046
0.1000,0.6732225421,0.01812268507,-0.04819776115,0.7376448691
0.1050,0.6731977288,0.01812780444,-0.04817296166,0.7376690087
0.1100,0.6731732981,0.01813289811,-0.04814977986,0.7376926917
0.1150,0.6731496121,0.01813812954,-0.04812820745,0.7377155845
0.1200,0.6731270323,0.01814368005,-0.04810819149,0.7377373565
0.1250,0.6731059174,0.01814972872,-0.04808964288,0.7377576821
0.1300,0.6730866175,0.01815642966,-0.0480724447,0.7377762462
0.1350,0.6730694629,0.0181638939,-0.04805646226,0.7377927538
0.1400,0.6730547507,0.01817217766,-0.04804155202,0.7378069421
0.1450,0.6730427262,0.01818126977,-0.04802756561,0.7378185976
0.1500,0.6730335649,0.01819108026,-0.0480143503,0.7378275728
0.1550,0.672977913,0.01815397785,-0.04796782864,0.7378822732
0.1600,0.6729223052,0.01811484136,-0.04792162872,0.7379369494
0.1650,0.6728672575,0.01807317084,-0.04787503918,0.7379911889
0.1700,0.6728124125,0.01802859428,-0.0478293005,0.7380452462
0.1750,0.6727570363,0.01797999475,-0.04778335212,0.7380998856
0.1800,0.6727006767,0.01792789591,-0.04773774286,0.7381554701
0.1850,0.6726440899,0.01787197759,-0.04769337124,0.7382112591
0.1900,0.6725873552,0.01780963218,-0.04764943712,0.7382672942
0.1950,0.6725290626,0.01774191897,-0.04760489528,0.7383249002
0.2000,0.6724685529,0.01766988892,-0.04756110466,0.7383845622
0.2050,0.6724065041,0.01759221187,-0.04751664834,0.7384457837
0.2100,0.6723419945,0.01750896437,-0.04747287347,0.7385093127
0.2150,0.6722755311,0.01742031528,-0.04742845923,0.7385747654
0.2200,0.672205454,0.01732514428,-0.04738455797,0.7386436019
0.2250,0.672131457,0.01722488185,-0.04733985097,0.7387161474
0.2300,0.6720540993,0.01711859295,-0.04729528938,0.7387918495
0.2350,0.6719733148,0.01700616751,-0.04725188109,0.7388707019
0.2400,0.6718877113,0.01688689059,-0.0472095273,0.7389539883
0.2450,0.6717987142,0.01676376062,-0.04716743661,0.7390403891
0.2500,0.67170431,0.01663503105,-0.04712833642,0.7391315956
0.2550,0.6716043032,0.01650150715,-0.04709090005,0.7392278454
0.2600,0.6715004716,0.01636446759,-0.04705438594,0.7393275361
0.2650,0.6713902573,0.0162237091,-0.04701987975,0.7394329209
0.2700,0.6712738443,0.01607909755,-0.0469853415,0.7395439583
0.2750,0.6711523458,0.01593101837,-0.04695268858,0.7396595003
0.2800,0.6710249162,0.01578074681,-0.04692197834,0.7397802767
0.2850,0.6708927607,0.01562743378,-0.04689280202,0.7399052318
0.2900,0.6707553764,0.01547142259,-0.04686672773,0.7400347086
0.2950,0.6706139077,0.0153135643,-0.04684198349,0.7401677581
0.3000,0.6704671759,0.01515317941,-0.04681975576,0.7403053814
0.3050,0.670316219,0.01499010005,-0.04680041721,0.7404466114
0.3100,0.6701608795,0.01482500586,-0.04678401447,0.7405915681
0.3150,0.6700029331,0.01465802637,-0.04677105238,0.7407386047
0.3200,0.6698418508,0.01449055645,-0.04675930244,0.740888309
0.3250,0.6696777685,0.01432161622,-0.04675105153,0.7410404286
0.3300,0.6695110508,0.01415215046,-0.04674568252,0.741194651
0.3350,0.6693424016,0.01398287509,-0.04674343523,0.7413503085
0.3400,0.6691713747,0.0138130346,-0.04674490201,0.7415077785
0.3450,0.6689993121,0.01364272123,-0.04675115176,0.7416657781
0.3500,0.6688269733,0.01347306513,-0.0467608455,0.741823685
0.3550,0.6686543299,0.0133024416,-0.04677241735,0.7419816529
0.3600,0.6684819062,0.01313292938,-0.04678602351,0.7421391616
0.3650,0.6683097411,0.01296246571,-0.04680142709,0.7422962285
0.3700,0.6681381141,0.01279106009,-0.04681851836,0.7424526083
0.3750,0.6679671798,0.01262013292,-0.04683716923,0.742608146
0.3800,0.6677961665,0.01244978035,-0.0468583265,0.7427634753
0.3850,0.6676272628,0.01227948564,-0.04687996939,0.7429167657
0.3900,0.6674601395,0.01211152514,-0.04690168363,0.7430683045
0.3950,0.6672961449,0.01194469911,-0.04692403444,0.7432168689
0.4000,0.667134,0.01177909929,-0.04694841319,0.7433635217
0.4050,0.6669752601,0.01161654168,-0.04697259537,0.7435069829
0.4100,0.6668198439,0.01145822899,-0.04699680508,0.7436472988
0.4150,0.6666685562,0.01130291617,-0.04702001966,0.7437838382
0.4200,0.6665207893,0.01115261956,-0.04704236629,0.7439171139
0.4250,0.6663775784,0.0110077565,-0.04706439531,0.7440461646
0.4300,0.6662384444,0.0108685138,-0.04708629096,0.744171413
0.4350,0.6661022832,0.01073607694,-0.04710585794,0.7442939763
0.4400,0.6659694077,0.01060900608,-0.04712350421,0.7444135761
0.4450,0.6658414459,0.01048830103,-0.04713933355,0.744528742
0.4500,0.665717932,0.01037285757,-0.04715207518,0.744639994
0.4550,0.665598306,0.01026391605,-0.04716068921,0.7447478878
0.4600,0.6654826439,0.01016106055,-0.04716579862,0.7448523283
0.4650,0.665369983,0.01006365317,-0.04716620383,0.7449542656
0.4700,0.6652607393,0.009970754224,-0.04716265626,0.7450532979
0.4750,0.6651532479,0.009883742677,-0.04715415405,0.7451509607
0.4800,0.6650488909,0.009801018945,-0.04714104243,0.745246023
0.4850,0.664946833,0.009723724397,-0.04712179953,0.745339315
0.4900,0.6648468405,0.009651981132,-0.04709735358,0.7454309876
0.4950,0.6647493192,0.009584295257,-0.04706942798,0.7455205919
0.5000,0.6646537252,0.009520163758,-0.04703680314,0.7456086985
0.5050,0.6645603735,0.009459624371,-0.04700145115,0.7456949035
0.5100,0.6644689539,0.009402451336,-0.04696315276,0.7457795019
0.5150,0.6643797257,0.009349287348,-0.04692269466,0.7458622068
0.5200,0.6642935067,0.009299617412,-0.04688025277,0.7459422873
0.5250,0.6642100946,0.009253035624,-0.04683722217,0.746019843
0.5300,0.6641286498,0.0092108459,-0.04679429222,0.7460955643
0.5350,0.6640487581,0.00917262387,-0.04675209065,0.7461697875
0.5400,0.6639720473,0.00913888009,-0.04671027885,0.7462410811
0.5450,0.6638975237,0.009109534863,-0.04667075435,0.7463102137
0.5500,0.6638246178,0.00908447243,-0.04663158007,0.7463778164
0.5550,0.6637536856,0.009064224565,-0.04659553196,0.7464433944
0.5600,0.6636838071,0.009048986653,-0.04656258635,0.7465077666
0.5650,0.6636153258,0.009038957928,-0.04653217182,0.7465706621
0.5700,0.6635487133,0.009033943776,-0.04650586586,0.7466315674
0.5750,0.6634832188,0.009034434972,-0.04648261161,0.7466912107
0.5800,0.6634180754,0.009038908758,-0.04646185849,0.7467503271
0.5850,0.6633533823,0.009046749816,-0.04644338706,0.7468088499
0.5900,0.6632887584,0.009058873373,-0.0464252333,0.7468672288
0.5950,0.6632239686,0.009074058949,-0.04640920197,0.7469255752
0.6000,0.6631592709,0.009092122618,-0.04639356298,0.7469837696
0.6050,0.6630942767,0.00911268753,-0.04637868752,0.7470421384
0.6100,0.6630295412,0.009135747346,-0.04636372034,0.7471002416
0.6150,0.6629654518,0.009160293666,-0.04634783816,0.747157799
0.6200,0.6629012623,0.009184833729,-0.04633209308,0.7472154257
0.6250,0.6628381089,0.009211611717,-0.04631676289,0.7472720689
0.6300,0.6627765812,0.009240264848,-0.04630274471,0.7473271551
0.6350,0.6627164401,0.0092684956,-0.04628914111,0.7473809808
0.6400,0.6626589026,0.009297127487,-0.04627626585,0.7474324381
0.6450,0.6626032267,0.009327517124,-0.04626395234,0.7474821791
0.6500,0.6625492232,0.009356958921,-0.04625136041,0.7475304581
0.6550,0.6624982,0.009386356344,-0.04623949574,0.7475760432
0.6600,0.662449595,0.009414825844,-0.04622958579,0.7476193687
0.6650,0.662402471,0.009442770063,-0.04622210988,0.7476612315
0.6700,0.6623566776,0.009471366119,-0.04621484609,0.7477018877
0.6750,0.6623126506,0.009498391338,-0.04620993014,0.747740848
0.6800,0.6622698445,0.0095235112,-0.04620570303,0.7477787031
0.6850,0.6622284552,0.009548312228,-0.04620360926,0.7478151705
0.6900,0.6621879939,0.009572129757,-0.04620337145,0.7478507094
0.6950,0.66214802,0.009596300882,-0.0462041213,0.7478857465
0.7000,0.6621093366,0.009620356907,-0.04620516792,0.7479196197
0.7050,0.6620710624,0.009643632981,-0.04620685691,0.7479530969
0.7100,0.6620333805,0.009666395218,-0.04620760206,0.7479861104
0.7150,0.6619955687,0.009689595558,-0.04620853309,0.7480192178
0.7200,0.6619583161,0.009712831233,-0.04620814901,0.748051907
0.7250,0.6619215352,0.00973488973,-0.04620546113,0.7480843325
0.7300,0.6618857287,0.009756251893,-0.04619967105,0.7481160926
0.7350,0.6618501685,0.009776383677,-0.04619116777,0.7481478148
0.7400,0.6618160785,0.009797103329,-0.0461816982,0.7481782847
0.7450,0.661781404,0.009816129275,-0.04616917017,0.7482094791
0.7500,0.6617471484,0.009835075808,-0.0461546589,0.7482404229
0.7550,0.6617135492,0.009853155121,-0.04613886578,0.7482708729
0.7600,0.6616805727,0.009869963652,-0.04612125532,0.7483008976
0.7650,0.6616487872,0.009886326456,-0.04610288785,0.7483299183
0.7700,0.6616185015,0.009901810848,-0.04608173041,0.7483577932
0.7750,0.6615904583,0.009916363389,-0.0460603456,0.7483837089
0.7800,0.6615641283,0.009930672937,-0.04603876536,0.7484081226
0.7850,0.6615385415,0.009944277701,-0.04601621033,0.7484319461
0.7900,0.661513666,0.009956708565,-0.04599418525,0.7484551213
0.7950,0.6614895333,0.009969338562,-0.04596923119,0.7484778149
0.8000,0.6614667642,0.009981118253,-0.0459437012,0.7484993477
0.8050,0.6614442646,0.009992165789,-0.04591755801,0.7485206873
0.8100,0.6614220357,0.01000203971,-0.04589008884,0.7485418824
0.8150,0.6613994278,0.01001008624,-0.04586262805,0.7485634338
0.8200,0.6613770029,0.01001707395,-0.04583395078,0.7485849098
0.8250,0.6613543152,0.01002287522,-0.04580473305,0.7486066645
0.8300,0.6613314827,0.01002700556,-0.04577420423,0.7486286472
0.8350,0.6613084423,0.01002990856,-0.04574313758,0.7486508602
0.8400,0.6612850877,0.01003092233,-0.04571213462,0.7486733695
0.8450,0.6612607699,0.01002756255,-0.04567943361,0.748696889
0.8500,0.6612365375,0.01002254918,-0.04564682389,0.7487203467
0.8550,0.6612113815,0.01001556191,-0.0456132342,0.7487447031
0.8600,0.6611862348,0.01000478304,-0.04557879284,0.7487691506
0.8650,0.6611619213,0.009990702188,-0.04554293836,0.7487929891
0.8700,0.6611372007,0.009972909225,-0.04550603695,0.7488172965
0.8750,0.6611126531,0.009952809949,-0.04546822951,0.748841533
0.8800,0.6610890076,0.009928567639,-0.04542893253,0.7488651144
0.8850,0.6610665226,0.009900145273,-0.04538891619,0.748887766
0.8900,0.661044806,0.00986730289,-0.045348828,0.7489097974
0.8950,0.6610244789,0.009828825959,-0.04530800322,0.7489307159
0.9000,0.6610050542,0.009786064585,-0.04526716628,0.7489508896
0.9050,0.6609864663,0.009738600691,-0.04522483931,0.74897047
0.9100,0.6609679412,0.009685851759,-0.04518163791,0.7489901098
0.9150,0.6609491401,0.009629449609,-0.04513917068,0.7490099887
0.9200,0.6609316366,0.009568401366,-0.04509577608,0.7490288302
0.9250,0.6609142646,0.009503420165,-0.04505146482,0.7490476522
0.9300,0.6608975143,0.009434382641,-0.04500507058,0.749066093
0.9350,0.6608815479,0.00936063608,-0.04495838707,0.7490839082
0.9400,0.6608664268,0.009283722826,-0.04491034242,0.7491010877
0.9450,0.6608521842,0.009201350821,-0.04486193121,0.7491175695
0.9500,0.6608389404,0.009114536608,-0.04481344647,0.7491332158
0.9550,0.6608259514,0.00902204254,-0.04476572766,0.7491486463
0.9600,0.6608127702,0.008924061259,-0.04471807204,0.749164293
0.9650,0.6608003676,0.008820490169,-0.0446694325,0.749179361
0.9700,0.6607893395,0.008710691248,-0.04462293345,0.7491931436
0.9750,0.6607790008,0.008595144776,-0.04457553673,0.7492064182
0.9800,0.6607709254,0.008473489858,-0.04452675436,0.749217827
0.9850,0.6607629902,0.008345251559,-0.04447813468,0.7492291526
0.9900,0.6607567594,0.00821050671,-0.04442762616,0.7492391331
0.9950,0.6607517415,0.008068485078,-0.0443762085,0.7492481484
1.0000,0.6607474812,0.007918307962,-0.04432260213,0.7492566806
1.0050,0.6607435421,0.00776107385,-0.0442670445,0.749265084
1.0100,0.6607402415,0.00759670148,-0.04420978188,0.7492730601
1.0150,0.6607380142,0.007425600508,-0.04415036677,0.7492802427
1.0200,0.6607375828,0.00724774501,-0.04408828056,0.7492860204
1.0250,0.6607371722,0.007063934622,-0.04402393098,0.7492919214
1.0300,0.6607380644,0.006873881037,-0.04395620265,0.7492968786
1.0350,0.6607414159,0.006678754225,-0.04388619789,0.7492997912
1.0400,0.6607466791,0.006477404025,-0.04381233467,0.7493012402
1.0450,0.6607553682,0.006270579237,-0.04373361003,0.7492999364
1.0500,0.6607674626,0.006058434917,-0.04365027568,0.7492958756
1.0550,0.6607832993,0.005840697818,-0.04356049147,0.7492888636
1.0600,0.6608029932,0.005617126345,-0.04346397101,0.7492788101
1.0650,0.660825953,0.005386169228,-0.04336026429,0.7492662655
1.0700,0.6608517366,0.005148012259,-0.04325076922,0.7492515273
1.0750,0.660880844,0.004900744655,-0.04313335744,0.74923428
1.0800,0.6609129943,0.004645699367,-0.04300753262,0.749214778
1.0850,0.6609476938,0.004380930114,-0.0428748684,0.7491933657
1.0900,0.6609858038,0.004106182486,-0.04273524823,0.7491692766
1.0950,0.6610263506,0.003821623688,-0.04259047715,0.7491432508
1.1000,0.6610694827,0.003527048039,-0.04244046903,0.7491151484
1.1050,0.6611150826,0.00322424925,-0.04228732016,0.7490849313
1.1100,0.6611630599,0.002915072928,-0.04213101319,0.7490526606
1.1150,0.6612141488,0.002600492804,-0.04197258821,0.7490176158
1.1200,0.6612681989,0.002282123428,-0.04181368928,0.7489798237
1.1250,0.6613253972,0.001962129402,-0.04165524092,0.7489390562
1.1300,0.6613861343,0.001642249464,-0.04149612357,0.7488950235
1.1350,0.6614512478,0.001322455822,-0.04133732669,0.7488469292
1.1400,0.661519766,0.001004189513,-0.04117946824,0.7487955944
1.1450,0.6615926016,0.000690607373,-0.0410250096,0.7487400758
1.1500,0.6616696783,0.0003778069747,-0.04087213205,0.748680548
1.1550,0.6617515642,6.720585756e-5,-0.04072128101,0.7486164839
1.1600,0.6618369461,-0.0002413514605,-0.04057373134,0.7485489769
1.1650,0.6619268159,-0.0005473717384,-0.04042822425,0.7484772204
1.1700,0.6620200847,-0.0008516169217,-0.04028419228,0.7484022087
1.1750,0.6621180947,-0.001156972325,-0.04014062494,0.7483228049
1.1800,0.6622207907,-0.001463255014,-0.03999837033,0.7482390084
1.1850,0.6623272334,-0.00177051889,-0.03985569846,0.7481517389
1.1900,0.6624387621,-0.002079352219,-0.03971274765,0.7480597974
1.1950,0.6625550627,-0.002391089545,-0.03956861322,0.7479634994
1.2000,0.6626770873,-0.002706576501,-0.03942262971,0.7478620251
1.2050,0.6628040343,-0.003026879671,-0.03927523413,0.7477560472
1.2100,0.6629361073,-0.003352916038,-0.03912795903,0.7476452892
1.2150,0.6630723654,-0.003687039491,-0.03897846142,0.747530684
1.2200,0.6632112381,-0.004027735987,-0.03882885609,0.7474135073
1.2250,0.6633541995,-0.004377293051,-0.03867686973,0.7472925432
1.2300,0.6634983529,-0.004736253192,-0.03852519542,0.7471702035
1.2350,0.6636457051,-0.005104243587,-0.03837270086,0.7470447515
1.2400,0.6637945002,-0.005480946147,-0.03821951322,0.7469177261
1.2450,0.6639442166,-0.005865748189,-0.03806537385,0.7467895939
1.2500,0.6640946521,-0.006258115574,-0.03791090559,0.7466604933
1.2550,0.66424644,-0.006656166241,-0.03775469096,0.7465299363
1.2600,0.6643993369,-0.007059699186,-0.03759656767,0.7463981376
1.2650,0.6645527752,-0.007468483082,-0.03743784127,0.7462655283
1.2700,0.6647058865,-0.007881483273,-0.03727621081,0.7461329981
1.2750,0.6648578586,-0.008296936386,-0.03711321296,0.7460012052
1.2800,0.6650076061,-0.008712162127,-0.03694901657,0.7458711365
1.2850,0.6651559751,-0.009128290637,-0.03678276007,0.7457420678
1.2900,0.6653016259,-0.009543248096,-0.03661706747,0.7456150906
1.2950,0.6654435615,-0.009956122937,-0.03645110241,0.745491153
1.3000,0.6655810678,-0.01036385096,-0.03628561733,0.7453709055
1.3050,0.6657145999,-0.01076635749,-0.03612179513,0.7452538983
1.3100,0.6658440306,-0.01116188747,-0.03595931195,0.7451403002
1.3150,0.6659684877,-0.01154934674,-0.03580060726,0.7450308064
1.3200,0.6660878833,-0.01192628021,-0.03564627896,0.7449255254
1.3250,0.6662023422,-0.01229214532,-0.03549607524,0.7448243894
1.3300,0.6663104454,-0.01264514521,-0.03535370749,0.7447285452
1.3350,0.6664122764,-0.01298446806,-0.03521735225,0.744638046
1.3400,0.6665071151,-0.01330841851,-0.03508837992,0.7445535287
1.3450,0.6665937214,-0.0136152137,-0.0349672233,0.7444761446
1.3500,0.6666726491,-0.0139044017,-0.03485516924,0.744405376
1.3550,0.6667431679,-0.01417540031,-0.03475225827,0.7443419151
1.3600,0.6668055861,-0.01442705994,-0.03465762708,0.7442855763
1.3650,0.6668601627,-0.0146572506,-0.03457266759,0.7442361313
1.3700,0.6669071355,-0.01486532118,-0.03449529082,0.7441935029
1.3750,0.666945737,-0.015050076,-0.03442610315,0.7441583988
1.3800,0.6669765313,-0.01521285412,-0.03436493394,0.7441303159
1.3850,0.6670014397,-0.01535214094,-0.0343097781,0.7441076739
1.3900,0.6670183539,-0.01546639098,-0.03425978201,0.7440924497
1.3950,0.6670293919,-0.01555704992,-0.03421491936,0.7440827292
1.4000,0.6670341535,-0.01562249835,-0.03417326937,0.7440790034
1.4050,0.6670334946,-0.01566454966,-0.03413091422,0.744080654
1.4100,0.6670268158,-0.01568412285,-0.0340881803,0.7440881879
1.4150,0.6670142456,-0.01568246861,-0.03404483177,0.7441014754
1.4200,0.6669964687,-0.01566111797,-0.03400024258,0.7441198987
1.4250,0.6669733397,-0.01562164972,-0.03395365782,0.7441435865
1.4300,0.6669448092,-0.0155660192,-0.03390675759,0.7441724614
1.4350,0.6669105955,-0.01549461004,-0.03385689072,0.7442068836
1.4400,0.6668708295,-0.01540759392,-0.03380518537,0.7442466744
1.4450,0.6668257604,-0.01530644961,-0.03375155749,0.7442915761
1.4500,0.6667758519,-0.01518980175,-0.03369666271,0.7443411638
1.4550,0.666722867,-0.01505942886,-0.03364006318,0.7443938328
1.4600,0.6666663216,-0.01491517955,-0.03358233181,0.7444499849
1.4650,0.6666069823,-0.01475924916,-0.03352341749,0.7445088825
1.4700,0.6665463108,-0.01459331979,-0.0334643068,0.744569131
1.4750,0.6664828696,-0.01441554506,-0.03340535776,0.744632029
1.4800,0.6664169307,-0.01422806688,-0.03334498729,0.7446973535
1.4850,0.6663483112,-0.01403212736,-0.03328370055,0.7447652133
1.4900,0.6662770934,-0.01382952812,-0.03322230588,0.7448354566
1.4950,0.6662029599,-0.01362101839,-0.03315909576,0.7449084229
1.5000,0.6661258594,-0.01340785707,-0.03309487552,0.7449840924
1.5050,0.6660459735,-0.01319115031,-0.0330291296,0.7450623003
1.5100,0.6659635921,-0.01297153124,-0.03295989566,0.7451428578
1.5150,0.6658790932,-0.01274839645,-0.03288983762,0.7452253151
1.5200,0.6657932932,-0.01252390088,-0.0328180354,0.7453089421
1.5250,0.6657065406,-0.01229796473,-0.03274577392,0.7453933701
1.5300,0.6656194527,-0.01207135975,-0.032671572,0.7454780981
1.5350,0.6655309967,-0.01184413704,-0.03259648092,0.7455640001
1.5400,0.6654418642,-0.01161695956,-0.03252128255,0.7456504126
1.5450,0.6653531302,-0.0113888955,-0.03244617235,0.7457363818
1.5500,0.6652647948,-0.01116098756,-0.0323709217,0.7458219014
1.5550,0.6651762394,-0.01093427357,-0.03229829489,0.7459073886
1.5600,0.6650891986,-0.01070829491,-0.03222935067,0.7459912596
1.5650,0.665003467,-0.01048199889,-0.03216465636,0.7460736903
1.5700,0.6649200107,-0.01025706282,-0.03210566464,0.7461537364
1.5750,0.664839238,-0.01003294725,-0.03205374593,0.7462309864
1.5800,0.6647614543,-0.009809533731,-0.03200962615,0.7463051425
1.5850,0.6646855556,-0.009585533369,-0.03197353673,0.7463771986
