type,name,time_units,begin_time,frequency,count,units
signal_3d,"Noraxon MyoMotion-Trajectories-Radial styloid process RT","s",0.0000,200,5348,"mm"

time,x,y,z
0.0000,-82.83450546,247.2043375,972.2077118
0.0050,-82.7516143,247.1829412,972.2012203
0.0100,-82.66871927,247.1615568,972.1947419
0.0150,-82.58582037,247.1401841,972.1882767
0.0200,-82.49701941,247.1166878,972.1812559
0.0250,-82.40293914,247.0911457,972.173714
0.0300,-82.3042875,247.0636698,972.1656941
0.0350,-82.20183046,247.0343962,972.1572459
0.0400,-82.09636852,247.0034697,972.1484245
0.0450,-81.98871994,246.971031,972.1392899
0.0500,-81.87970525,246.9372166,972.1299061
0.0550,-81.77012569,246.9021683,972.1203404
0.0600,-81.6607399,246.8660454,972.1106616
0.0650,-81.55224811,246.8290293,972.1009387
0.0700,-81.44528794,246.7913229,972.0912398
0.0750,-81.34044016,246.7531451,972.0816333
0.0800,-81.23823449,246.714721,972.0721872
0.0850,-81.13914823,246.676274,972.0629667
0.0900,-81.04360272,246.6380245,972.0540333
0.0950,-80.95196481,246.6001915,972.0454439
0.1000,-80.8645527,246.5629927,972.0372491
0.1050,-80.78164284,246.5266416,972.0294932
0.1100,-80.70347671,246.4913476,972.0222131
0.1150,-80.63026884,246.4573201,972.015439
0.1200,-80.56221067,246.4247721,972.0091949
0.1250,-80.49946447,246.3939165,972.0034992
0.1300,-80.44215199,246.3649534,971.9983644
0.1350,-80.39034334,246.3380579,971.9937968
0.1400,-80.34404762,246.3133752,971.9897959
0.1450,-80.30320628,246.2910239,971.9863543
0.1500,-80.26768864,246.2710943,971.9834559
0.1550,-80.17709557,246.2278542,971.9763104
0.1600,-80.09443289,246.1871789,971.9699003
0.1650,-80.01858752,246.1480875,971.964013
0.1700,-79.94914731,246.1126846,971.9588314
0.1750,-79.88613928,246.0785864,971.954152
0.1800,-79.82924562,246.046584,971.9500252
0.1850,-79.77872951,246.0176767,971.9463697
0.1900,-79.73273325,245.990394,971.9431088
0.1950,-79.69168627,245.9645468,971.9401151
0.2000,-79.65588064,245.9402082,971.9375202
0.2050,-79.62530931,245.9165619,971.9353523
0.2100,-79.59848405,245.8953657,971.9335943
0.2150,-79.57544624,245.8753175,971.9320409
0.2200,-79.55512086,245.8578036,971.9306676
0.2250,-79.53771682,245.8422214,971.929559
0.2300,-79.52346249,245.8276382,971.9287585
0.2350,-79.51203952,245.8141636,971.928153
0.2400,-79.50282305,245.8018716,971.9277753
0.2450,-79.4973641,245.7909334,971.9277127
0.2500,-79.49444071,245.7796371,971.9279194
0.2550,-79.49385881,245.7687393,971.9283367
0.2600,-79.49593084,245.7577936,971.9290127
0.2650,-79.49930819,245.7470836,971.9298678
0.2700,-79.50481348,245.7355805,971.9307912
0.2750,-79.51272767,245.725069,971.9320574
0.2800,-79.52362921,245.7136603,971.9335743
0.2850,-79.53669441,245.7023119,971.9353021
0.2900,-79.55152715,245.6884069,971.9372188
0.2950,-79.56852391,245.6730425,971.9394895
0.3000,-79.58747534,245.656163,971.9420063
0.3050,-79.60822372,245.6381385,971.9448037
0.3100,-79.63125754,245.6172964,971.9477964
0.3150,-79.65619568,245.5949781,971.9510022
0.3200,-79.68367869,245.572555,971.9545287
0.3250,-79.71305358,245.5477979,971.9583243
0.3300,-79.74482649,245.5219377,971.9622886
0.3350,-79.77857558,245.4945516,971.9665625
0.3400,-79.81545121,245.4665245,971.9710767
0.3450,-79.85373083,245.4372871,971.975849
0.3500,-79.89442898,245.4071098,971.9808592
0.3550,-79.93749504,245.3760064,971.9861009
0.3600,-79.98214168,245.344054,971.9915644
0.3650,-80.02860352,245.3118653,971.9972149
0.3700,-80.07678362,245.2795756,972.0030495
0.3750,-80.12682876,245.2466934,972.0090762
0.3800,-80.17821881,245.214109,972.0152932
0.3850,-80.23124437,245.1807665,972.0215919
0.3900,-80.28647395,245.1467619,972.0279633
0.3950,-80.34300837,245.1126189,972.0343576
0.4000,-80.40132743,245.0779397,972.0408696
0.4050,-80.45999434,245.0435049,972.0474119
0.4100,-80.51968099,245.0101067,972.0540206
0.4150,-80.58011837,244.9761648,972.0605717
0.4200,-80.6417951,244.9414732,972.0671763
0.4250,-80.70513428,244.9084696,972.0739332
0.4300,-80.76939389,244.8759466,972.0807467
0.4350,-80.83379517,244.84453,972.0876425
0.4400,-80.89920414,244.813356,972.094552
0.4450,-80.96656335,244.7837332,972.1014213
0.4500,-81.03430007,244.7556645,972.1083658
0.4550,-81.10178502,244.72971,972.1153691
0.4600,-81.16994456,244.7060348,972.1223319
0.4650,-81.23930403,244.6845889,972.1292584
0.4700,-81.30890321,244.6648924,972.1361333
0.4750,-81.37886727,244.6483957,972.1430608
0.4800,-81.4485122,244.6348741,972.1498914
0.4850,-81.51772385,244.6228314,972.1566612
0.4900,-81.58679403,244.6137141,972.1633169
0.4950,-81.65444835,244.6071759,972.1698855
0.5000,-81.72141635,244.6025008,972.1762056
0.5050,-81.78680786,244.5996066,972.1822454
0.5100,-81.85097944,244.598286,972.1879744
0.5150,-81.91376675,244.5982506,972.1935386
0.5200,-81.97514155,244.59862,972.1987065
0.5250,-82.0346498,244.5993726,972.2035808
0.5300,-82.09215929,244.6013522,972.2081569
0.5350,-82.14840155,244.6037701,972.2124883
0.5400,-82.20285911,244.6045043,972.2164538
0.5450,-82.25345312,244.6044568,972.2199447
0.5500,-82.30201302,244.6041193,972.2230516
0.5550,-82.34985054,244.6037488,972.2259582
0.5600,-82.39564113,244.6030378,972.2285658
0.5650,-82.43992874,244.6027788,972.2310335
0.5700,-82.48295349,244.6033817,972.2335066
0.5750,-82.52286807,244.6040026,972.235739
0.5800,-82.55992359,244.6051264,972.2377402
0.5850,-82.5943067,244.6061257,972.239593
0.5900,-82.62621349,244.6075706,972.2412503
0.5950,-82.6560078,244.6080499,972.2426749
0.6000,-82.68401092,244.6067994,972.2438923
0.6050,-82.71024162,244.604564,972.2449453
0.6100,-82.73589209,244.5988814,972.24594
0.6150,-82.76022139,244.589537,972.2468769
0.6200,-82.78368895,244.5744113,972.2477981
0.6250,-82.80817764,244.5541832,972.2488675
0.6300,-82.83329657,244.5272609,972.2500023
0.6350,-82.86015476,244.4955121,972.251376
0.6400,-82.88838395,244.4565458,972.2529961
0.6450,-82.92063607,244.411291,972.2550351
0.6500,-82.95585054,244.3583571,972.2574659
0.6550,-82.99610466,244.2966922,972.2604109
0.6600,-83.04312991,244.2251321,972.264023
0.6650,-83.0982805,244.1430209,972.2683662
0.6700,-83.16334038,244.0491279,972.2736132
0.6750,-83.24022992,243.9431946,972.2799412
0.6800,-83.33110918,243.8230729,972.2875066
0.6850,-83.43654065,243.6895929,972.2965155
0.6900,-83.55634971,243.5420064,972.3070209
0.6950,-83.69248483,243.3803756,972.3192392
0.7000,-83.84307721,243.2031224,972.3329673
0.7050,-84.01033752,243.0106057,972.3484135
0.7100,-84.19229938,242.8026683,972.3654872
0.7150,-84.38827337,242.5790423,972.3843673
0.7200,-84.59811803,242.33801,972.4048949
0.7250,-84.82301212,242.0783666,972.4272503
0.7300,-85.06081098,241.7991854,972.4514056
0.7350,-85.31397171,241.499731,972.4777233
0.7400,-85.58259628,241.1820885,972.5064604
0.7450,-85.86784713,240.8451824,972.537937
0.7500,-86.17000427,240.4904855,972.5723306
0.7550,-86.49048196,240.1182311,972.6098554
0.7600,-86.82929304,239.7294661,972.6507799
0.7650,-87.18610284,239.3266269,972.6952759
0.7700,-87.56065987,238.9100709,972.7433847
0.7750,-87.95141327,238.4805727,972.795087
0.7800,-88.35823622,238.0382393,972.8505752
0.7850,-88.77886404,237.5843953,972.9097088
0.7900,-89.21249559,237.1197978,972.9724271
0.7950,-89.6582296,236.6453388,973.0388122
0.8000,-90.11205378,236.1620326,973.1086492
0.8050,-90.57400967,235.6711209,973.1818327
0.8100,-91.04072471,235.1724034,973.2580022
0.8150,-91.50903626,234.6686461,973.3368128
0.8200,-91.97653511,234.1602504,973.4181745
0.8250,-92.44055966,233.6498617,973.5016734
0.8300,-92.89919781,233.1374371,973.5869314
0.8350,-93.34944393,232.6244922,973.6738103
0.8400,-93.78992117,232.1144084,973.7619935
0.8450,-94.22127181,231.6080173,973.851446
0.8500,-94.64118685,231.106054,973.9419295
0.8550,-95.04732894,230.6103317,974.0329599
0.8600,-95.44176347,230.1209595,974.1247306
0.8650,-95.82489058,229.6391958,974.2168496
0.8700,-96.19774148,229.1658427,974.3092028
0.8750,-96.56360664,228.7016933,974.4019613
0.8800,-96.92051811,228.246989,974.4947476
0.8850,-97.27301695,227.8035141,974.5877581
0.8900,-97.62086518,227.3704564,974.6808152
0.8950,-97.96549692,226.9483823,974.7737904
0.9000,-98.30760252,226.5398856,974.8667157
0.9050,-98.64883665,226.1431419,974.9593014
0.9100,-98.98924536,225.7590564,975.0512777
0.9150,-99.3295007,225.3874732,975.1424745
0.9200,-99.66957913,225.0279277,975.2325174
0.9250,-100.0090415,224.6797782,975.321304
0.9300,-100.3487201,224.3443853,975.4087895
0.9350,-100.6873961,224.0182536,975.4946754
0.9400,-101.0248563,223.7032972,975.5788389
0.9450,-101.3603805,223.3980073,975.6610702
0.9500,-101.6948396,223.1025696,975.7411632
0.9550,-102.02698,222.8170459,975.8191955
0.9600,-102.3562406,222.5419949,975.8947197
0.9650,-102.681174,222.2768477,975.9676229
0.9700,-103.0016499,222.0233161,976.0378391
0.9750,-103.3157362,221.7794431,976.1051677
0.9800,-103.6234689,221.5470451,976.1695223
0.9850,-103.9242272,221.3248925,976.2309027
0.9900,-104.2186686,221.112677,976.2895279
0.9950,-104.5072931,220.9095202,976.3452789
1.0000,-104.7917481,220.7161646,976.3986449
1.0050,-105.0714772,220.5310284,976.4496749
1.0100,-105.3486852,220.3550354,976.4988397
1.0150,-105.6240373,220.1881354,976.5461471
1.0200,-105.8981571,220.0306943,976.5918989
1.0250,-106.1702482,219.8816221,976.6360975
1.0300,-106.4415983,219.7413192,976.6790036
1.0350,-106.7109277,219.6101501,976.7205864
1.0400,-106.9778436,219.4849282,976.7610438
1.0450,-107.2410262,219.3660651,976.8001443
1.0500,-107.5001397,219.2530285,976.8379827
1.0550,-107.7534957,219.1442469,976.8745148
1.0600,-108.0004382,219.0384882,976.909838
1.0650,-108.2409772,218.9351488,976.944113
1.0700,-108.4740667,218.8337887,976.9771998
1.0750,-108.6992471,218.7340287,977.0092705
1.0800,-108.9168122,218.6374836,977.0401535
1.0850,-109.1266463,218.5452942,977.069995
1.0900,-109.3278989,218.4574987,977.0987622
1.0950,-109.5196716,218.3720925,977.1262738
1.1000,-109.7032296,218.2891957,977.1525253
1.1050,-109.8764698,218.2094089,977.1773484
1.1100,-110.0410127,218.1322893,977.2010061
1.1150,-110.1977555,218.0576909,977.2235855
1.1200,-110.3463468,217.985714,977.2448858
1.1250,-110.48824,217.9158356,977.2652463
1.1300,-110.6241717,217.8487757,977.2846637
1.1350,-110.7532585,217.7851254,977.3028009
1.1400,-110.8769328,217.7236025,977.3198913
1.1450,-110.9932247,217.6654383,977.3357649
1.1500,-111.103332,217.6102068,977.3502972
1.1550,-111.2085921,217.5579761,977.363843
1.1600,-111.3075156,217.5089149,977.3761626
1.1650,-111.4007321,217.4619566,977.3874193
1.1700,-111.4885839,217.4176924,977.39784
1.1750,-111.5703091,217.376005,977.4073378
1.1800,-111.6492399,217.3385389,977.4163586
1.1850,-111.7238577,217.3036291,977.4249078
1.1900,-111.7950642,217.2728936,977.4331959
1.1950,-111.8643152,217.2473025,977.4414327
1.2000,-111.9309612,217.2258326,977.4495355
1.2050,-111.9952791,217.2077723,977.4578473
1.2100,-112.0564208,217.1946876,977.4663596
1.2150,-112.1154516,217.1860458,977.4750781
1.2200,-112.1722196,217.1824695,977.4841664
1.2250,-112.226917,217.1836167,977.4936315
1.2300,-112.2792666,217.1883877,977.5034653
1.2350,-112.3301256,217.1981866,977.5136307
1.2400,-112.3790903,217.2117867,977.5240807
1.2450,-112.4268188,217.2294505,977.5347589
1.2500,-112.473138,217.2503588,977.5458139
1.2550,-112.5183871,217.2763846,977.5567439
1.2600,-112.5633661,217.3050822,977.567956
1.2650,-112.6087712,217.3387812,977.5793708
1.2700,-112.6546894,217.3755441,977.5909674
1.2750,-112.7023122,217.4170099,977.6025955
1.2800,-112.7510297,217.4621729,977.6142706
1.2850,-112.8003301,217.5114071,977.6256748
1.2900,-112.8512706,217.5655472,977.6366526
1.2950,-112.9033032,217.6240252,977.6474393
1.3000,-112.9561031,217.6865386,977.6575929
1.3050,-113.0101428,217.7537329,977.6669769
1.3100,-113.0644743,217.8241112,977.6754501
1.3150,-113.1205206,217.8969043,977.6831068
1.3200,-113.1762798,217.9727525,977.6897268
1.3250,-113.2311341,218.0508118,977.6953229
1.3300,-113.2855567,218.1312087,977.6999888
1.3350,-113.3396545,218.2140058,977.7035019
1.3400,-113.392011,218.298978,977.705718
1.3450,-113.4424301,218.3860989,977.7068464
1.3500,-113.4907076,218.4745441,977.7068047
1.3550,-113.5367038,218.5661875,977.7056323
1.3600,-113.5797715,218.660708,977.7032136
1.3650,-113.6188541,218.7588951,977.6994477
1.3700,-113.6541131,218.8603488,977.6945086
1.3750,-113.6861221,218.9664222,977.6882829
1.3800,-113.714015,219.0750228,977.6809918
1.3850,-113.7364603,219.1847068,977.6723559
1.3900,-113.7551762,219.2958314,977.6626156
1.3950,-113.7693279,219.4105419,977.6515637
1.4000,-113.7797942,219.5278359,977.639375
1.4050,-113.7863281,219.6463075,977.6259325
1.4100,-113.7889882,219.7670337,977.6111981
1.4150,-113.7873766,219.8878088,977.5951821
1.4200,-113.78245,220.0091472,977.5780098
1.4250,-113.7741392,220.1306602,977.5596074
1.4300,-113.7622555,220.2517381,977.5399745
1.4350,-113.7477215,220.3721636,977.519333
1.4400,-113.7299952,220.491873,977.4976964
1.4450,-113.7086652,220.6086094,977.4751632
1.4500,-113.6841067,220.7243827,977.4519141
1.4550,-113.6554901,220.8384034,977.4279298
1.4600,-113.6249576,220.9501231,977.4035538
1.4650,-113.5913818,221.0596821,977.3787419
1.4700,-113.555948,221.1669134,977.353731
1.4750,-113.5179707,221.271756,977.3284865
1.4800,-113.4773908,221.3735602,977.3032367
1.4850,-113.4347735,221.4732792,977.2780756
1.4900,-113.390243,221.5698611,977.2530513
1.4950,-113.3427961,221.6629838,977.2282024
1.5000,-113.2930515,221.7530068,977.2036472
1.5050,-113.2416818,221.8401418,977.1792995
1.5100,-113.1894867,221.9239812,977.1553347
1.5150,-113.13615,222.0051478,977.1320287
1.5200,-113.0806094,222.0832335,977.1090472
1.5250,-113.0238654,222.1591286,977.0865889
1.5300,-112.9650786,222.2324509,977.0644856
1.5350,-112.9033454,222.3031698,977.0428647
1.5400,-112.839203,222.3710787,977.0215944
1.5450,-112.7719267,222.4360879,977.0007106
1.5500,-112.7017654,222.4983958,976.9801752
1.5550,-112.6278005,222.5575525,976.9601104
1.5600,-112.5495261,222.615617,976.9403713
1.5650,-112.4671205,222.6710644,976.9210044
1.5700,-112.3795636,222.7254796,976.9018414
1.5750,-112.2860141,222.7784686,976.8827983
1.5800,-112.1872058,222.8308372,976.8638435
1.5850,-112.0837445,222.8831153,976.8450792
1.5900,-111.9731315,222.934544,976.8261138
1.5950,-111.8562694,222.9857552,976.8069665
1.6000,-111.7343647,223.0373249,976.7876872
1.6050,-111.6067439,223.0884611,976.7681691
1.6100,-111.4734215,223.1405744,976.7481121
1.6150,-111.3349193,223.1952673,976.7274198
1.6200,-111.1923979,223.2510159,976.7060981
1.6250,-111.0458927,223.3087138,976.6837553
1.6300,-110.8951914,223.3680875,976.6602937
1.6350,-110.7415787,223.4281361,976.6357927
1.6400,-110.5858609,223.4901524,976.6101359
1.6450,-110.4278737,223.5549184,976.5831139
1.6500,-110.2691333,223.6229665,976.5549423
1.6550,-110.1094892,223.6936573,976.525451
1.6600,-109.9498829,223.7685173,976.4948353
1.6650,-109.7903686,223.84619,976.4630268
1.6700,-109.6316505,223.9267396,976.4302211
1.6750,-109.4732577,224.0099561,976.3963655
1.6800,-109.315017,224.0960036,976.3615338
1.6850,-109.1594282,224.1851179,976.3261633
1.6900,-109.0053982,224.2765891,976.2902641
1.6950,-108.8538617,224.3682646,976.2540616
1.7000,-108.704415,224.4616058,976.2175834
1.7050,-108.5581282,224.5552582,976.1811266
1.7100,-108.4158394,224.6489819,976.1449961
1.7150,-108.2788753,224.7432887,976.1093944
1.7200,-108.1463365,224.8372478,976.074256
1.7250,-108.0186365,224.9299378,976.0396374
1.7300,-107.8965562,225.0198393,976.005946
1.7350,-107.7800354,225.1091889,975.9730771
1.7400,-107.6705715,225.1961363,975.9413419
1.7450,-107.5696351,225.2819223,975.9108717
1.7500,-107.4766298,225.3652969,975.8816057
1.7550,-107.3922735,225.4450011,975.8538311
1.7600,-107.3146654,225.5219293,975.8273618
1.7650,-107.2446375,225.5963414,975.802527
1.7700,-107.1797168,225.6674637,975.7790016
1.7750,-107.1219432,225.7359479,975.7573101
1.7800,-107.0684523,225.8015004,975.7372097
1.7850,-107.0176556,225.8645973,975.7186922
1.7900,-106.9690591,225.926198,975.7018873
1.7950,-106.9213022,225.9869627,975.6865831
1.8000,-106.8729976,226.0461458,975.6729039
1.8050,-106.8218103,226.104972,975.6607233
1.8100,-106.7662995,226.1632587,975.6498681
1.8150,-106.7060453,226.2214902,975.6401218
1.8200,-106.6417455,226.2794771,975.6316805
1.8250,-106.5707472,226.3375954,975.6241934
1.8300,-106.4939986,226.3956387,975.617701
1.8350,-106.4128087,226.4535491,975.6120383
1.8400,-106.3266946,226.5117354,975.6071062
1.8450,-106.2360917,226.5705835,975.6027884
1.8500,-106.1415002,226.6311839,975.5988311
1.8550,-106.0452594,226.6924338,975.5951729
1.8600,-105.9485189,226.7546436,975.5917482
1.8650,-105.8501975,226.8174779,975.588212
1.8700,-105.7526682,226.8817916,975.5845705
1.8750,-105.6571184,226.9465762,975.5809731
1.8800,-105.5643732,227.0125055,975.5770189
1.8850,-105.4742512,227.0781977,975.5726803
1.8900,-105.3884788,227.1428383,975.568022
1.8950,-105.3075472,227.2080545,975.5627772
1.9000,-105.2299256,227.2727164,975.556963
1.9050,-105.1558236,227.3368098,975.5506415
1.9100,-105.0869648,227.3991882,975.5439398
1.9150,-105.0202506,227.4591251,975.5366234
1.9200,-104.9559588,227.5167803,975.5287174
1.9250,-104.8949671,227.5738362,975.5205835
1.9300,-104.83797,227.6296501,975.5121865
1.9350,-104.7827673,227.6863238,975.5035458
1.9400,-104.7288696,227.7428942,975.4947167
1.9450,-104.6770695,227.8006003,975.4858915
1.9500,-104.6263601,227.8589085,975.47706
1.9550,-104.5769555,227.9175342,975.4684451
1.9600,-104.5293252,227.977214,975.4601017
1.9650,-104.4836222,228.0368567,975.4521963
1.9700,-104.4396999,228.0976785,975.4447245
1.9750,-104.3980962,228.1591544,975.4378659
1.9800,-104.3601672,228.2217089,975.431732
1.9850,-104.3242422,228.2854543,975.4261048
1.9900,-104.29142,228.349485,975.4209754
1.9950,-104.2623209,228.415005,975.4165384
2.0000,-104.2371677,228.4794359,975.4128122
2.0050,-104.2169487,228.5436637,975.409915
2.0100,-104.2000909,228.6073993,975.4076307
2.0150,-104.1872421,228.669015,975.4058657
2.0200,-104.1787064,228.7281932,975.4048324
2.0250,-104.1735422,228.7844107,975.4043689
2.0300,-104.1714974,228.8382125,975.4043714
2.0350,-104.1721747,228.8869349,975.4047228
2.0400,-104.1740753,228.9313125,975.4052873
2.0450,-104.1765651,228.9713277,975.4058831
2.0500,-104.1790088,229.0054914,975.4066105
2.0550,-104.1812801,229.0357671,975.4071621
2.0600,-104.182427,229.0615921,975.4077423
2.0650,-104.1830986,229.0829486,975.4081887
2.0700,-104.1832457,229.100353,975.4085868
2.0750,-104.1813266,229.1134361,975.4087654
2.0800,-104.1783302,229.1235935,975.4088132
2.0850,-104.1735654,229.1299875,975.4086624
2.0900,-104.1683767,229.1329928,975.4083226
2.0950,-104.1608374,229.1329699,975.4077536
2.1000,-104.1521901,229.1308559,975.4069025
2.1050,-104.1428024,229.1261306,975.4058565
2.1100,-104.1323129,229.1193183,975.404536
2.1150,-104.1203641,229.1096889,975.4028622
2.1200,-104.1067658,229.0985063,975.4008237
2.1250,-104.0923252,229.0850102,975.3984763
2.1300,-104.0773571,229.0705691,975.3956807
2.1350,-104.0605837,229.0555898,975.3923496
2.1400,-104.0427119,229.0398102,975.3885607
2.1450,-104.0234139,229.0229401,975.3842174
2.1500,-104.0022409,229.0042338,975.379286
2.1550,-103.9784149,228.9831686,975.3736945
2.1600,-103.9516714,228.9598686,975.3674261
2.1650,-103.9228282,228.9342975,975.360558
2.1700,-103.8917463,228.905495,975.3532236
2.1750,-103.8594756,228.8741591,975.3454821
2.1800,-103.8268025,228.8400184,975.3375396
2.1850,-103.7944985,228.8051999,975.3294278
2.1900,-103.762188,228.7701313,975.3212839
2.1950,-103.7296764,228.73385,975.3131646
2.2000,-103.6972164,228.6956242,975.3049935
2.2050,-103.6646232,228.6562472,975.2968134
2.2100,-103.63113,228.6158886,975.2885605
2.2150,-103.5985531,228.5742033,975.2804196
2.2200,-103.5658608,228.5307234,975.2722415
2.2250,-103.5342452,228.4844764,975.2642108
2.2300,-103.5032295,228.4365331,975.2564138
2.2350,-103.4732558,228.3854273,975.2488311
2.2400,-103.4457134,228.3319074,975.2415267
2.2450,-103.4195804,228.2732615,975.234583
2.2500,-103.3959405,228.2101212,975.2279667
2.2550,-103.3749348,228.1432781,975.2217368
2.2600,-103.3570091,228.0712793,975.2160564
