type,name,time_units,begin_time,frequency,count,units
signal_3d,"Noraxon MyoMotion-Trajectories-Lateral humeral epicondyle RT","s",0.0000,200,5348,"mm"

time,x,y,z
0.0000,-71.79741904,257.7875852,1234.884629
0.0050,-71.75759684,257.7709258,1234.879942
0.0100,-71.71776954,257.7542769,1234.875261
0.0150,-71.67793715,257.7376386,1234.870586
0.0200,-71.63594958,257.7194211,1234.865503
0.0250,-71.5922188,257.6997036,1234.860037
0.0300,-71.54718363,257.6785875,1234.854216
0.0350,-71.50128934,257.6561858,1234.848076
0.0400,-71.45497015,257.6326124,1234.841657
0.0450,-71.40863705,257.6079768,1234.835
0.0500,-71.36266887,257.5823888,1234.82815
0.0550,-71.31740471,257.5559706,1234.821154
0.0600,-71.27313889,257.5288664,1234.814061
0.0650,-71.23011824,257.5012449,1234.806918
0.0700,-71.18853911,257.473297,1234.799773
0.0750,-71.14854786,257.4452307,1234.792677
0.0800,-71.11024619,257.4172602,1234.785677
0.0850,-71.07369629,257.3895945,1234.778819
0.0900,-71.03892505,257.3624328,1234.77215
0.0950,-71.00593208,257.3359645,1234.76571
0.1000,-70.97470192,257.3103678,1234.759538
0.1050,-70.9452158,257.2858061,1234.753666
0.1100,-70.91746053,257.2624271,1234.748125
0.1150,-70.8914352,257.2403641,1234.742937
0.1200,-70.86715178,257.2197404,1234.738125
0.1250,-70.84462656,257.2006673,1234.733705
0.1300,-70.82386789,257.1832346,1234.72969
0.1350,-70.80486588,257.1675018,1234.72609
0.1400,-70.78758718,257.1534972,1234.722909
0.1450,-70.77197656,257.1412231,1234.720144
0.1500,-70.75796305,257.1306545,1234.717788
0.1550,-70.71972371,257.1052688,1234.712095
0.1600,-70.68411921,257.0813957,1234.706955
0.1650,-70.6513479,257.0585314,1234.702186
0.1700,-70.62076533,257.0386999,1234.69795
0.1750,-70.59246811,257.0192872,1234.69408
0.1800,-70.56673925,257.0018874,1234.690597
0.1850,-70.54391145,256.9860193,1234.687508
0.1900,-70.52246244,256.9708605,1234.684718
0.1950,-70.50338707,256.9558946,1234.682149
0.2000,-70.48622456,256.9413778,1234.679891
0.2050,-70.47095376,256.9272512,1234.677934
0.2100,-70.45661201,256.9145314,1234.67631
0.2150,-70.44452087,256.9025149,1234.674844
0.2200,-70.43378523,256.8915576,1234.673568
0.2250,-70.42424784,256.8817429,1234.672516
0.2300,-70.41625251,256.8734093,1234.671667
0.2350,-70.40984352,256.8658865,1234.670971
0.2400,-70.40421336,256.8592133,1234.670456
0.2450,-70.40040896,256.853674,1234.670184
0.2500,-70.39750798,256.8485981,1234.67007
0.2550,-70.39555455,256.8439193,1234.670111
0.2600,-70.39478875,256.8398999,1234.670313
0.2650,-70.3943389,256.8364657,1234.670632
0.2700,-70.39519271,256.8324272,1234.670984
0.2750,-70.39689886,256.8301074,1234.671569
0.2800,-70.39995328,256.8279437,1234.672285
0.2850,-70.40361945,256.8258618,1234.673154
0.2900,-70.40737803,256.8226725,1234.674078
0.2950,-70.41093715,256.8193447,1234.675196
0.3000,-70.4145033,256.8154205,1234.67644
0.3050,-70.41809368,256.8115501,1234.677829
0.3100,-70.42157018,256.8055523,1234.679299
0.3150,-70.42528921,256.7991084,1234.680861
0.3200,-70.42931075,256.7929026,1234.682634
0.3250,-70.43320871,256.7859412,1234.684516
0.3300,-70.43776419,256.7781356,1234.686488
0.3350,-70.44229659,256.7702797,1234.688607
0.3400,-70.44800709,256.7620321,1234.69088
0.3450,-70.45291144,256.7530905,1234.693295
0.3500,-70.45866975,256.7441653,1234.695832
0.3550,-70.4649909,256.7348901,1234.698497
0.3600,-70.47118048,256.7252882,1234.701287
0.3650,-70.47780831,256.7156695,1234.704192
0.3700,-70.48479926,256.7060721,1234.707216
0.3750,-70.49236198,256.6964781,1234.710344
0.3800,-70.49999817,256.6872638,1234.713597
0.3850,-70.50858854,256.6777661,1234.716875
0.3900,-70.51878854,256.6680536,1234.720176
0.3950,-70.53000363,256.6581997,1234.723485
0.4000,-70.54224384,256.6483211,1234.726848
0.4050,-70.55441789,256.6382287,1234.730244
0.4100,-70.56725275,256.6286933,1234.733707
0.4150,-70.58077123,256.6184037,1234.737122
0.4200,-70.59498411,256.607571,1234.740554
0.4250,-70.61007146,256.5976671,1234.744134
0.4300,-70.62584682,256.5881442,1234.747754
0.4350,-70.64180114,256.5798124,1234.751432
0.4400,-70.65857253,256.5714108,1234.755126
0.4450,-70.67767686,256.563717,1234.75883
0.4500,-70.6969919,256.5569693,1234.76262
0.4550,-70.71594577,256.5512681,1234.766505
0.4600,-70.73633345,256.5470047,1234.770407
0.4650,-70.75824574,256.5435548,1234.774353
0.4700,-70.78129811,256.5413605,1234.778295
0.4750,-70.80517011,256.5414176,1234.782334
0.4800,-70.82958335,256.5426809,1234.786392
0.4850,-70.85453331,256.5451283,1234.790429
0.4900,-70.88071917,256.5493629,1234.794454
0.4950,-70.90674952,256.5553335,1234.798468
0.5000,-70.93408467,256.5622391,1234.802359
0.5050,-70.96196856,256.5699874,1234.8061
0.5100,-70.9906729,256.5781428,1234.809676
0.5150,-71.01963121,256.5873744,1234.813152
0.5200,-71.04978674,256.596552,1234.816368
0.5250,-71.08052718,256.6063577,1234.819372
0.5300,-71.11124991,256.6164191,1234.822214
0.5350,-71.14256721,256.6267375,1234.824895
0.5400,-71.17428553,256.6358865,1234.827284
0.5450,-71.20516292,256.6442569,1234.829336
0.5500,-71.2359887,256.6514805,1234.831153
0.5550,-71.26756701,256.6586663,1234.832841
0.5600,-71.2986184,256.6648102,1234.834352
0.5650,-71.32918301,256.6710276,1234.835794
0.5700,-71.35874143,256.6777331,1234.837276
0.5750,-71.38686664,256.6842823,1234.838608
0.5800,-71.4138367,256.6909835,1234.839811
0.5850,-71.43965115,256.698196,1234.840894
0.5900,-71.46453384,256.7056066,1234.841871
0.5950,-71.48887992,256.7124886,1234.84267
0.6000,-71.51249645,256.7181276,1234.843297
0.6050,-71.53540335,256.7231814,1234.843795
0.6100,-71.55826094,256.7269548,1234.844151
0.6150,-71.57999806,256.7289904,1234.844368
0.6200,-71.60099195,256.7288333,1234.844396
0.6250,-71.62224438,256.727006,1234.844366
0.6300,-71.64322114,256.7219498,1234.844203
0.6350,-71.66401809,256.7145134,1234.844094
0.6400,-71.68403002,256.7037609,1234.84396
0.6450,-71.70536644,256.69082,1234.843938
0.6500,-71.7263503,256.6740892,1234.844001
0.6550,-71.74870537,256.6539923,1234.844172
0.6600,-71.7735158,256.6306226,1234.844499
0.6650,-71.80117681,256.603081,1234.845029
0.6700,-71.83248238,256.5711548,1234.845829
0.6750,-71.86830535,256.5350326,1234.846998
0.6800,-71.90929389,256.4932339,1234.848588
0.6850,-71.95549934,256.4471581,1234.850724
0.6900,-72.00630846,256.3964532,1234.853398
0.6950,-72.06243667,256.3412028,1234.856747
0.7000,-72.12269057,256.2797059,1234.860594
0.7050,-72.18913602,256.2137122,1234.865014
0.7100,-72.26022716,256.1425605,1234.869938
0.7150,-72.33481693,256.0669338,1234.875422
0.7200,-72.41362621,255.9855976,1234.881294
0.7250,-72.49699589,255.8981397,1234.88761
0.7300,-72.58293574,255.8037287,1234.894308
0.7350,-72.67217802,255.70257,1234.901554
0.7400,-72.76406707,255.5963116,1234.909529
0.7450,-72.85794409,255.4842942,1234.918382
0.7500,-72.95368012,255.3675386,1234.928228
0.7550,-73.05202382,255.2464946,1234.939159
0.7600,-73.15153027,255.1212794,1234.951356
0.7650,-73.25142567,254.9931499,1234.964955
0.7700,-73.35114189,254.8615616,1234.979959
0.7750,-73.45000648,254.7270739,1234.996319
0.7800,-73.54706947,254.5895485,1235.014098
0.7850,-73.64078708,254.4487292,1235.033212
0.7900,-73.7309768,254.3044405,1235.053608
0.7950,-73.81643392,254.1567313,1235.075305
0.8000,-73.89460559,254.0056658,1235.098147
0.8050,-73.96611546,253.8509255,1235.122095
0.8100,-74.02955634,253.6914747,1235.146901
0.8150,-74.08341508,253.5276685,1235.172442
0.8200,-74.12635802,253.3599498,1235.198628
0.8250,-74.15758045,253.1883703,1235.225339
0.8300,-74.17735379,253.0125873,1235.252339
0.8350,-74.18360449,252.833458,1235.279578
0.8400,-74.17673827,252.6525153,1235.307012
0.8450,-74.15798383,252.4706381,1235.334638
0.8500,-74.12632137,252.2880789,1235.362358
0.8550,-74.08176976,252.1054815,1235.389998
0.8600,-74.02634811,251.9242564,1235.417645
0.8650,-73.96157181,251.7436622,1235.445234
0.8700,-73.8894137,251.564777,1235.472739
0.8750,-73.81177532,251.3872648,1235.500375
0.8800,-73.72819816,251.2107795,1235.528004
0.8850,-73.64227827,251.0365796,1235.555838
0.8900,-73.55452739,250.864089,1235.583797
0.8950,-73.46636806,250.6928856,1235.611906
0.9000,-73.37882549,250.5256063,1235.640255
0.9050,-73.29408909,250.3598417,1235.668737
0.9100,-73.21351599,250.1965046,1235.697262
0.9150,-73.13800622,250.0347611,1235.725814
0.9200,-73.06845854,249.8733085,1235.75427
0.9250,-73.005174,249.7126486,1235.782532
0.9300,-72.94922488,249.5540454,1235.810636
0.9350,-72.90060742,249.3953676,1235.838337
0.9400,-72.85984176,249.2384564,1235.865644
0.9450,-72.82695436,249.0824807,1235.892407
0.9500,-72.80345918,248.9274457,1235.918572
0.9550,-72.78783279,248.7739394,1235.944174
0.9600,-72.78099309,248.6218706,1235.969066
0.9650,-72.78202889,248.4713197,1235.993182
0.9700,-72.79106453,248.3238642,1236.016542
0.9750,-72.8069292,248.1783386,1236.039011
0.9800,-72.83013118,248.0366377,1236.060595
0.9850,-72.85990834,247.8982241,1236.081255
0.9900,-72.89639997,247.7639422,1236.101068
0.9950,-72.94043894,247.6333427,1236.119961
1.0000,-72.99196301,247.5081422,1236.138135
1.0050,-73.05013439,247.3873976,1236.155583
1.0100,-73.1150597,247.2721538,1236.172519
1.0150,-73.186976,247.1619457,1236.188979
1.0200,-73.2656415,247.0581,1236.205058
1.0250,-73.34981959,246.9594058,1236.22074
1.0300,-73.44008554,246.8671085,1236.236098
1.0350,-73.53502142,246.7811375,1236.251148
1.0400,-73.63375979,246.7000998,1236.265833
1.0450,-73.73567431,246.6239282,1236.280077
1.0500,-73.84037277,246.5530271,1236.293858
1.0550,-73.94609624,246.4859743,1236.307123
1.0600,-74.05224465,246.4228518,1236.319827
1.0650,-74.15808976,246.3632857,1236.332012
1.0700,-74.26292784,246.3064742,1236.343651
1.0750,-74.36550626,246.2523134,1236.354779
1.0800,-74.46620957,246.2008138,1236.365442
1.0850,-74.56457878,246.1533913,1236.375702
1.0900,-74.65966192,246.1098539,1236.385547
1.0950,-74.75131324,246.0686409,1236.394877
1.1000,-74.84056975,246.029482,1236.40371
1.1050,-74.92593897,245.9928315,1236.411982
1.1100,-75.00820363,245.9588929,1236.419771
1.1150,-75.08774627,245.9272077,1236.427144
1.1200,-75.16474514,245.8973824,1236.434043
1.1250,-75.2391954,245.8691833,1236.440572
1.1300,-75.31160935,245.8424896,1236.446816
1.1350,-75.3822657,245.817263,1236.452679
1.1400,-75.45157725,245.7925523,1236.458225
1.1450,-75.51803446,245.7689143,1236.463427
1.1500,-75.58347233,245.7461942,1236.468225
1.1550,-75.64770334,245.7243558,1236.47278
1.1600,-75.70961806,245.7026309,1236.477022
1.1650,-75.76949749,245.6809659,1236.480946
1.1700,-75.82671684,245.6597205,1236.484674
1.1750,-75.88091839,245.6391731,1236.488124
1.1800,-75.93368499,245.6206338,1236.491528
1.1850,-75.98320884,245.6025857,1236.494849
1.1900,-76.02970216,245.5867009,1236.498173
1.1950,-76.07404966,245.5742176,1236.501594
1.2000,-76.11545794,245.5636268,1236.505074
1.2050,-76.15331665,245.5555113,1236.508671
1.2100,-76.18640552,245.5504143,1236.51244
1.2150,-76.2156661,245.5478187,1236.516368
1.2200,-76.24066946,245.5489664,1236.520491
1.2250,-76.2613695,245.5532668,1236.524812
1.2300,-76.27754661,245.560129,1236.529269
1.2350,-76.29009373,245.5702576,1236.533903
1.2400,-76.298749,245.5826601,1236.53867
1.2450,-76.30397238,245.596576,1236.54362
1.2500,-76.3058054,245.6129782,1236.548707
1.2550,-76.30565154,245.6313115,1236.553882
1.2600,-76.30306164,245.6504492,1236.559232
1.2650,-76.29896566,245.6718857,1236.564801
1.2700,-76.29388887,245.6947351,1236.570517
1.2750,-76.28928118,245.7193619,1236.576424
1.2800,-76.2845837,245.7452366,1236.582493
1.2850,-76.28035561,245.7720881,1236.588641
1.2900,-76.2779629,245.7999352,1236.59485
1.2950,-76.27644205,245.8293448,1236.601154
1.3000,-76.27689818,245.8592916,1236.607409
1.3050,-76.28007027,245.889624,1236.613612
1.3100,-76.28596784,245.9198345,1236.619645
1.3150,-76.29607284,245.9498848,1236.625528
1.3200,-76.30872088,245.9793428,1236.63121
1.3250,-76.32398424,246.0089075,1236.636615
1.3300,-76.34165058,246.0379985,1236.641828
1.3350,-76.36264107,246.0663143,1236.64679
1.3400,-76.38648985,246.0943294,1236.651409
1.3450,-76.41217306,246.1221965,1236.655744
1.3500,-76.43954929,246.14868,1236.65979
1.3550,-76.46887142,246.1761308,1236.663562
1.3600,-76.49959649,246.2036482,1236.667036
1.3650,-76.53102663,246.2317804,1236.670184
1.3700,-76.56307294,246.2611042,1236.673018
1.3750,-76.59637933,246.2916753,1236.675593
1.3800,-76.62995574,246.3236057,1236.677846
1.3850,-76.66326621,246.3551829,1236.679662
1.3900,-76.69720959,246.3867666,1236.681165
1.3950,-76.731566,246.4196271,1236.68232
1.4000,-76.76677088,246.4533441,1236.683182
1.4050,-76.80279413,246.4863894,1236.68369
1.4100,-76.8397143,246.5192884,1236.683865
1.4150,-76.87750817,246.5512579,1236.683609
1.4200,-76.91658039,246.58253,1236.682993
1.4250,-76.95722585,246.6129221,1236.681969
1.4300,-76.99945477,246.6423906,1236.680496
1.4350,-77.04308691,246.6704774,1236.678659
1.4400,-77.08809598,246.69818,1236.676413
1.4450,-77.13341444,246.7237007,1236.673714
1.4500,-77.17885672,246.7488025,1236.670675
1.4550,-77.22391168,246.7734716,1236.667234
1.4600,-77.26926121,246.7970858,1236.663543
1.4650,-77.31423141,246.8203892,1236.659546
1.4700,-77.35870177,246.8427173,1236.655355
1.4750,-77.40233735,246.86447,1236.650931
1.4800,-77.44437676,246.8857464,1236.646323
1.4850,-77.4848537,246.9069883,1236.641602
1.4900,-77.52366997,246.9275084,1236.636752
1.4950,-77.55979859,246.9474658,1236.631753
1.5000,-77.5934503,246.96725,1236.626668
1.5050,-77.62560243,246.9868844,1236.62147
1.5100,-77.656527,247.0064604,1236.616207
1.5150,-77.68501579,247.0270709,1236.610975
1.5200,-77.71096609,247.047677,1236.605647
1.5250,-77.73466827,247.0690609,1236.600333
1.5300,-77.75551334,247.0901545,1236.594979
1.5350,-77.77241276,247.1117673,1236.589595
1.5400,-77.78599624,247.1328348,1236.584159
1.5450,-77.79548676,247.1537277,1236.578645
1.5500,-77.80068655,247.1734585,1236.573091
1.5550,-77.80064531,247.192791,1236.567481
1.5600,-77.79526508,247.2128133,1236.561821
1.5650,-77.78453245,247.2325245,1236.556086
1.5700,-77.76749306,247.2519149,1236.550285
1.5750,-77.74404561,247.2714569,1236.544338
1.5800,-77.71475312,247.2910856,1236.538283
1.5850,-77.67981504,247.3111688,1236.532182
1.5900,-77.63864595,247.331691,1236.525827
1.5950,-77.59165143,247.3522319,1236.519285
1.6000,-77.54028186,247.373747,1236.512593
1.6050,-77.48393045,247.3950391,1236.505704
1.6100,-77.42384309,247.4166826,1236.498565
1.6150,-77.36064153,247.4391721,1236.491205
1.6200,-77.29576725,247.4617385,1236.483598
1.6250,-77.2305069,247.4838769,1236.47567
1.6300,-77.16514778,247.505468,1236.46737
1.6350,-77.10087372,247.5261092,1236.458702
1.6400,-77.03878801,247.546102,1236.449683
1.6450,-76.97962586,247.56572,1236.440273
1.6500,-76.92431794,247.5859662,1236.430537
1.6550,-76.87296024,247.6053735,1236.420429
1.6600,-76.82576093,247.6250285,1236.410079
1.6650,-76.78320744,247.6441992,1236.399408
1.6700,-76.74512572,247.662842,1236.388499
1.6750,-76.71163315,247.6813314,1236.377305
1.6800,-76.68196459,247.6993253,1236.365869
1.6850,-76.65709504,247.7175695,1236.354378
1.6900,-76.63630159,247.7364611,1236.342759
1.6950,-76.61947223,247.7543778,1236.331064
1.7000,-76.60656384,247.7731727,1236.319307
1.7050,-76.59732482,247.79195,1236.307575
1.7100,-76.59179572,247.8116026,1236.295947
1.7150,-76.59053004,247.8326066,1236.28453
1.7200,-76.59306869,247.854784,1236.27324
1.7250,-76.60007812,247.8783375,1236.262053
1.7300,-76.61084625,247.9031216,1236.251056
1.7350,-76.62581675,247.9306596,1236.240277
1.7400,-76.64509907,247.9597641,1236.229806
1.7450,-76.66964122,247.9912478,1236.219761
1.7500,-76.6992096,248.0245852,1236.210061
1.7550,-76.73314748,248.05892,1236.200802
1.7600,-76.77032118,248.0950306,1236.191893
1.7650,-76.80983863,248.1327531,1236.183509
1.7700,-76.85069132,248.1718424,1236.175452
1.7750,-76.89251644,248.2128085,1236.167973
1.7800,-76.93328359,248.2554571,1236.160919
1.7850,-76.97141397,248.3002631,1236.154285
1.7900,-77.00535601,248.3473466,1236.148156
1.7950,-77.03424601,248.3964017,1236.142485
1.8000,-77.05616969,248.4474585,1236.137258
1.8050,-77.06875781,248.5005122,1236.132468
1.8100,-77.07109439,248.5551014,1236.128041
1.8150,-77.06370882,248.6114512,1236.123901
1.8200,-77.04638649,248.6694588,1236.120138
1.8250,-77.01734094,248.7281938,1236.116642
1.8300,-76.9780216,248.7885481,1236.113406
1.8350,-76.93022876,248.8498268,1236.110394
1.8400,-76.87367261,248.9117482,1236.107608
1.8450,-76.80947997,248.9747105,1236.105012
1.8500,-76.73946043,249.0393896,1236.102546
1.8550,-76.66586272,249.1040287,1236.100224
1.8600,-76.59019893,249.1688945,1236.098024
1.8650,-76.51256717,249.2329478,1236.095817
1.8700,-76.43550095,249.2968277,1236.093651
1.8750,-76.35941059,249.3597785,1236.091569
1.8800,-76.28657499,249.421119,1236.089485
1.8850,-76.21695636,249.4801451,1236.08732
1.8900,-76.15137388,249.5351708,1236.085138
1.8950,-76.09150423,249.586971,1236.082884
1.9000,-76.03550766,249.6347196,1236.080508
1.9050,-75.98395912,249.6794494,1236.078005
1.9100,-75.9376252,249.7197262,1236.075433
1.9150,-75.89460799,249.7553762,1236.072634
1.9200,-75.85488873,249.786208,1236.069632
1.9250,-75.81800011,249.813904,1236.066617
1.9300,-75.7851256,249.8384531,1236.063547
1.9350,-75.75396616,249.8612939,1236.060475
1.9400,-75.7238217,249.8817884,1236.057411
1.9450,-75.69500342,249.9014313,1236.054451
1.9500,-75.6663027,249.9193348,1236.051608
1.9550,-75.63729545,249.935954,1236.048958
1.9600,-75.60841793,249.9520624,1236.046548
1.9650,-75.57923677,249.9673166,1236.044408
1.9700,-75.5496103,249.9823785,1236.042588
1.9750,-75.51924632,249.9971063,1236.041139
1.9800,-75.48967926,250.0127146,1236.04011
1.9850,-75.45956189,250.028139,1236.039435
1.9900,-75.42994208,250.0426131,1236.0391
1.9950,-75.40104316,250.0577506,1236.039204
2.0000,-75.37249774,250.0712203,1236.039689
2.0050,-75.34527372,250.0844791,1236.040608
2.0100,-75.31870049,250.0971925,1236.041856
2.0150,-75.2934329,250.1075854,1236.043369
2.0200,-75.26918257,250.1163443,1236.045187
2.0250,-75.24537999,250.1224597,1236.047249
2.0300,-75.22227752,250.1263016,1236.049514
2.0350,-75.20008753,250.1263017,1236.051848
2.0400,-75.17808014,250.1232969,1236.054179
2.0450,-75.1566816,250.1176126,1236.056409
2.0500,-75.13479621,250.108508,1236.058523
2.0550,-75.11369921,250.0970063,1236.060452
2.0600,-75.09186755,250.0835952,1236.062237
2.0650,-75.07085849,250.0683918,1236.063809
2.0700,-75.05013743,250.0515466,1236.065231
2.0750,-75.02916066,250.0332181,1236.066403
2.0800,-75.00829279,250.0138519,1236.067426
2.0850,-74.98753747,249.9936075,1236.06822
2.0900,-74.9680534,249.9722329,1236.068843
2.0950,-74.94803643,249.9501077,1236.069253
2.1000,-74.92883967,249.9273399,1236.069493
2.1050,-74.91079642,249.9043572,1236.069554
2.1100,-74.89355821,249.8808639,1236.069437
2.1150,-74.87706125,249.856287,1236.069084
2.1200,-74.86090611,249.8310306,1236.068529
2.1250,-74.84609572,249.8055421,1236.067734
2.1300,-74.83307145,249.7795512,1236.066724
2.1350,-74.82060595,249.7528256,1236.065468
2.1400,-74.80975178,249.7265486,1236.063945
2.1450,-74.80024864,249.6997778,1236.062129
2.1500,-74.79209964,249.6726476,1236.059959
2.1550,-74.78482548,249.6449055,1236.057369
2.1600,-74.77817117,249.6163508,1236.054378
2.1650,-74.77316314,249.5880898,1236.05098
2.1700,-74.769052,249.5595664,1236.047203
2.1750,-74.76642795,249.5308449,1236.043114
2.1800,-74.76524315,249.5020166,1236.038785
2.1850,-74.76621904,249.4745127,1236.0343
2.1900,-74.76859694,249.4491251,1236.029713
2.1950,-74.77200731,249.4255198,1236.025005
2.2000,-74.77689179,249.4027028,1236.020162
2.2050,-74.78246579,249.380584,1236.015236
2.2100,-74.78860784,249.3599003,1236.010179
2.2150,-74.79597912,249.3398818,1236.005091
2.2200,-74.80401392,249.3197719,1235.999912
2.2250,-74.81350612,249.2999264,1235.99465
2.2300,-74.82316383,249.2802793,1235.989402
2.2350,-74.83355551,249.2600839,1235.984101
2.2400,-74.84576271,249.2396662,1235.978815
2.2450,-74.85872128,249.2180568,1235.973469
2.2500,-74.87388679,249.1959306,1235.968062
2.2550,-74.89117571,249.1739708,1235.96263
2.2600,-74.9101562,249.1511535,1235.957206
2.2650,-74.93132489,249.1285637,1235.95191
