type,name,time_units,begin_time,frequency,count,units
signal_3d,"Noraxon MyoMotion-Trajectories-Elbow RT","s",0.0000,200,5348,"mm"

time,x,y,z
0.0000,-44.12974778,255.7615178,1232.265617
0.0050,-44.0890145,255.7520728,1232.264986
0.0100,-44.04827865,255.7426385,1232.264362
0.0150,-44.00754022,255.7332151,1232.263744
0.0200,-43.96457159,255.7228318,1232.263066
0.0250,-43.91979005,255.71153,1232.262334
0.0300,-43.87364093,255.6993645,1232.26155
0.0350,-43.82657696,255.6863945,1232.260718
0.0400,-43.77904055,255.6726746,1232.259841
0.0450,-43.73145148,255.6582503,1232.258923
0.0500,-43.68419782,255.6431642,1232.257964
0.0550,-43.63762805,255.6274694,1232.256967
0.0600,-43.59204575,255.6112411,1232.255936
0.0650,-43.54770661,255.5945805,1232.254874
0.0700,-43.50481547,255.577613,1232.253789
0.0750,-43.46352678,255.5604831,1232.252688
0.0800,-43.42394999,255.5433441,1232.25158
0.0850,-43.38615458,255.5263463,1232.250471
0.0900,-43.35017428,255.5096328,1232.24937
0.0950,-43.31601497,255.4933394,1232.248285
0.1000,-43.28366691,255.477593,1232.247224
0.1050,-43.25311642,255.4625087,1232.246193
0.1100,-43.22435477,255.4481881,1232.245199
0.1150,-43.197385,255.4347211,1232.244249
0.1200,-43.17222248,255.4221895,1232.243348
0.1250,-43.1488864,255.4106664,1232.242504
0.1300,-43.1273875,255.4002067,1232.241721
0.1350,-43.10771768,255.3908404,1232.241002
0.1400,-43.08984465,255.3825726,1232.240351
0.1450,-43.07371349,255.3753893,1232.239769
0.1500,-43.05925247,255.3692587,1232.239255
0.1550,-43.01990206,255.3548677,1232.238195
0.1600,-42.98328298,255.3412408,1232.23719
0.1650,-42.94958293,255.3278198,1232.236205
0.1700,-42.91815152,255.3167531,1232.235371
0.1750,-42.88908477,255.305409,1232.234532
0.1800,-42.86265905,255.2953791,1232.233774
0.1850,-42.8391982,255.2863344,1232.233095
0.1900,-42.81717594,255.2774498,1232.23244
0.1950,-42.79757982,255.2682461,1232.231783
0.2000,-42.7799543,255.258998,1232.231137
0.2050,-42.76427556,255.2496914,1232.230489
0.2100,-42.74957188,255.2414229,1232.229917
0.2150,-42.73714945,255.2335464,1232.229374
0.2200,-42.72610761,255.2265005,1232.228901
0.2250,-42.71629038,255.2204001,1232.228494
0.2300,-42.70804316,255.2155235,1232.228154
0.2350,-42.70140196,255.2113035,1232.227853
0.2400,-42.69555957,255.2078031,1232.227598
0.2450,-42.69156843,255.2052956,1232.227397
0.2500,-42.68850225,255.2031199,1232.227201
0.2550,-42.6863998,255.201284,1232.227019
0.2600,-42.68550337,255.2000155,1232.226854
0.2650,-42.68493678,255.1992428,1232.226712
0.2700,-42.68568433,255.1978125,1232.226524
0.2750,-42.6873055,255.1979762,1232.226412
0.2800,-42.69029922,255.1981156,1232.22628
0.2850,-42.69392392,255.198258,1232.226138
0.2900,-42.69766551,255.1971113,1232.225898
0.2950,-42.70123617,255.1956973,1232.225615
0.3000,-42.70484026,255.1935243,1232.22527
0.3050,-42.70849152,255.1912736,1232.2249
0.3100,-42.71206045,255.1867144,1232.224377
0.3150,-42.71589928,255.1814712,1232.223797
0.3200,-42.72007193,255.1762668,1232.223208
0.3250,-42.72414927,255.1701157,1232.222537
0.3300,-42.72891296,255.1628808,1232.221793
0.3350,-42.73368329,255.1553761,1232.221009
0.3400,-42.73965691,255.1473532,1232.220181
0.3450,-42.74486008,255.1383569,1232.219284
0.3500,-42.75094127,255.1291998,1232.218358
0.3550,-42.75761348,255.1194897,1232.217384
0.3600,-42.76418166,255.1092479,1232.216365
0.3650,-42.77121086,255.0988182,1232.215325
0.3700,-42.77862591,255.088241,1232.214268
0.3750,-42.78663448,255.0775034,1232.213187
0.3800,-42.79474213,255.0669086,1232.212108
0.3850,-42.80381998,255.0558687,1232.210991
0.3900,-42.81452175,255.0444675,1232.209842
0.3950,-42.8262495,255.0327979,1232.208672
0.4000,-42.839017,255.020984,1232.207482
0.4050,-42.8517275,255.0088902,1232.206277
0.4100,-42.86510979,254.9972418,1232.205101
0.4150,-42.87918522,254.984698,1232.203874
0.4200,-42.89396293,254.971583,1232.202607
0.4250,-42.9096257,254.9593763,1232.201396
0.4300,-42.9259834,254.9474841,1232.200204
0.4350,-42.94252435,254.9367162,1232.199079
0.4400,-42.95988811,254.9258302,1232.197949
0.4450,-42.97958467,254.9156109,1232.196869
0.4500,-42.99949542,254.9063362,1232.195851
0.4550,-43.01904755,254.8981098,1232.194909
0.4600,-43.04002897,254.8912936,1232.194064
0.4650,-43.06253151,254.8853252,1232.193288
0.4700,-43.0861643,254.8806547,1232.192598
0.4750,-43.11061633,254.8781832,1232.192054
0.4800,-43.1356002,254.8769619,1232.191612
0.4850,-43.16111101,254.8769441,1232.191251
0.4900,-43.18784437,254.8787312,1232.191018
0.4950,-43.21441031,254.8822583,1232.190907
0.5000,-43.24225849,254.8867862,1232.190879
0.5050,-43.27063475,254.8921609,1232.190926
0.5100,-43.29981286,254.8979206,1232.191025
0.5150,-43.32922799,254.9047693,1232.191203
0.5200,-43.35981392,254.9115696,1232.191402
0.5250,-43.39095704,254.9190491,1232.191654
0.5300,-43.42206074,254.926826,1232.19195
0.5350,-43.45373449,254.9349615,1232.192284
0.5400,-43.48578304,254.9419941,1232.192561
0.5450,-43.51695416,254.948361,1232.192816
0.5500,-43.54804872,254.9536919,1232.193029
0.5550,-43.57987425,254.9591228,1232.193253
0.5600,-43.61115076,254.9636601,1232.193437
0.5650,-43.64192462,254.9683987,1232.193639
0.5700,-43.67168184,254.9737985,1232.19388
0.5750,-43.69998187,254.9791955,1232.194124
0.5800,-43.72710266,254.9849,1232.194392
0.5850,-43.75304808,254.9912044,1232.19469
0.5900,-43.77803597,254.9979179,1232.195016
0.5950,-43.80246495,255.0042313,1232.195315
0.6000,-43.82614866,255.0094025,1232.195541
0.6050,-43.84910649,255.0141053,1232.195733
0.6100,-43.87199969,255.0177032,1232.19583
0.6150,-43.89376478,255.0196689,1232.1958
0.6200,-43.91478142,255.0195102,1232.195591
0.6250,-43.93605785,255.0177993,1232.195235
0.6300,-43.95706194,255.0129791,1232.194634
0.6350,-43.97789827,255.0059626,1232.193843
0.6400,-43.99797446,254.9956167,1232.192776
0.6450,-44.01940278,254.9831416,1232.191494
0.6500,-44.04051522,254.9669112,1232.189894
0.6550,-44.06304829,254.9471821,1232.187972
0.6600,-44.08809404,254.9240201,1232.185715
0.6650,-44.11606415,254.8964271,1232.183061
0.6700,-44.14776627,254.8641273,1232.179979
0.6750,-44.18409311,254.8271569,1232.176462
0.6800,-44.2257116,254.7839755,1232.172413
0.6850,-44.27268061,254.7359525,1232.167903
0.6900,-44.32440292,254.6825277,1232.162902
0.6950,-44.38160499,254.6238231,1232.157419
0.7000,-44.44309132,254.5580609,1232.151364
0.7050,-44.51093863,254.4868137,1232.144827
0.7100,-44.58359482,254.4094769,1232.137787
0.7150,-44.65992264,254.32665,1232.130273
0.7200,-44.74063928,254.2370264,1232.122218
0.7250,-44.82609491,254.1402144,1232.113598
0.7300,-44.91429955,254.0353968,1232.104365
0.7350,-45.0060106,253.922695,1232.094521
0.7400,-45.10058567,253.8037399,1232.084164
0.7450,-45.19738873,253.6778936,1232.073246
0.7500,-45.2963002,253.5461841,1232.061835
0.7550,-45.39808421,253.4090157,1232.049955
0.7600,-45.50131661,253.2665527,1232.037616
0.7650,-45.60523472,253.1200774,1232.024899
0.7700,-45.70928643,252.9689518,1232.011784
0.7750,-45.81279172,252.8138238,1231.998313
0.7800,-45.91481813,252.6545316,1231.984478
0.7850,-46.01382472,252.4907648,1231.970283
0.7900,-46.10962258,252.3224579,1231.955747
0.7950,-46.20101964,252.1496251,1231.940879
0.8000,-46.28545066,251.972367,1231.925693
0.8050,-46.36353034,251.7905073,1231.910214
0.8100,-46.43382748,251.6031085,1231.894412
0.8150,-46.4948111,251.4105858,1231.878341
0.8200,-46.54512881,251.2135318,1231.862029
0.8250,-46.58394277,251.0122289,1231.845529
0.8300,-46.61149553,250.8063689,1231.828852
0.8350,-46.62569763,250.5969056,1231.812041
0.8400,-46.62692204,250.3855538,1231.795215
0.8450,-46.61638629,250.1732438,1231.778433
0.8500,-46.59304084,249.960401,1231.761721
0.8550,-46.55686935,249.7477147,1231.745138
0.8600,-46.50987837,249.5367516,1231.728753
0.8650,-46.45356167,249.3268684,1231.712582
0.8700,-46.38987535,249.1191632,1231.696687
0.8750,-46.32072449,248.9135341,1231.681083
0.8800,-46.2456237,248.7096969,1231.665764
0.8850,-46.16817825,248.5089715,1231.650811
0.8900,-46.08888068,248.3108664,1231.636202
0.8950,-46.00915268,248.114962,1231.621939
0.9000,-45.93001028,247.9239361,1231.608126
0.9050,-45.85362566,247.7354645,1231.594696
0.9100,-45.78133777,247.5504014,1231.581689
0.9150,-45.714029,247.3680545,1231.56909
0.9200,-45.65258403,247.1870783,1231.556866
0.9250,-45.59729442,247.0078641,1231.545022
0.9300,-45.54921935,246.8317391,1231.53361
0.9350,-45.5083351,246.6564789,1231.522539
0.9400,-45.47513832,246.4840122,1231.51188
0.9450,-45.44964455,246.313384,1231.501597
0.9500,-45.43335203,246.1445897,1231.491704
0.9550,-45.42472868,245.9783044,1231.482205
0.9600,-45.42467039,245.8143425,1231.473112
0.9650,-45.43224789,245.6528147,1231.464416
0.9700,-45.44757813,245.4952688,1231.456168
0.9750,-45.46946842,245.3405624,1231.448317
0.9800,-45.49842035,245.190522,1231.440918
0.9850,-45.53367716,245.0445096,1231.433932
0.9900,-45.57537439,244.9034755,1231.427365
0.9950,-45.62434901,244.7668065,1231.421195
1.0000,-45.68056993,244.63618,1231.41544
1.0050,-45.7432007,244.5106784,1231.410052
1.0100,-45.81239611,244.3911991,1231.405039
1.0150,-45.88840475,244.2772243,1231.400389
1.0200,-45.97100282,244.1700262,1231.396114
1.0250,-46.05896815,244.0682937,1231.392168
1.0300,-46.15289225,243.9731859,1231.388573
1.0350,-46.25135494,243.8846795,1231.38532
1.0400,-46.353498,243.8013028,1231.38234
1.0450,-46.45868357,243.7229499,1231.379637
1.0500,-46.5665184,243.6499915,1231.377207
1.0550,-46.6752416,243.5810155,1231.374993
1.0600,-46.78424687,243.5161023,1231.372978
1.0650,-46.89281898,243.4548604,1231.371137
1.0700,-47.00023756,243.3966286,1231.369445
1.0750,-47.10527081,243.3412051,1231.367874
1.0800,-47.20829824,243.288682,1231.366446
1.0850,-47.30886214,243.2405222,1231.365182
1.0900,-47.4060168,243.1964867,1231.364061
1.0950,-47.49959126,243.1551449,1231.363038
1.1000,-47.59063377,243.116142,1231.362119
1.1050,-47.67763858,243.079948,1231.361295
1.1100,-47.76140546,243.0467398,1231.360565
1.1150,-47.84232012,243.0161578,1231.359921
1.1200,-47.92055536,242.9877522,1231.359362
1.1250,-47.99614587,242.9611397,1231.358866
1.1300,-48.06959535,242.9364,1231.358444
1.1350,-48.14115737,242.9135359,1231.358114
1.1400,-48.21127034,242.8915137,1231.357846
1.1450,-48.27841022,242.8709765,1231.357643
1.1500,-48.34440503,242.8516914,1231.357523
1.1550,-48.40909439,242.8336712,1231.357477
1.1600,-48.4713691,242.8160612,1231.35748
1.1650,-48.53152544,242.7986825,1231.357516
1.1700,-48.58894967,242.782017,1231.357582
1.1750,-48.64329106,242.7661421,1231.35767
1.1800,-48.6961692,242.7523496,1231.357827
1.1850,-48.7457842,242.7391053,1231.357984
1.1900,-48.79236875,242.7279771,1231.358175
1.1950,-48.83682229,242.7201762,1231.358433
1.2000,-48.87835836,242.7141355,1231.358715
1.2050,-48.91638683,242.7103856,1231.358999
1.2100,-48.94969364,242.709507,1231.359288
1.2150,-48.97923358,242.7108306,1231.359581
1.2200,-49.00458083,242.7156125,1231.359891
1.2250,-49.02569662,242.7232197,1231.360205
1.2300,-49.04237082,242.7329028,1231.360497
1.2350,-49.05549278,242.7453966,1231.360812
1.2400,-49.0647985,242.7597028,1231.361116
1.2450,-49.07074684,242.7751607,1231.361415
1.2500,-49.07337852,242.7926688,1231.361705
1.2550,-49.07408269,242.8116334,1231.362035
1.2600,-49.07242728,242.831028,1231.362346
1.2650,-49.06934143,242.8523303,1231.362698
1.2700,-49.0653411,242.8746543,1231.363067
1.2750,-49.06187172,242.8983983,1231.363503
1.2800,-49.05837115,242.9230651,1231.363977
1.2850,-49.05537469,242.9484263,1231.364509
1.2900,-49.0542539,242.9743521,1231.365132
1.2950,-49.05404371,243.0015172,1231.365829
1.3000,-49.0558235,243.0288557,1231.366614
1.3050,-49.06032714,243.0562181,1231.367508
1.3100,-49.0675376,243.0831665,1231.368495
1.3150,-49.07892641,243.1097635,1231.369592
1.3200,-49.09281844,243.1356195,1231.370782
1.3250,-49.10926681,243.1614696,1231.372068
1.3300,-49.12806508,243.1868496,1231.373439
1.3350,-49.15011347,243.2115089,1231.374918
1.3400,-49.17492,243.2360001,1231.376504
1.3450,-49.20147688,243.2604606,1231.378179
1.3500,-49.22963517,243.2837674,1231.379917
1.3550,-49.25963516,243.3083067,1231.381777
1.3600,-49.29093093,243.3332005,1231.383736
1.3650,-49.32281686,243.3590061,1231.385802
1.3700,-49.35520786,243.3862843,1231.387974
1.3750,-49.38874197,243.4151898,1231.390282
1.3800,-49.42243389,243.445758,1231.392682
1.3850,-49.45572829,243.4763288,1231.395129
1.3900,-49.48953636,243.5073347,1231.397643
1.3950,-49.52363538,243.5399375,1231.400265
1.4000,-49.5584623,243.5738232,1231.402983
1.4050,-49.59398423,243.6074473,1231.405758
1.4100,-49.63028332,243.6413062,1231.408613
1.4150,-49.66732987,243.6745659,1231.411509
1.4200,-49.70554095,243.7074439,1231.414462
1.4250,-49.7452074,243.7397158,1231.417471
1.4300,-49.78633789,243.7712894,1231.420529
1.4350,-49.82877997,243.8016336,1231.423619
1.4400,-49.8724932,243.8317766,1231.426755
1.4450,-49.91643519,243.8597451,1231.42986
1.4500,-49.96043014,243.8873455,1231.432973
1.4550,-50.00396175,243.9145346,1231.436076
1.4600,-50.04774085,243.9407191,1231.439157
1.4650,-50.09108516,243.9666214,1231.442217
1.4700,-50.13390715,243.9915087,1231.445232
1.4750,-50.17586369,244.0157947,1231.448202
1.4800,-50.21620542,244.0396052,1231.451097
1.4850,-50.25497916,244.0633533,1231.453936
1.4900,-50.29209618,244.0862901,1231.456687
1.4950,-50.32652527,244.1086199,1231.459328
1.5000,-50.35848418,244.1307554,1231.461871
1.5050,-50.38895107,244.1526247,1231.464339
1.5100,-50.41820736,244.1743134,1231.466732
1.5150,-50.44505777,244.1969746,1231.469045
1.5200,-50.46938401,244.219519,1231.471259
1.5250,-50.49148696,244.2427822,1231.473401
1.5300,-50.51075372,244.2656923,1231.475439
1.5350,-50.52609584,244.2890981,1231.477359
1.5400,-50.53814481,244.3118851,1231.479157
1.5450,-50.54613056,244.3343369,1231.480819
1.5500,-50.54986583,244.3554618,1231.482327
1.5550,-50.54839726,244.3760558,1231.483665
1.5600,-50.5416213,244.3971932,1231.484874
1.5650,-50.52953002,244.4178397,1231.485919
1.5700,-50.51116863,244.4380006,1231.486801
1.5750,-50.48641853,244.4581617,1231.487526
1.5800,-50.45585135,244.4782059,1231.488116
1.5850,-50.41967362,244.4985142,1231.488585
1.5900,-50.37725826,244.5191187,1231.488925
1.5950,-50.32902437,244.5395725,1231.489144
1.6000,-50.27641137,244.5609015,1231.4893
1.6050,-50.21881362,244.5818814,1231.489355
1.6100,-50.1574481,244.6031607,1231.489373
1.6150,-50.09294515,244.6251325,1231.489393
1.6200,-50.02673611,244.64708,1231.489417
1.6250,-49.96008028,244.668564,1231.489484
1.6300,-49.89325503,244.6894688,1231.489597
1.6350,-49.82744809,244.7093624,1231.489759
1.6400,-49.76375822,244.728543,1231.490014
1.6450,-49.70289764,244.7473857,1231.490395
1.6500,-49.64581708,244.7667515,1231.490939
1.6550,-49.59260788,244.7852,1231.491615
1.6600,-49.5434868,244.8039007,1231.492461
1.6650,-49.49893619,244.8220756,1231.493456
1.6700,-49.45879849,244.8396839,1231.494592
1.6750,-49.42317214,244.8571911,1231.495878
1.6800,-49.39130612,244.8742389,1231.497291
1.6850,-49.3642066,244.8915622,1231.498852
1.6900,-49.34114333,244.9095337,1231.500547
1.6950,-49.32202044,244.9265694,1231.502313
1.7000,-49.30678506,244.9445604,1231.504202
1.7050,-49.29521066,244.9625924,1231.506169
1.7100,-49.28735013,244.9815561,1231.508224
1.7150,-49.28376719,245.0019717,1231.510389
1.7200,-49.28399929,245.0235919,1231.512643
1.7250,-49.28870018,245.0466853,1231.514992
1.7300,-49.29719097,245.0710061,1231.517394
1.7350,-49.30990676,245.0980972,1231.519911
1.7400,-49.32698091,245.1267692,1231.522496
1.7450,-49.34936715,245.1578972,1231.525195
1.7500,-49.37682716,245.1909051,1231.52798
1.7550,-49.40872681,245.2249518,1231.530805
1.7600,-49.44392601,245.2607097,1231.533679
1.7650,-49.4815586,245.2980823,1231.536578
1.7700,-49.52059488,245.3367429,1231.539479
1.7750,-49.56071414,245.3771985,1231.542381
1.7800,-49.5998818,245.4191075,1231.545242
1.7850,-49.63651373,245.4630058,1231.548049
1.7900,-49.66908351,245.5089408,1231.55078
1.7950,-49.69671825,245.5566334,1231.553422
1.8000,-49.71751893,245.6060208,1231.555925
1.8050,-49.72911518,245.6571407,1231.558259
1.8100,-49.73058215,245.7095423,1231.560395
1.8150,-49.72243601,245.7634106,1231.562358
1.8200,-49.70447806,245.8186552,1231.564135
1.8250,-49.67490588,245.8743864,1231.565682
1.8300,-49.63515629,245.9315294,1231.567048
1.8350,-49.58703029,245.9892877,1231.568256
1.8400,-49.53023067,246.0474527,1231.569304
1.8450,-49.46587642,246.1063809,1231.570231
1.8500,-49.39575555,246.1667462,1231.571108
1.8550,-49.32211664,246.2268229,1231.57193
1.8600,-49.24647875,246.286725,1231.572732
1.8650,-49.16891734,246.3454476,1231.573498
1.8700,-49.09197031,246.4035659,1231.574295
1.8750,-49.01606756,246.4602517,1231.575094
1.8800,-48.94345788,246.5149161,1231.575934
1.8850,-48.87410842,246.5667457,1231.576779
1.8900,-48.80885657,246.6140512,1231.577587
1.8950,-48.74936006,246.6575984,1231.578427
1.9000,-48.69378925,246.6965006,1231.579229
1.9050,-48.64270442,246.7318751,1231.580028
1.9100,-48.59689124,246.7622675,1231.580779
1.9150,-48.55441859,246.7876296,1231.581451
1.9200,-48.51527545,246.8077474,1231.582035
1.9250,-48.47901409,246.8243479,1231.582578
1.9300,-48.44680288,246.8374758,1231.583094
1.9350,-48.41633653,246.8486746,1231.583609
1.9400,-48.38690338,246.8574752,1231.584086
1.9450,-48.35882267,246.8653683,1231.584579
1.9500,-48.3308724,246.8716683,1231.585045
1.9550,-48.30262707,246.8769503,1231.585483
1.9600,-48.27452026,246.8820294,1231.585927
1.9650,-48.24612251,246.8866106,1231.586345
1.9700,-48.21728678,246.8914317,1231.586767
1.9750,-48.18774569,246.896232,1231.587168
1.9800,-48.15901475,246.902373,1231.58761
1.9850,-48.12974205,246.9087869,1231.588053
1.9900,-48.10098325,246.9146445,1231.588479
1.9950,-48.0729631,246.9216042,1231.588942
2.0000,-48.04533579,246.9272006,1231.589344
2.0050,-48.01907115,246.9328692,1231.589741
2.0100,-47.99348079,246.9382998,1231.590118
2.0150,-47.96922739,246.9416361,1231.590418
2.0200,-47.94603932,246.9434739,1231.590646
2.0250,-47.92333927,246.9428322,1231.590763
2.0300,-47.90137291,246.9400533,1231.590793
2.0350,-47.88033719,246.9335954,1231.590674
2.0400,-47.85949314,246.9242423,1231.590429
2.0450,-47.8392457,246.9123356,1231.590079
2.0500,-47.81850908,246.8971055,1231.589568
2.0550,-47.79853567,246.8795657,1231.588974
2.0600,-47.77780685,246.8602515,1231.588274
2.0650,-47.75786228,246.8392919,1231.587499
2.0700,-47.73817063,246.8168922,1231.586651
2.0750,-47.7181656,246.7932657,1231.585726
2.0800,-47.69822582,246.7688401,1231.584754
2.0850,-47.67833545,246.7438275,1231.583733
2.0900,-47.65964848,246.7180718,1231.582679
2.0950,-47.64036631,246.6918635,1231.581581
2.1000,-47.62183485,246.6653793,1231.580472
2.1050,-47.60439044,246.6390002,1231.57936
2.1100,-47.58768877,246.6124032,1231.578238
2.1150,-47.57166042,246.5850105,1231.577086
2.1200,-47.55591869,246.5571396,1231.575923
2.1250,-47.54147105,246.5291321,1231.57476
2.1300,-47.52875381,246.5007622,1231.573619
2.1350,-47.51654773,246.4717121,1231.572484
2.1400,-47.50590237,246.44311,1231.57139
2.1450,-47.49655317,246.4140492,1231.570313
2.1500,-47.48849542,246.3846505,1231.569249
2.1550,-47.48125221,246.3545762,1231.568179
2.1600,-47.47455578,246.3237648,1231.5671
2.1650,-47.46943791,246.2932222,1231.566044
2.1700,-47.46515482,246.2624382,1231.564977
2.1750,-47.46231105,246.2314289,1231.563911
2.1800,-47.46087322,246.2002749,1231.562839
2.1850,-47.46156656,246.1704065,1231.561824
2.1900,-47.46363479,246.1426534,1231.560877
2.1950,-47.46671513,246.1166406,1231.559969
2.2000,-47.4712327,246.0915191,1231.55908
2.2050,-47.4764266,246.067086,1231.558201
2.2100,-47.48215928,246.0441209,1231.55735
2.2150,-47.48911946,246.0217909,1231.556508
2.2200,-47.49672908,245.999392,1231.555648
2.2250,-47.50579702,245.9771674,1231.554773
2.2300,-47.51504346,245.9550915,1231.553875
2.2350,-47.52504658,245.9322881,1231.552925
2.2400,-47.53689251,245.909096,1231.551952
2.2450,-47.54951079,245.8845867,1231.55089
2.2500,-47.56435203,245.8594193,1231.54978
2.2550,-47.58134557,245.8341956,1231.548642
2.2600,-47.60007962,245.8078372,1231.547426
2.2650,-47.62105058,245.7815393,1231.546169
