type,name,time_units,begin_time,frequency,count,units
signal_3d,"Noraxon MyoMotion-Trajectories-Radial styloid process RT","s",0.0000,200,5324,"mm"

time,x,y,z
0.0000,-128.8531058,165.19998,901.6362343
0.0050,-128.8815258,165.174818,901.6382837
0.0100,-128.9099425,165.1496619,901.6403499
0.0150,-128.9383559,165.1245118,901.6424331
0.0200,-128.9686624,165.0965342,901.64468
0.0250,-129.000608,165.0657343,901.6470756
0.0300,-129.0338924,165.0321422,901.6496004
0.0350,-129.0681758,164.9958007,901.6522306
0.0400,-129.1030976,164.95676,901.6549407
0.0450,-129.1382989,164.9150743,901.6577057
0.0500,-129.1734393,164.8707957,901.660503
0.0550,-129.2082024,164.8239695,901.6633141
0.0600,-129.242297,164.7746354,901.6661233
0.0650,-129.2754588,164.7228383,901.6689177
0.0700,-129.3074576,164.6686391,901.6716867
0.0750,-129.3381002,164.6121223,901.6744218
0.0800,-129.3672279,164.5533998,901.6771169
0.0850,-129.3947108,164.492616,901.6797669
0.0900,-129.4204417,164.4299546,901.6823677
0.0950,-129.4443253,164.3656434,901.6849147
0.1000,-129.4662663,164.2999538,901.6874014
0.1050,-129.4861633,164.2332025,901.6898189
0.1100,-129.5039142,164.1657552,901.6921562
0.1150,-129.5194231,164.0980265,901.6944004
0.1200,-129.5326081,164.0304729,901.6965379
0.1250,-129.5434061,163.9635777,901.6985544
0.1300,-129.5517741,163.8978311,901.7004357
0.1350,-129.5576884,163.8337084,901.7021685
0.1400,-129.5611455,163.7716549,901.7037399
0.1450,-129.562164,163.7120787,901.7051379
0.1500,-129.5607885,163.6553371,901.7063519
0.1550,-129.5376845,163.5296321,901.7067246
0.1600,-129.5100633,163.4069962,901.7067625
0.1650,-129.4783309,163.2866622,901.7065328
0.1700,-129.4419783,163.1694174,901.7058985
0.1750,-129.4025525,163.0557673,901.7050196
0.1800,-129.3588417,162.9461325,901.7036625
0.1850,-129.3105565,162.8397639,901.7018248
0.1900,-129.2584976,162.7359817,901.699588
0.1950,-129.2024229,162.6357076,901.6968762
0.2000,-129.1429339,162.5381942,901.6937694
0.2050,-129.0809908,162.4430601,901.6904199
0.2100,-129.0168472,162.349802,901.6868909
0.2150,-128.9505566,162.2589248,901.6831073
0.2200,-128.8818652,162.1705391,901.6789677
0.2250,-128.8107774,162.0845068,901.6744939
0.2300,-128.7385641,161.9999791,901.6698905
0.2350,-128.6637976,161.9175642,901.6648633
0.2400,-128.5880982,161.8358265,901.6597844
0.2450,-128.5113877,161.7563677,901.6545001
0.2500,-128.4325831,161.6777989,901.6489257
0.2550,-128.3519648,161.6004788,901.6431127
0.2600,-128.269384,161.5242884,901.637044
0.2650,-128.1853766,161.4496897,901.6307593
0.2700,-128.0998102,161.3777001,901.6241496
0.2750,-128.0127366,161.307498,901.6173066
0.2800,-127.9243203,161.2395621,901.6101649
0.2850,-127.8343546,161.1730082,901.6028259
0.2900,-127.7426741,161.1075288,901.5952211
0.2950,-127.6496256,161.0434388,901.5873949
0.3000,-127.5550955,160.9806605,901.5793509
0.3050,-127.4583374,160.9203437,901.5708849
0.3100,-127.361052,160.8614608,901.5622587
0.3150,-127.2623121,160.8044163,901.5533451
0.3200,-127.1632774,160.7484604,901.5443528
0.3250,-127.0647575,160.6947437,901.5352692
0.3300,-126.9660225,160.6416073,901.5261281
0.3350,-126.8672637,160.589659,901.5169053
0.3400,-126.7687592,160.5398703,901.507595
0.3450,-126.6704915,160.491359,901.498199
0.3500,-126.5733016,160.4443182,901.4888954
0.3550,-126.4773605,160.3991953,901.4796358
0.3600,-126.3824668,160.3546491,901.4705011
0.3650,-126.2882796,160.3114125,901.4613964
0.3700,-126.1949188,160.2697234,901.4523302
0.3750,-126.1032855,160.2293321,901.4434163
0.3800,-126.012206,160.1888071,901.434653
0.3850,-125.9222336,160.1497882,901.4260141
0.3900,-125.8341347,160.1114917,901.4175791
0.3950,-125.7465208,160.0743437,901.409195
0.4000,-125.6605349,160.03765,901.4010594
0.4050,-125.5756632,160.0025506,901.3930375
0.4100,-125.4917572,159.9682748,901.3851394
0.4150,-125.4101123,159.9347697,901.3775067
0.4200,-125.3296442,159.9019804,901.3700339
0.4250,-125.2503323,159.8684604,901.3628459
0.4300,-125.1717562,159.8353188,901.3557985
0.4350,-125.0939324,159.8029463,901.3488599
0.4400,-125.0175851,159.7716488,901.342081
0.4450,-124.942158,159.7389883,901.33558
0.4500,-124.8680741,159.7060785,901.3293057
0.4550,-124.7966465,159.6737922,901.3233436
0.4600,-124.7263149,159.6408009,901.3176182
0.4650,-124.6574173,159.607523,901.3121309
0.4700,-124.5901739,159.5751869,901.3067782
0.4750,-124.524401,159.5430872,901.3016016
0.4800,-124.4606314,159.5095545,901.2968037
0.4850,-124.3988007,159.4769618,901.2921987
0.4900,-124.3381277,159.44505,901.2877061
0.4950,-124.2786706,159.4142539,901.2832508
0.5000,-124.2210875,159.3840556,901.2789716
0.5050,-124.1657487,159.3554507,901.2748455
0.5100,-124.1110462,159.3281914,901.2706639
0.5150,-124.0573122,159.3023064,901.2664862
0.5200,-124.0048547,159.2771157,901.2624065
0.5250,-123.9534356,159.2528458,901.2584132
0.5300,-123.9038359,159.230872,901.2544165
0.5350,-123.8557117,159.2088163,901.250662
0.5400,-123.8089874,159.1900923,901.2467836
0.5450,-123.7636619,159.1721178,901.2430062
0.5500,-123.7200495,159.1549792,901.2394093
0.5550,-123.6784321,159.1394921,901.2359005
0.5600,-123.6386143,159.1256758,901.2324799
0.5650,-123.600555,159.1123651,901.2292261
0.5700,-123.5645266,159.0989971,901.2262466
0.5750,-123.5307657,159.0863872,901.2234295
0.5800,-123.499179,159.0739202,901.2208881
0.5850,-123.4704299,159.0614066,901.2186417
0.5900,-123.4437395,159.0492647,901.2166108
0.5950,-123.4196679,159.0371985,901.2148418
0.6000,-123.3981256,159.0252615,901.213352
0.6050,-123.3802039,159.0125034,901.2123581
0.6100,-123.3640316,158.9994402,901.2115816
0.6150,-123.3507558,158.9865299,901.2110906
0.6200,-123.3403001,158.972631,901.210988
0.6250,-123.3312213,158.9587844,901.2110372
0.6300,-123.3238539,158.9454451,901.2111991
0.6350,-123.319571,158.9323492,901.2117086
0.6400,-123.3169787,158.9186328,901.2123938
0.6450,-123.3158412,158.9038873,901.2133612
0.6500,-123.315846,158.889032,901.2144136
0.6550,-123.3184668,158.8742369,901.2157131
0.6600,-123.3221859,158.8591565,901.2171797
0.6650,-123.3264153,158.8433602,901.2187374
0.6700,-123.3323426,158.8277164,901.2204512
0.6750,-123.3386516,158.8117977,901.2222463
0.6800,-123.3468696,158.7966702,901.2241552
0.6850,-123.3571437,158.7816285,901.2262714
0.6900,-123.3675651,158.7668143,901.2284079
0.6950,-123.3800185,158.7519319,901.230826
0.7000,-123.3937144,158.7372818,901.2333782
0.7050,-123.4084902,158.72242,901.2360975
0.7100,-123.4246693,158.7076056,901.2390322
0.7150,-123.4422529,158.6924313,901.2422143
0.7200,-123.4602067,158.6769861,901.2455116
0.7250,-123.4800811,158.6630373,901.2489196
0.7300,-123.501148,158.648899,901.252511
0.7350,-123.5231517,158.6343976,901.2562855
0.7400,-123.546186,158.6192823,901.2602296
0.7450,-123.5705841,158.6046501,901.2643222
0.7500,-123.5960564,158.5910355,901.2684608
0.7550,-123.6223162,158.5762582,901.2727989
0.7600,-123.6504303,158.5616327,901.2773228
0.7650,-123.6790503,158.5475562,901.2818576
0.7700,-123.7085045,158.5319183,901.2866151
0.7750,-123.7395251,158.517042,901.2914438
0.7800,-123.7720812,158.502427,901.2964151
0.7850,-123.80533,158.4876512,901.3014457
0.7900,-123.8407058,158.4723166,901.306803
0.7950,-123.8773103,158.4566723,901.3123564
0.8000,-123.9159154,158.4410434,901.3181447
0.8050,-123.9547595,158.4255863,901.3239303
0.8100,-123.9958873,158.4097794,901.330015
0.8150,-124.0380663,158.3944213,901.3361993
0.8200,-124.0815957,158.3785989,901.3426032
0.8250,-124.1275464,158.362966,901.3492542
0.8300,-124.174046,158.3464036,901.3561077
0.8350,-124.2220131,158.3301654,901.3630897
0.8400,-124.2706283,158.3123152,901.3703246
0.8450,-124.3195215,158.2946485,901.3776391
0.8500,-124.3691257,158.2768877,901.3850671
0.8550,-124.4178724,158.2584667,901.3925083
0.8600,-124.4662909,158.2387378,901.4000705
0.8650,-124.514734,158.2190479,901.4076578
0.8700,-124.5616351,158.1979383,901.4152221
0.8750,-124.6075579,158.1755521,901.4228289
0.8800,-124.651984,158.1524505,901.4303071
0.8850,-124.6946875,158.1295265,901.4376101
0.8900,-124.7360317,158.1055652,901.4448496
0.8950,-124.7760695,158.0823436,901.4518681
0.9000,-124.8136611,158.0592618,901.4585663
0.9050,-124.8490158,158.0361783,901.4649796
0.9100,-124.8831746,158.0125512,901.4712888
0.9150,-124.9153854,157.9896487,901.4772816
0.9200,-124.9457064,157.9656075,901.4831608
0.9250,-124.9753379,157.9416449,901.4889409
0.9300,-125.0037589,157.9167889,901.4946568
0.9350,-125.0301622,157.891284,901.5001573
0.9400,-125.0543018,157.8664355,901.50534
0.9450,-125.0783132,157.8415185,901.510461
0.9500,-125.1016433,157.8162708,901.5155106
0.9550,-125.1239624,157.7910935,901.520425
0.9600,-125.1457627,157.7648723,901.5253481
0.9650,-125.1664815,157.7390052,901.5300852
0.9700,-125.1868532,157.7121105,901.5348769
0.9750,-125.2070934,157.6850008,901.5396753
0.9800,-125.2264437,157.6565304,901.5445189
0.9850,-125.244719,157.6265171,901.5494147
0.9900,-125.263329,157.5958347,901.5544252
0.9950,-125.2806795,157.5636884,901.5594269
1.0000,-125.2969974,157.5312899,901.5643539
1.0050,-125.3126397,157.4971858,901.5693643
1.0100,-125.3282603,157.4620331,901.574484
1.0150,-125.3429926,157.4258126,901.579583
1.0200,-125.3577419,157.3889549,901.5847131
1.0250,-125.3713896,157.3496432,901.5899681
1.0300,-125.3842636,157.3092437,901.5952251
1.0350,-125.396702,157.2680402,901.6005144
1.0400,-125.408785,157.2250347,901.6059227
1.0450,-125.4189787,157.1804314,901.611243
1.0500,-125.4289507,157.1334547,901.6167409
1.0550,-125.439645,157.0853204,901.6224382
1.0600,-125.4488171,157.0357114,901.6280997
1.0650,-125.4573021,156.9853395,901.6337838
1.0700,-125.4652567,156.9338959,901.6395186
1.0750,-125.4716712,156.8805953,901.6453068
1.0800,-125.4770661,156.8259758,901.6511105
1.0850,-125.4811175,156.769629,901.6569681
1.0900,-125.4845301,156.7123934,901.6628206
1.0950,-125.4885575,156.6538222,901.6688831
1.1000,-125.4909009,156.5935412,901.6749751
1.1050,-125.4925705,156.5310077,901.6812289
1.1100,-125.493006,156.4665246,901.687602
1.1150,-125.4933632,156.3993545,901.694256
1.1200,-125.4933278,156.330781,901.7010785
1.1250,-125.4917624,156.2597246,901.7080472
1.1300,-125.4905253,156.1871808,901.7152615
1.1350,-125.4878225,156.1124007,901.7225867
1.1400,-125.4839782,156.0352778,901.7300745
1.1450,-125.4799533,155.9553059,901.7378909
1.1500,-125.4749773,155.8728294,901.7459255
1.1550,-125.4702483,155.7876272,901.7543008
1.1600,-125.465964,155.7002212,901.7629895
1.1650,-125.4601429,155.6105855,901.7717908
1.1700,-125.4542831,155.5198177,901.7807509
1.1750,-125.4487436,155.4284685,901.7898892
1.1800,-125.4426866,155.3358688,901.7991778
1.1850,-125.4367936,155.242658,901.8086258
1.1900,-125.4317684,155.148389,901.8183759
1.1950,-125.4259204,155.0522246,901.828293
1.2000,-125.4211357,154.9555967,901.8384953
1.2050,-125.4179878,154.8579424,901.8490902
1.2100,-125.416061,154.7604589,901.859901
1.2150,-125.4161104,154.6620133,901.8711687
1.2200,-125.4170224,154.5648976,901.8825222
1.2250,-125.4191096,154.4666441,901.8942115
1.2300,-125.4237127,154.3690062,901.9062632
1.2350,-125.430632,154.2719541,901.9186512
1.2400,-125.4408571,154.1748068,901.9315402
1.2450,-125.453628,154.0791975,901.9447148
1.2500,-125.4693156,153.9842391,901.958302
1.2550,-125.4863707,153.8892582,901.9721724
1.2600,-125.5068313,153.7972323,901.9862687
1.2650,-125.5310634,153.7056551,902.0008934
1.2700,-125.5575711,153.6160726,902.0156875
1.2750,-125.5870468,153.5275912,902.0308503
1.2800,-125.6194103,153.4413407,902.0462607
1.2850,-125.6545874,153.3578243,902.0618667
1.2900,-125.6926261,153.2769904,902.0777085
1.2950,-125.7345465,153.200234,902.0937271
1.3000,-125.7795617,153.1250064,902.1101202
1.3050,-125.8276354,153.0531769,902.1266778
1.3100,-125.878002,152.983615,902.1434382
1.3150,-125.9313143,152.9175833,902.1604056
1.3200,-125.9874752,152.8530907,902.1777338
1.3250,-126.0461199,152.7911634,902.1952623
1.3300,-126.1073679,152.7305361,902.2131453
1.3350,-126.1712057,152.6706153,902.2314521
1.3400,-126.2361657,152.6116703,902.2500029
1.3450,-126.3043232,152.5528942,902.2691118
1.3500,-126.3729506,152.4931055,902.2886039
1.3550,-126.4423537,152.4320394,902.308521
1.3600,-126.5126041,152.3687207,902.3289865
1.3650,-126.5839378,152.3016392,902.3501375
1.3700,-126.6560897,152.2302583,902.3720522
1.3750,-126.728893,152.1535863,902.3947826
1.3800,-126.80223,152.0730846,902.418223
1.3850,-126.8759726,151.9870216,902.4425297
1.3900,-126.9485145,151.8947599,902.4676235
1.3950,-127.0189359,151.7973358,902.4932946
1.4000,-127.0884312,151.6952866,902.5196317
1.4050,-127.1566666,151.5876088,902.5467885
1.4100,-127.2242195,151.4749589,902.5747317
1.4150,-127.2899939,151.3572804,902.6034107
1.4200,-127.3546324,151.2333461,902.6330258
1.4250,-127.4186071,151.1039606,902.6635281
1.4300,-127.4801337,150.9675663,902.6949044
1.4350,-127.5418133,150.8242291,902.7275901
1.4400,-127.6030657,150.6729629,902.761587
1.4450,-127.6644915,150.5122682,902.7971442
1.4500,-127.7256524,150.3412608,902.8343589
1.4550,-127.7868027,150.1588187,902.8734018
1.4600,-127.847675,149.964871,902.9143502
1.4650,-127.9092727,149.7583667,902.9574675
1.4700,-127.9709551,149.5400178,903.0026196
1.4750,-128.0335062,149.3084279,903.0501063
1.4800,-128.0967641,149.0646499,903.0998894
1.4850,-128.1621414,148.8075434,903.1522691
1.4900,-128.2286693,148.536758,903.2073101
1.4950,-128.2985974,148.2528422,903.2652613
1.5000,-128.3724891,147.9550263,903.3263917
1.5050,-128.4497291,147.643574,903.3907242
1.5100,-128.5319539,147.3183198,903.4586424
1.5150,-128.6185661,146.9793833,903.5301631
1.5200,-128.7115484,146.6265727,903.6056585
1.5250,-128.8106135,146.2604998,903.6852827
1.5300,-128.9154082,145.879969,903.7692402
1.5350,-129.0275596,145.4845629,903.8580619
1.5400,-129.1472192,145.0751163,903.9517909
1.5450,-129.2742446,144.6510411,904.0507765
1.5500,-129.4094068,144.2130913,904.155163
1.5550,-129.55394,143.7606113,904.2654097
1.5600,-129.7076856,143.2929541,904.3816303
1.5650,-129.8720062,142.8114082,904.5040985
1.5700,-130.0473441,142.3148326,904.633155
1.5750,-130.2347624,141.8036125,904.7689901
1.5800,-130.4351817,141.2789779,904.9116301
1.5850,-130.6508689,140.7421587,905.0611637
1.5900,-130.8807742,140.1933256,905.2174763
1.5950,-131.1269939,139.6344051,905.380593
1.6000,-131.3915013,139.0688021,905.5502531
1.6050,-131.6743891,138.4981468,905.7262042
1.6100,-131.975487,137.9239553,905.9079651
1.6150,-132.2963208,137.3479124,906.0953415
1.6200,-132.6382385,136.7727006,906.2880276
1.6250,-133.0022892,136.2000022,906.4857068
1.6300,-133.389311,135.6320994,906.6880568
1.6350,-133.799069,135.0699975,906.8946391
1.6400,-134.2335499,134.5156736,907.1054026
1.6450,-134.6907224,133.9702653,907.3197556
1.6500,-135.1727691,133.4361834,907.5376151
1.6550,-135.6764872,132.9120697,907.7586428
1.6600,-136.202628,132.4004429,907.9826098
1.6650,-136.7497615,131.9018207,908.2093569
1.6700,-137.3161485,131.4168625,908.4386386
1.6750,-137.9003467,130.9451232,908.6704135
1.6800,-138.500754,130.4848278,908.9048522
1.6850,-139.116286,130.0364682,909.1417857
1.6900,-139.7456189,129.6001276,909.3811729
1.6950,-140.3881965,129.1724716,909.6236111
1.7000,-141.0433709,128.7526987,909.8691677
1.7050,-141.7106526,128.3412526,910.1179091
1.7100,-142.387816,127.9353408,910.3701329
1.7150,-143.0750123,127.5332394,910.6261936
1.7200,-143.7715736,127.1362535,910.8860455
1.7250,-144.4776576,126.7416247,911.1502893
1.7300,-145.192106,126.3490298,911.418814
1.7350,-145.9137831,125.9578941,911.6915909
1.7400,-146.6430686,125.5690639,911.9687287
1.7450,-147.3791608,125.1829323,912.2502124
1.7500,-148.1228614,124.7991605,912.5361835
1.7550,-148.8729413,124.4168538,912.8268481
1.7600,-149.6293655,124.0355439,913.122274
1.7650,-150.3924183,123.6546097,913.4227211
1.7700,-151.1621416,123.2729996,913.7286862
1.7750,-151.9385177,122.8904885,914.0402327
1.7800,-152.7217637,122.5058731,914.3580287
1.7850,-153.511162,122.1189574,914.6821278
1.7900,-154.3067665,121.7308933,915.0126338
1.7950,-155.1076337,121.3401983,915.3500623
1.8000,-155.9127187,120.9459906,915.694446
1.8050,-156.722273,120.5487529,916.0461023
1.8100,-157.5343509,120.1489085,916.4048959
1.8150,-158.3490923,119.7452663,916.7713262
1.8200,-159.1655334,119.3383938,917.14554
1.8250,-159.9839034,118.9285263,917.5276657
1.8300,-160.8030877,118.5144249,917.9181153
1.8350,-161.6235506,118.0965464,918.3166308
1.8400,-162.4451499,117.6743333,918.7236929
1.8450,-163.2679221,117.2479419,919.1390655
1.8500,-164.0927663,116.8170312,919.5631247
1.8550,-164.9188613,116.3826773,919.99542
1.8600,-165.7472986,115.9448619,920.4364875
1.8650,-166.5773438,115.5027097,920.8860577
1.8700,-167.410037,115.0590885,921.3438004
1.8750,-168.2457938,114.6139569,921.8094796
1.8800,-169.0844741,114.1677505,922.2829876
1.8850,-169.9262322,113.7202937,922.7644394
1.8900,-170.771731,113.2739769,923.253325
1.8950,-171.620384,112.8276897,923.7493776
1.9000,-172.4727796,112.38245,924.2524625
1.9050,-173.3308358,111.9386174,924.7626325
1.9100,-174.1963853,111.4974054,925.280051
1.9150,-175.0687433,111.0601488,925.8041195
1.9200,-175.9477553,110.626857,926.3348912
1.9250,-176.8345593,110.1986515,926.8720995
1.9300,-177.728171,109.7748953,927.4155625
1.9350,-178.63104,109.3566199,927.965824
1.9400,-179.5413976,108.9436259,928.5226006
1.9450,-180.4606649,108.5354964,929.0861579
1.9500,-181.3873669,108.1310188,929.6565414
1.9550,-182.3226698,107.7321448,930.2338145
1.9600,-183.2665898,107.3375075,930.8185148
1.9650,-184.2188402,106.9450194,931.4113506
1.9700,-185.179431,106.5542345,932.0125416
1.9750,-186.1481437,106.1641056,932.6222521
1.9800,-187.1247697,105.7743756,933.2410808
1.9850,-188.1097735,105.3846694,933.8696028
1.9900,-189.1032955,104.993819,934.5082913
1.9950,-190.1044497,104.6027586,935.1572649
2.0000,-191.111927,104.2099409,935.816762
2.0050,-192.1256694,103.8144978,936.4869909
2.0100,-193.1464976,103.4163246,937.1682523
2.0150,-194.1724784,103.0161818,937.8604091
2.0200,-195.2029868,102.6117964,938.5633253
2.0250,-196.2374426,102.2046632,939.2767737
2.0300,-197.277198,101.7956263,940.0013049
2.0350,-198.320756,101.3829678,940.7366611
2.0400,-199.3683168,100.9664814,941.4829941
2.0450,-200.4186146,100.5464436,942.2397462
2.0500,-201.4719149,100.1232368,943.0073366
2.0550,-202.5283116,99.69771804,943.7855107
2.0600,-203.5881431,99.27025168,944.5739347
2.0650,-204.6506392,98.8403336,945.3728487
2.0700,-205.7168775,98.40864297,946.1822334
2.0750,-206.7852584,97.97458387,947.0020374
2.0800,-207.856728,97.53820337,947.8318152
2.0850,-208.9300189,97.10040144,948.6714482
2.0900,-210.0051279,96.66034011,949.5207837
2.0950,-211.0823549,96.21967459,950.3791888
2.1000,-212.1606401,95.77821284,951.2470321
2.1050,-213.2409681,95.33588153,952.1240666
2.1100,-214.3228568,94.8910182,953.010508
2.1150,-215.4056148,94.4454199,953.9058006
2.1200,-216.4898911,93.99821507,954.809981
2.1250,-217.5752009,93.54901137,955.7232627
2.1300,-218.662595,93.09910016,956.6451645
2.1350,-219.7511403,92.64862562,957.575424
2.1400,-220.8407833,92.19813062,958.5140544
2.1450,-221.931297,91.74615578,959.4615574
2.1500,-223.0212662,91.29403573,960.417464
2.1550,-224.1118003,90.84079802,961.3823831
2.1600,-225.2017261,90.38606606,962.3563624
2.1650,-226.2913607,89.93145809,963.3393062
2.1700,-227.379839,89.47448139,964.3318557
2.1750,-228.4662287,89.01560736,965.3337205
2.1800,-229.5514247,88.55563065,966.345197
2.1850,-230.6337829,88.09444215,967.3657838
2.1900,-231.7143162,87.63223421,968.3960437
2.1950,-232.793603,87.16954789,969.4363919
2.2000,-233.8714087,86.70747764,970.486691
2.2050,-234.9464043,86.24577513,971.5466093
2.2100,-236.0196738,85.78430258,972.6166634
2.2150,-237.0907658,85.32343534,973.6969043
2.2200,-238.1603468,84.86387668,974.7869646
2.2250,-239.2274145,84.40564164,975.8870275
2.2300,-240.2942948,83.94987789,976.9975357
2.2350,-241.3586799,83.49672295,978.1171284
2.2400,-242.4209814,83.04650832,979.2460752
2.2450,-243.4817437,82.59942498,980.3846323
2.2500,-244.5407102,82.15614955,981.5325987
2.2550,-245.5973546,81.71673414,982.6904417
2.2600,-246.6519041,81.27998026,983.858301
2.2650,-247.7042584,80.84792716,985.0360694
