type,name,time_units,begin_time,frequency,count,units
signal,"Noraxon MyoMotion-Segments-Forearm RT-Roll","s",0.0000,200,5324,"deg"

time,value
0.0000,1.398761949
0.0050,1.399768489
0.0100,1.400778064
0.0150,1.401790672
0.0200,1.40287156
0.0250,1.404013285
0.0300,1.405210117
0.0350,1.406458019
0.0400,1.407753464
0.0450,1.40909304
0.0500,1.410473913
0.0550,1.411894658
0.0600,1.413355826
0.0650,1.414859347
0.0700,1.416407144
0.0750,1.418000404
0.0800,1.419640063
0.0850,1.421327728
0.0900,1.423066089
0.0950,1.424858866
0.1000,1.42671047
0.1050,1.428624801
0.1100,1.430603067
0.1150,1.432641668
0.1200,1.434730898
0.1250,1.43685462
0.1300,1.438990852
0.1350,1.441112596
0.1400,1.443188797
0.1450,1.445186131
0.1500,1.447071627
0.1550,1.45271223
0.1600,1.458337129
0.1650,1.463941403
0.1700,1.469267309
0.1750,1.474452866
0.1800,1.479644852
0.1850,1.484927043
0.1900,1.490075327
0.1950,1.49516155
0.2000,1.500296471
0.2050,1.505366716
0.2100,1.510452879
0.2150,1.515705907
0.2200,1.521039943
0.2250,1.526448079
0.2300,1.531926669
0.2350,1.537513333
0.2400,1.543271379
0.2450,1.549089904
0.2500,1.555203534
0.2550,1.561565061
0.2600,1.568175104
0.2650,1.575028522
0.2700,1.582075852
0.2750,1.589250807
0.2800,1.596625898
0.2850,1.604186784
0.2900,1.611834773
0.2950,1.619530372
0.3000,1.627422347
0.3050,1.635305892
0.3100,1.643248584
0.3150,1.651234363
0.3200,1.659223842
0.3250,1.66716408
0.3300,1.675294457
0.3350,1.683536027
0.3400,1.691766097
0.3450,1.699961348
0.3500,1.708166193
0.3550,1.716431733
0.3600,1.724637076
0.3650,1.732893878
0.3700,1.741008555
0.3750,1.749084243
0.3800,1.75715885
0.3850,1.765134598
0.3900,1.772919157
0.3950,1.780661565
0.4000,1.788334451
0.4050,1.795865389
0.4100,1.803288175
0.4150,1.810343068
0.4200,1.817288173
0.4250,1.824067908
0.4300,1.83071657
0.4350,1.837332622
0.4400,1.843740624
0.4450,1.850074423
0.4500,1.856276735
0.4550,1.862160171
0.4600,1.86788039
0.4650,1.873436366
0.4700,1.878896057
0.4750,1.884043148
0.4800,1.888992149
0.4850,1.893767144
0.4900,1.898360741
0.4950,1.902742531
0.5000,1.906839969
0.5050,1.910633109
0.5100,1.914163687
0.5150,1.917472286
0.5200,1.92043383
0.5250,1.923267914
0.5300,1.925737216
0.5350,1.928010923
0.5400,1.929931566
0.5450,1.931787315
0.5500,1.933338094
0.5550,1.934609517
0.5600,1.935772655
0.5650,1.936648214
0.5700,1.937372639
0.5750,1.937906075
0.5800,1.938225475
0.5850,1.938434969
0.5900,1.938589122
0.5950,1.938650212
0.6000,1.938493362
0.6050,1.938255217
0.6100,1.938009265
0.6150,1.937632021
0.6200,1.937261073
0.6250,1.937025417
0.6300,1.936650167
0.6350,1.936232658
0.6400,1.935805265
0.6450,1.935599014
0.6500,1.93541745
0.6550,1.935162688
0.6600,1.935120135
0.6650,1.935167178
0.6700,1.935418118
0.6750,1.935804667
0.6800,1.936153316
0.6850,1.936500417
0.6900,1.937068462
0.6950,1.937704359
0.7000,1.93846519
0.7050,1.939303951
0.7100,1.940171974
0.7150,1.941142894
0.7200,1.942313716
0.7250,1.94340572
0.7300,1.944521853
0.7350,1.945622725
0.7400,1.946755962
0.7450,1.94770126
0.7500,1.948585423
0.7550,1.949515552
0.7600,1.950359609
0.7650,1.951114547
0.7700,1.951893035
0.7750,1.952630395
0.7800,1.953260932
0.7850,1.953808947
0.7900,1.95432812
0.7950,1.954831011
0.8000,1.955262526
0.8050,1.955750987
0.8100,1.956145275
0.8150,1.956366134
0.8200,1.956557098
0.8250,1.956337003
0.8300,1.9561245
0.8350,1.95569949
0.8400,1.95520132
0.8450,1.954465999
0.8500,1.95344035
0.8550,1.952423828
0.8600,1.951123685
0.8650,1.94959772
0.8700,1.947967498
0.8750,1.946115973
0.8800,1.944145312
0.8850,1.942001547
0.8900,1.93969086
0.8950,1.937106278
0.9000,1.934536648
0.9050,1.931893869
0.9100,1.929051661
0.9150,1.926269005
0.9200,1.923541045
0.9250,1.920758981
0.9300,1.918162339
0.9350,1.915641485
0.9400,1.913279003
0.9450,1.91085132
0.9500,1.90858346
0.9550,1.906304271
0.9600,1.904092093
0.9650,1.90201574
0.9700,1.899995654
0.9750,1.897987983
0.9800,1.896214909
0.9850,1.894674962
0.9900,1.893263213
0.9950,1.892002831
1.0000,1.891010309
1.0050,1.890193297
1.0100,1.889568504
1.0150,1.889207424
1.0200,1.889064997
1.0250,1.889287626
1.0300,1.889804099
1.0350,1.89070473
1.0400,1.891894317
1.0450,1.893681538
1.0500,1.895769907
1.0550,1.898076488
1.0600,1.900696247
1.0650,1.903773611
1.0700,1.907231043
1.0750,1.910965528
1.0800,1.915048304
1.0850,1.91939286
1.0900,1.923924981
1.0950,1.928479084
1.1000,1.933060452
1.1050,1.937690424
1.1100,1.94247747
1.1150,1.947171829
1.1200,1.951838818
1.1250,1.956697506
1.1300,1.961345488
1.1350,1.966105662
1.1400,1.970782026
1.1450,1.975322496
1.1500,1.97989084
1.1550,1.984158384
1.1600,1.988213744
1.1650,1.992192128
1.1700,1.995867363
1.1750,1.999197602
1.1800,2.002314425
1.1850,2.005046928
1.1900,2.007421177
1.1950,2.009603533
1.2000,2.011296488
1.2050,2.012483074
1.2100,2.013298629
1.2150,2.013541581
1.2200,2.013218554
1.2250,2.012455749
1.2300,2.011147901
1.2350,2.009302501
1.2400,2.006832226
1.2450,2.00393668
1.2500,2.000424379
1.2550,1.996578396
1.2600,1.99214387
1.2650,1.987207704
1.2700,1.981887109
1.2750,1.976125222
1.2800,1.969969368
1.2850,1.963268908
1.2900,1.956166191
1.2950,1.948582031
1.3000,1.940673007
1.3050,1.932364727
1.3100,1.923719281
1.3150,1.914722001
1.3200,1.905371614
1.3250,1.895654907
1.3300,1.885624836
1.3350,1.875187344
1.3400,1.864440763
1.3450,1.853201674
1.3500,1.841697323
1.3550,1.829862277
1.3600,1.817831394
1.3650,1.805445428
1.3700,1.792625008
1.3750,1.77954374
1.3800,1.766016048
1.3850,1.752081301
1.3900,1.737775549
1.3950,1.723150965
1.4000,1.708292752
1.4050,1.693097704
1.4100,1.67755789
1.4150,1.661818931
1.4200,1.645803608
1.4250,1.629512107
1.4300,1.613028029
1.4350,1.596163614
1.4400,1.57923279
1.4450,1.562233553
1.4500,1.545163072
1.4550,1.528050819
1.4600,1.510811786
1.4650,1.493390357
1.4700,1.475920454
1.4750,1.458419309
1.4800,1.440712155
1.4850,1.422787581
1.4900,1.404724773
1.4950,1.386273646
1.5000,1.367502842
1.5050,1.348433094
1.5100,1.328857928
1.5150,1.309045881
1.5200,1.288744865
1.5250,1.267874515
1.5300,1.246535754
1.5350,1.224358376
1.5400,1.201360128
1.5450,1.177267121
1.5500,1.152072865
1.5550,1.125618777
1.5600,1.097911903
1.5650,1.06872323
1.5700,1.037902179
1.5750,1.005426049
1.5800,0.9710201281
1.5850,0.9345800053
1.5900,0.8960508211
1.5950,0.855172825
1.6000,0.8115387159
1.6050,0.7653124915
1.6100,0.7164542506
1.6150,0.6648749839
1.6200,0.6103980146
1.6250,0.5530480498
1.6300,0.4925883922
1.6350,0.4291789783
1.6400,0.3626565112
1.6450,0.2930905057
1.6500,0.2202316613
1.6550,0.144457107
1.6600,0.06542512098
1.6650,-0.01671853263
1.6700,-0.1019986485
1.6750,-0.1902458748
1.6800,-0.2812932635
1.6850,-0.3750305783
1.6900,-0.4714286655
1.6950,-0.5702206974
1.7000,-0.671382271
1.7050,-0.7749991203
1.7100,-0.8809153851
1.7150,-0.9890788896
1.7200,-1.099446846
1.7250,-1.212138467
1.7300,-1.32685091
1.7350,-1.443513698
1.7400,-1.562232304
1.7450,-1.682974021
1.7500,-1.805610944
1.7550,-1.929960541
1.7600,-2.055882722
1.7650,-2.183474162
1.7700,-2.312712587
1.7750,-2.443636137
1.7800,-2.576468081
1.7850,-2.711066454
1.7900,-2.847732077
1.7950,-2.986248371
1.8000,-3.126719272
1.8050,-3.269319703
1.8100,-3.414013936
1.8150,-3.561142858
1.8200,-3.710656118
1.8250,-3.862779587
1.8300,-4.017641264
1.8350,-4.175135484
1.8400,-4.335459168
1.8450,-4.498602884
1.8500,-4.664842724
1.8550,-4.83415002
1.8600,-5.0067506
1.8650,-5.18254225
1.8700,-5.36167236
1.8750,-5.544100146
1.8800,-5.729846532
1.8850,-5.918927306
1.8900,-6.111413156
1.8950,-6.307082241
1.9000,-6.505896332
1.9050,-6.707923135
1.9100,-6.913172587
1.9150,-7.121725134
1.9200,-7.333497496
1.9250,-7.548471311
1.9300,-7.766452265
1.9350,-7.987822395
1.9400,-8.212424416
1.9450,-8.440199109
1.9500,-8.671043363
1.9550,-8.905131959
1.9600,-9.142312669
1.9650,-9.382615906
1.9700,-9.625827697
1.9750,-9.871916071
1.9800,-10.1210219
1.9850,-10.37324304
1.9900,-10.62858871
1.9950,-10.88724797
2.0000,-11.1491635
2.0050,-11.414266
2.0100,-11.68255322
2.0150,-11.9541135
2.0200,-12.22883153
2.0250,-12.50655364
2.0300,-12.787623
2.0350,-13.07178238
2.0400,-13.35916578
2.0450,-13.64944187
2.0500,-13.94293542
2.0550,-14.23959556
2.0600,-14.53923427
2.0650,-14.84179725
2.0700,-15.14740626
2.0750,-15.45590745
2.0800,-15.76693393
2.0850,-16.08056655
2.0900,-16.39650892
2.0950,-16.71476651
2.1000,-17.03517811
2.1050,-17.35754787
2.1100,-17.68168305
2.1150,-18.00747508
2.1200,-18.33486868
2.1250,-18.66393057
2.1300,-18.99480067
2.1350,-19.32744653
2.1400,-19.66192045
2.1450,-19.99829873
2.1500,-20.33642878
2.1550,-20.67636703
2.1600,-21.01831177
2.1650,-21.36227805
2.1700,-21.70813625
2.1750,-22.05573357
2.1800,-22.40520476
2.1850,-22.75642775
2.1900,-23.10945272
2.1950,-23.46456642
2.2000,-23.82150667
2.2050,-24.1802887
2.2100,-24.54097309
2.2150,-24.90364649
2.2200,-25.26811443
2.2250,-25.63448286
2.2300,-26.00278152
2.2350,-26.37261801
2.2400,-26.74403104
2.2450,-27.11704018
2.2500,-27.49161625
2.2550,-27.86793348
2.2600,-28.24602391
2.2650,-28.62609297
2.2700,-29.00826605
2.2750,-29.39274902
2.2800,-29.77953871
2.2850,-30.16860931
2.2900,-30.55981489
2.2950,-30.95314154
2.3000,-31.34889242
2.3050,-31.74694918
2.3100,-32.14736515
2.3150,-32.54994981
2.3200,-32.95476489
2.3250,-33.36191348
2.3300,-33.77124362
2.3350,-34.18282594
2.3400,-34.5966522
2.3450,-35.01302531
2.3500,-35.4315548
2.3550,-35.85222692
2.3600,-36.27539623
2.3650,-36.70098455
2.3700,-37.12868896
2.3750,-37.55852372
2.3800,-37.99067822
2.3850,-38.42515457
2.3900,-38.86201081
2.3950,-39.30151566
2.4000,-39.74352165
2.4050,-40.18805831
2.4100,-40.63505559
2.4150,-41.08456755
2.4200,-41.53668677
2.4250,-41.9910747
2.4300,-42.44777389
2.4350,-42.90700324
2.4400,-43.36880996
2.4450,-43.83337984
2.4500,-44.30072495
2.4550,-44.77087532
2.4600,-45.2434775
2.4650,-45.71857892
2.4700,-46.1960437
2.4750,-46.67598746
2.4800,-47.15813922
2.4850,-47.64210834
2.4900,-48.12799137
2.4950,-48.61520596
2.5000,-49.10396213
2.5050,-49.59426966
2.5100,-50.08564843
2.5150,-50.5780163
2.5200,-51.07107238
2.5250,-51.56466178
2.5300,-52.0583897
2.5350,-52.55214117
2.5400,-53.04593941
2.5450,-53.53953001
2.5500,-54.0328275
2.5550,-54.52544299
2.5600,-55.01730245
2.5650,-55.5082842
2.5700,-55.99824808
2.5750,-56.48706712
2.5800,-56.97480787
2.5850,-57.46132081
2.5900,-57.94677169
2.5950,-58.4307112
2.6000,-58.91293941
2.6050,-59.39317169
2.6100,-59.87127467
2.6150,-60.34721986
2.6200,-60.82092352
2.6250,-61.29222759
2.6300,-61.76096793
2.6350,-62.22720205
2.6400,-62.69084024
2.6450,-63.1518247
2.6500,-63.6101393
2.6550,-64.06611434
2.6600,-64.5197852
2.6650,-64.97120038
2.6700,-65.42046889
2.6750,-65.86749965
2.6800,-66.31265542
2.6850,-66.7561758
2.6900,-67.19846646
2.6950,-67.63946097
2.7000,-68.0794892
2.7050,-68.51874869
2.7100,-68.95756305
2.7150,-69.39635039
2.7200,-69.83530341
2.7250,-70.27512954
2.7300,-70.71584315
2.7350,-71.15752148
2.7400,-71.60053854
2.7450,-72.04501133
2.7500,-72.49112418
2.7550,-72.93910772
2.7600,-73.38922567
2.7650,-73.84133121
2.7700,-74.29553857
2.7750,-74.75169927
2.7800,-75.20970484
2.7850,-75.66998459
2.7900,-76.13239652
2.7950,-76.59689722
2.8000,-77.06335073
2.8050,-77.53121626
2.8100,-78.000529
2.8150,-78.47075722
2.8200,-78.94235365
2.8250,-79.41478997
2.8300,-79.88812696
2.8350,-80.36222585
2.8400,-80.83693425
2.8450,-81.31200199
2.8500,-81.78707599
2.8550,-82.26214289
2.8600,-82.7372121
2.8650,-83.21176745
2.8700,-83.68563816
2.8750,-84.15846059
2.8800,-84.63003235
2.8850,-85.09993844
2.8900,-85.56792319
2.8950,-86.03404746
2.9000,-86.49818785
2.9050,-86.96005036
2.9100,-87.41942643
2.9150,-87.87650408
2.9200,-88.33124125
2.9250,-88.78369381
2.9300,-89.23347028
2.9350,-89.68046613
2.9400,-90.12442019
2.9450,-90.56591048
2.9500,-91.00516189
2.9550,-91.44175383
2.9600,-91.87532793
2.9650,-92.30547066
2.9700,-92.73247469
2.9750,-93.15668354
2.9800,-93.57837822
2.9850,-93.99740383
2.9900,-94.41392002
2.9950,-94.82837388
3.0000,-95.24103786
3.0050,-95.65236275
3.0100,-96.06282546
3.0150,-96.47252677
3.0200,-96.88116636
3.0250,-97.28835339
3.0300,-97.69464407
3.0350,-98.10038974
3.0400,-98.50575384
3.0450,-98.91085174
3.0500,-99.31581293
3.0550,-99.72033051
3.0600,-100.1240247
3.0650,-100.5273582
3.0700,-100.9308643
3.0750,-101.3346328
3.0800,-101.738684
3.0850,-102.1428726
3.0900,-102.5475255
3.0950,-102.9526083
3.1000,-103.3581627
3.1050,-103.7646994
3.1100,-104.1721376
3.1150,-104.5805584
3.1200,-104.9897144
3.1250,-105.3997902
3.1300,-105.8106369
3.1350,-106.2218362
3.1400,-106.6331897
3.1450,-107.0449746
3.1500,-107.4571975
3.1550,-107.8696351
3.1600,-108.281594
3.1650,-108.6931032
3.1700,-109.1038519
3.1750,-109.5136569
3.1800,-109.9224264
3.1850,-110.3302464
3.1900,-110.7373662
3.1950,-111.1438078
3.2000,-111.5497928
3.2050,-111.9558279
3.2100,-112.3618314
3.2150,-112.7674504
3.2200,-113.1728309
3.2250,-113.5773415
3.2300,-113.9810799
3.2350,-114.3842853
3.2400,-114.7867229
3.2450,-115.188567
3.2500,-115.5897031
3.2550,-115.9895213
3.2600,-116.3878786
3.2650,-116.7853183
3.2700,-117.1817584
3.2750,-117.5770847
3.2800,-117.9703671
3.2850,-118.3611301
3.2900,-118.7490177
3.2950,-119.1336858
3.3000,-119.5154816
3.3050,-119.8942151
3.3100,-120.2696265
3.3150,-120.6418487
3.3200,-121.0115655
3.3250,-121.379214
3.3300,-121.7452002
3.3350,-122.1094996
3.3400,-122.4722694
3.3450,-122.8335847
3.3500,-123.1933215
3.3550,-123.5519709
3.3600,-123.9099989
3.3650,-124.2670938
3.3700,-124.6227026
3.3750,-124.9769995
3.3800,-125.3300977
3.3850,-125.681953
3.3900,-126.0322033
3.3950,-126.3808544
3.4000,-126.7276526
3.4050,-127.0725122
3.4100,-127.4157322
3.4150,-127.7573872
3.4200,-128.0974932
3.4250,-128.4362415
3.4300,-128.7734943
3.4350,-129.1096107
3.4400,-129.4444398
3.4450,-129.777892
3.4500,-130.1098442
3.4550,-130.4404911
3.4600,-130.7700709
3.4650,-131.0983373
3.4700,-131.4251471
3.4750,-131.7507182
3.4800,-132.0749512
3.4850,-132.3972845
3.4900,-132.7170083
3.4950,-133.0337777
3.5000,-133.3472697
3.5050,-133.657142
3.5100,-133.9632036
3.5150,-134.2651157
3.5200,-134.5621652
3.5250,-134.854216
3.5300,-135.1417608
3.5350,-135.4246989
3.5400,-135.703187
3.5450,-135.9764538
3.5500,-136.2447197
3.5550,-136.5086796
3.5600,-136.7686222
3.5650,-137.0244126
3.5700,-137.2759129
3.5750,-137.5230059
3.5800,-137.7662202
3.5850,-138.0060453
3.5900,-138.2428255
3.5950,-138.4767542
3.6000,-138.7076935
3.6050,-138.9360138
3.6100,-139.1620349
3.6150,-139.3857798
3.6200,-139.6071458
3.6250,-139.8262115
3.6300,-140.0427426
3.6350,-140.2571003
3.6400,-140.469271
3.6450,-140.679165
3.6500,-140.886688
3.6550,-141.0917089
3.6600,-141.2940594
3.6650,-141.4940168
3.6700,-141.6918046
3.6750,-141.8876258
3.6800,-142.0817427
3.6850,-142.2744278
3.6900,-142.465758
3.6950,-142.656001
3.7000,-142.8454855
3.7050,-143.0341682
3.7100,-143.2221247
3.7150,-143.4094514
3.7200,-143.5962689
3.7250,-143.7826656
3.7300,-143.968766
3.7350,-144.1545615
3.7400,-144.3399734
3.7450,-144.5246363
3.7500,-144.7082931
3.7550,-144.8905651
3.7600,-145.070949
3.7650,-145.2494132
3.7700,-145.4256726
3.7750,-145.599399
3.7800,-145.7704245
3.7850,-145.9385346
3.7900,-146.1038069
3.7950,-146.2660195
3.8000,-146.4249191
3.8050,-146.5803694
3.8100,-146.7324469
3.8150,-146.8812578
3.8200,-147.0271672
3.8250,-147.1703742
3.8300,-147.3107904
3.8350,-147.4485692
3.8400,-147.5838993
3.8450,-147.7170703
3.8500,-147.8480675
3.8550,-147.9771786
3.8600,-148.1045114
3.8650,-148.2303187
3.8700,-148.3549842
3.8750,-148.478645
3.8800,-148.6012476
3.8850,-148.7227846
3.8900,-148.8428934
3.8950,-148.9615587
3.9000,-149.0786483
3.9050,-149.1941596
3.9100,-149.3080665
3.9150,-149.42029
3.9200,-149.5310885
3.9250,-149.6406475
3.9300,-149.749203
3.9350,-149.856711
3.9400,-149.9634386
3.9450,-150.0696467
3.9500,-150.1751992
3.9550,-150.2801593
3.9600,-150.3847205
3.9650,-150.4889094
3.9700,-150.5925929
3.9750,-150.6958461
3.9800,-150.798686
3.9850,-150.9010437
3.9900,-151.0032956
3.9950,-151.1054715
4.0000,-151.2075178
4.0050,-151.3093147
4.0100,-151.4109452
4.0150,-151.512357
4.0200,-151.6133159
4.0250,-151.7136209
4.0300,-151.8130877
4.0350,-151.911685
4.0400,-152.0092829
4.0450,-152.1059967
4.0500,-152.2018822
4.0550,-152.2967814
4.0600,-152.3909186
4.0650,-152.4838955
4.0700,-152.5759524
4.0750,-152.6669095
4.0800,-152.7567033
4.0850,-152.8454954
4.0900,-152.9331262
4.0950,-153.0197523
4.1000,-153.1053199
4.1050,-153.1900483
4.1100,-153.2740242
4.1150,-153.3573221
4.1200,-153.4400803
4.1250,-153.5224297
4.1300,-153.6045508
4.1350,-153.6865425
4.1400,-153.7685098
4.1450,-153.8507331
4.1500,-153.933221
4.1550,-154.0159436
4.1600,-154.0991528
4.1650,-154.1828447
4.1700,-154.2669017
4.1750,-154.3514468
4.1800,-154.4366424
4.1850,-154.522455
4.1900,-154.6091375
4.1950,-154.6968338
4.2000,-154.7855492
4.2050,-154.8751418
4.2100,-154.9656795
4.2150,-155.0571927
4.2200,-155.1493755
4.2250,-155.2420446
4.2300,-155.3350111
4.2350,-155.4282954
4.2400,-155.5215306
4.2450,-155.6144327
4.2500,-155.7070877
4.2550,-155.7994066
4.2600,-155.8913429
4.2650,-155.9826921
4.2700,-156.0735928
4.2750,-156.1637916
4.2800,-156.2532405
4.2850,-156.341789
4.2900,-156.4293037
4.2950,-156.5156202
4.3000,-156.6007098
4.3050,-156.684683
4.3100,-156.7672994
4.3150,-156.8483718
4.3200,-156.9278521
4.3250,-157.0056492
4.3300,-157.0817183
4.3350,-157.1557411
4.3400,-157.2277426
4.3450,-157.2974548
4.3500,-157.3647843
4.3550,-157.4296371
4.3600,-157.4918003
4.3650,-157.551368
4.3700,-157.6081395
4.3750,-157.6621393
4.3800,-157.7131431
4.3850,-157.7611189
4.3900,-157.8059414
4.3950,-157.8473031
4.4000,-157.8854096
4.4050,-157.920173
4.4100,-157.9516453
4.4150,-157.9798191
4.4200,-158.0046582
4.4250,-158.0262274
4.4300,-158.0443692
4.4350,-158.0591255
4.4400,-158.0705837
4.4450,-158.0784687
4.4500,-158.0829684
4.4550,-158.0839726
4.4600,-158.0814189
4.4650,-158.0750811
4.4700,-158.0650945
4.4750,-158.0515108
4.4800,-158.0342166
4.4850,-158.0133291
4.4900,-157.9889697
4.4950,-157.9609673
4.5000,-157.9295345
4.5050,-157.8946355
4.5100,-157.8562622
4.5150,-157.8145009
4.5200,-157.7695826
4.5250,-157.7215687
4.5300,-157.6705546
4.5350,-157.6165074
4.5400,-157.5597703
4.5450,-157.5006113
4.5500,-157.4391498
4.5550,-157.375705
4.5600,-157.3103989
4.5650,-157.2433486
4.5700,-157.1747329
4.5750,-157.1047314
4.5800,-157.0333729
4.5850,-156.9608003
4.5900,-156.8867915
4.5950,-156.811274
4.6000,-156.7344656
4.6050,-156.6561166
4.6100,-156.5762744
4.6150,-156.4951242
4.6200,-156.412557
4.6250,-156.3285352
4.6300,-156.2430012
4.6350,-156.1558978
4.6400,-156.0671574
4.6450,-155.9767897
4.6500,-155.8845898
4.6550,-155.7904152
4.6600,-155.6943151
4.6650,-155.5961474
4.6700,-155.4957696
4.6750,-155.3931687
4.6800,-155.2881428
4.6850,-155.1807024
4.6900,-155.0708502
4.6950,-154.9588333
4.7000,-154.8445501
4.7050,-154.7277443
4.7100,-154.6085243
4.7150,-154.486869
4.7200,-154.3626299
4.7250,-154.2358685
4.7300,-154.1064955
4.7350,-153.9744333
4.7400,-153.8395969
4.7450,-153.7022709
4.7500,-153.5621366
4.7550,-153.4194587
4.7600,-153.2742619
4.7650,-153.1267372
4.7700,-152.9768934
4.7750,-152.8248414
4.7800,-152.6707068
4.7850,-152.5144813
4.7900,-152.3559723
4.7950,-152.1954517
4.8000,-152.0326431
4.8050,-151.8677218
4.8100,-151.7007454
4.8150,-151.531818
4.8200,-151.3608147
4.8250,-151.1877225
4.8300,-151.0125312
4.8350,-150.8353499
4.8400,-150.655983
4.8450,-150.474375
4.8500,-150.2904636
4.8550,-150.1040211
4.8600,-149.9150856
4.8650,-149.7237222
4.8700,-149.5295078
4.8750,-149.3325435
4.8800,-149.1327192
4.8850,-148.9299638
4.8900,-148.7244691
4.8950,-148.5161527
4.9000,-148.3048507
4.9050,-148.090725
4.9100,-147.8736948
4.9150,-147.6535874
4.9200,-147.4306515
4.9250,-147.2048101
4.9300,-146.9760709
4.9350,-146.7445166
4.9400,-146.5100463
4.9450,-146.2726429
4.9500,-146.0324388
4.9550,-145.7897645
4.9600,-145.5444835
4.9650,-145.2968994
4.9700,-145.0471253
4.9750,-144.7951798
4.9800,-144.5412161
4.9850,-144.2853432
4.9900,-144.0277651
4.9950,-143.768393
5.0000,-143.5072369
5.0050,-143.2441874
5.0100,-142.9790207
5.0150,-142.711588
5.0200,-142.4418727
5.0250,-142.1698428
5.0300,-141.8954523
5.0350,-141.6187069
5.0400,-141.3395556
5.0450,-141.0579107
5.0500,-140.7740614
5.0550,-140.488194
5.0600,-140.2002537
