type,name,time_units,begin_time,frequency,count,units
signal,"Noraxon Ultium-RT BICEPS BR.","s",0.00000,2000,53480,"uV"

time,value
0.00000,-1.005723101
0.00050,0.2150545302
0.00100,0.5202489379
0.00150,-0.09013987754
0.00200,-0.7005286929
0.00250,-0.09013987754
0.00300,0.5202489379
0.00350,0.2150545302
0.00400,0.2150545302
0.00450,0.8254433456
0.00500,1.130637753
0.00550,0.2150545302
0.00600,-0.09013987754
0.00650,0.5202489379
0.00700,1.741026569
0.00750,1.741026569
0.00800,1.130637753
0.00850,1.435832161
0.00900,1.741026569
0.00950,0.8254433456
0.01000,-0.3953342852
0.01050,-0.3953342852
0.01100,0.5202489379
0.01150,1.130637753
0.01200,0.2150545302
0.01250,-1.005723101
0.01300,-1.616111916
0.01350,-1.310917508
0.01400,-0.7005286929
0.01450,-0.09013987754
0.01500,-0.09013987754
0.01550,0.2150545302
0.01600,-0.09013987754
0.01650,-0.3953342852
0.01700,-1.005723101
0.01750,-1.005723101
0.01800,-0.3953342852
0.01850,0.2150545302
0.01900,0.8254433456
0.01950,0.5202489379
0.02000,-0.09013987754
0.02050,-0.09013987754
0.02100,-0.09013987754
0.02150,-0.09013987754
0.02200,-0.7005286929
0.02250,-0.7005286929
0.02300,-0.09013987754
0.02350,0.8254433456
0.02400,0.8254433456
0.02450,0.2150545302
0.02500,0.2150545302
0.02550,0.5202489379
0.02600,0.8254433456
0.02650,0.8254433456
0.02700,0.5202489379
0.02750,0.5202489379
0.02800,-0.09013987754
0.02850,-0.3953342852
0.02900,-0.7005286929
0.02950,-0.3953342852
0.03000,-0.3953342852
0.03050,-0.09013987754
0.03100,-0.09013987754
0.03150,-0.09013987754
0.03200,-0.09013987754
0.03250,0.2150545302
0.03300,0.5202489379
0.03350,1.130637753
0.03400,1.130637753
0.03450,0.5202489379
0.03500,-0.09013987754
0.03550,-0.3953342852
0.03600,-0.7005286929
0.03650,-0.09013987754
0.03700,0.8254433456
0.03750,0.8254433456
0.03800,-0.3953342852
0.03850,-1.310917508
0.03900,-1.310917508
0.03950,-0.3953342852
0.04000,-0.3953342852
0.04050,-0.7005286929
0.04100,-0.09013987754
0.04150,1.130637753
0.04200,1.130637753
0.04250,-0.09013987754
0.04300,-1.616111916
0.04350,-1.310917508
0.04400,-0.3953342852
0.04450,0.2150545302
0.04500,-0.09013987754
0.04550,-0.3953342852
0.04600,-1.921306324
0.04650,-3.142083955
0.04700,-2.226500731
0.04750,-0.09013987754
0.04800,0.8254433456
0.04850,0.2150545302
0.04900,-0.3953342852
0.04950,-0.09013987754
0.05000,0.5202489379
0.05050,-0.09013987754
0.05100,-1.310917508
0.05150,-1.616111916
0.05200,-0.3953342852
0.05250,0.8254433456
0.05300,1.130637753
0.05350,0.5202489379
0.05400,-0.09013987754
0.05450,-0.7005286929
0.05500,-0.3953342852
0.05550,0.2150545302
0.05600,-0.09013987754
0.05650,-1.310917508
0.05700,-1.921306324
0.05750,-0.7005286929
0.05800,-0.09013987754
0.05850,-0.3953342852
0.05900,-1.921306324
0.05950,-1.616111916
0.06000,-0.7005286929
0.06050,-1.005723101
0.06100,-1.616111916
0.06150,-0.3953342852
0.06200,1.435832161
0.06250,1.741026569
0.06300,-0.09013987754
0.06350,-1.921306324
0.06400,-1.005723101
0.06450,-0.09013987754
0.06500,-0.3953342852
0.06550,-1.310917508
0.06600,-0.7005286929
0.06650,0.5202489379
0.06700,1.130637753
0.06750,0.8254433456
0.06800,0.8254433456
0.06850,0.8254433456
0.06900,0.2150545302
0.06950,-1.005723101
0.07000,-1.310917508
0.07050,-0.7005286929
0.07100,-0.09013987754
0.07150,-0.7005286929
0.07200,-1.921306324
0.07250,-2.226500731
0.07300,-1.310917508
0.07350,-0.09013987754
0.07400,-0.09013987754
0.07450,-0.7005286929
0.07500,-0.7005286929
0.07550,-0.09013987754
0.07600,0.8254433456
0.07650,0.2150545302
0.07700,-0.7005286929
0.07750,-0.3953342852
0.07800,0.5202489379
0.07850,0.5202489379
0.07900,-0.09013987754
0.07950,-0.09013987754
0.08000,0.2150545302
0.08050,0.5202489379
0.08100,-0.3953342852
0.08150,-0.7005286929
0.08200,-0.09013987754
0.08250,-0.09013987754
0.08300,-1.005723101
0.08350,-1.616111916
0.08400,-0.09013987754
0.08450,1.130637753
0.08500,1.130637753
0.08550,-0.09013987754
0.08600,-0.3953342852
0.08650,-0.09013987754
0.08700,0.2150545302
0.08750,1.130637753
0.08800,1.435832161
0.08850,0.2150545302
0.08900,-1.310917508
0.08950,-1.921306324
0.09000,-0.3953342852
0.09050,0.5202489379
0.09100,0.2150545302
0.09150,-0.7005286929
0.09200,-1.616111916
0.09250,-1.616111916
0.09300,-1.005723101
0.09350,-0.09013987754
0.09400,0.2150545302
0.09450,-0.09013987754
0.09500,-0.09013987754
0.09550,-0.09013987754
0.09600,0.2150545302
0.09650,-1.005723101
0.09700,-3.142083955
0.09750,-2.531695139
0.09800,-0.09013987754
0.09850,1.435832161
0.09900,0.5202489379
0.09950,-0.3953342852
0.10000,-0.09013987754
0.10050,0.5202489379
0.10100,0.2150545302
0.10150,-0.09013987754
0.10200,0.8254433456
0.10250,1.435832161
0.10300,0.2150545302
0.10350,-0.7005286929
0.10400,-0.3953342852
0.10450,0.2150545302
0.10500,-0.09013987754
0.10550,-0.09013987754
0.10600,-0.09013987754
0.10650,0.2150545302
0.10700,0.2150545302
0.10750,-0.09013987754
0.10800,0.5202489379
0.10850,1.435832161
0.10900,1.741026569
0.10950,1.130637753
0.11000,0.5202489379
0.11050,0.2150545302
0.11100,0.5202489379
0.11150,0.5202489379
0.11200,0.8254433456
0.11250,0.5202489379
0.11300,-0.09013987754
0.11350,-0.09013987754
0.11400,-0.09013987754
0.11450,-0.09013987754
0.11500,-1.005723101
0.11550,-1.921306324
0.11600,-1.310917508
0.11650,0.2150545302
0.11700,1.130637753
0.11750,0.2150545302
0.11800,-1.005723101
0.11850,-1.005723101
0.11900,-0.09013987754
0.11950,-0.09013987754
0.12000,-0.3953342852
0.12050,-1.310917508
0.12100,-1.005723101
0.12150,-0.09013987754
0.12200,0.2150545302
0.12250,0.2150545302
0.12300,-0.3953342852
0.12350,-0.3953342852
0.12400,-0.09013987754
0.12450,0.8254433456
0.12500,0.2150545302
0.12550,-0.7005286929
0.12600,-1.616111916
0.12650,-1.921306324
0.12700,-1.310917508
0.12750,-0.7005286929
0.12800,-1.005723101
0.12850,-1.310917508
0.12900,-0.7005286929
0.12950,0.2150545302
0.13000,1.130637753
0.13050,0.8254433456
0.13100,-0.3953342852
0.13150,-1.310917508
0.13200,-1.005723101
0.13250,-0.09013987754
0.13300,-0.09013987754
0.13350,-0.09013987754
0.13400,-0.09013987754
0.13450,-0.09013987754
0.13500,-0.09013987754
0.13550,0.2150545302
0.13600,0.8254433456
0.13650,0.5202489379
0.13700,-0.3953342852
0.13750,-1.616111916
0.13800,-1.310917508
0.13850,-0.7005286929
0.13900,-0.7005286929
0.13950,-0.7005286929
0.14000,-0.09013987754
0.14050,0.2150545302
0.14100,0.5202489379
0.14150,0.5202489379
0.14200,0.5202489379
0.14250,-0.09013987754
0.14300,-0.7005286929
0.14350,-1.005723101
0.14400,-0.09013987754
0.14450,0.5202489379
0.14500,0.5202489379
0.14550,0.2150545302
0.14600,0.5202489379
0.14650,1.435832161
0.14700,1.435832161
0.14750,0.5202489379
0.14800,-0.09013987754
0.14850,-0.7005286929
0.14900,-0.09013987754
0.14950,0.5202489379
0.15000,1.130637753
0.15050,1.130637753
0.15100,0.5202489379
0.15150,0.2150545302
0.15200,1.130637753
0.15250,1.435832161
0.15300,0.8254433456
0.15350,0.2150545302
0.15400,0.5202489379
0.15450,0.5202489379
0.15500,-0.09013987754
0.15550,-0.7005286929
0.15600,-1.005723101
0.15650,-0.3953342852
0.15700,-0.09013987754
0.15750,0.2150545302
0.15800,0.8254433456
0.15850,1.130637753
0.15900,0.2150545302
0.15950,-0.3953342852
0.16000,-0.7005286929
0.16050,-0.09013987754
0.16100,0.5202489379
0.16150,0.2150545302
0.16200,-0.09013987754
0.16250,0.5202489379
0.16300,0.5202489379
0.16350,-0.09013987754
0.16400,-1.005723101
0.16450,-0.7005286929
0.16500,0.2150545302
0.16550,0.8254433456
0.16600,0.5202489379
0.16650,0.2150545302
0.16700,-0.09013987754
0.16750,-0.7005286929
0.16800,-1.310917508
0.16850,-1.310917508
0.16900,-0.7005286929
0.16950,-0.09013987754
0.17000,-0.3953342852
0.17050,-0.3953342852
0.17100,-0.09013987754
0.17150,0.5202489379
0.17200,1.435832161
0.17250,1.741026569
0.17300,1.130637753
0.17350,0.2150545302
0.17400,-0.09013987754
0.17450,-0.09013987754
0.17500,-0.09013987754
0.17550,-1.005723101
0.17600,-1.616111916
0.17650,-1.005723101
0.17700,0.2150545302
0.17750,0.5202489379
0.17800,-0.7005286929
0.17850,-1.921306324
0.17900,-1.616111916
0.17950,-0.7005286929
0.18000,-0.3953342852
0.18050,-0.3953342852
0.18100,0.2150545302
0.18150,0.8254433456
0.18200,-0.09013987754
0.18250,-1.310917508
0.18300,-1.616111916
0.18350,-1.005723101
0.18400,-0.3953342852
0.18450,-1.005723101
0.18500,-1.005723101
0.18550,-0.3953342852
0.18600,0.2150545302
0.18650,0.5202489379
0.18700,0.2150545302
0.18750,0.5202489379
0.18800,0.5202489379
0.18850,0.5202489379
0.18900,0.2150545302
0.18950,0.2150545302
0.19000,-0.09013987754
0.19050,-0.09013987754
0.19100,-0.09013987754
0.19150,-0.09013987754
0.19200,-0.09013987754
0.19250,-0.09013987754
0.19300,-0.09013987754
0.19350,-0.09013987754
0.19400,-0.09013987754
0.19450,0.2150545302
0.19500,1.130637753
0.19550,1.435832161
0.19600,0.2150545302
0.19650,-1.310917508
0.19700,-1.616111916
0.19750,-0.3953342852
0.19800,0.5202489379
0.19850,0.5202489379
0.19900,-0.3953342852
0.19950,-1.005723101
0.20000,-0.7005286929
0.20050,-0.09013987754
0.20100,-0.3953342852
0.20150,-1.005723101
0.20200,-0.7005286929
0.20250,-0.09013987754
0.20300,0.8254433456
0.20350,1.130637753
0.20400,1.130637753
0.20450,0.8254433456
0.20500,0.5202489379
0.20550,-0.09013987754
0.20600,-0.09013987754
0.20650,0.5202489379
0.20700,0.8254433456
0.20750,-0.09013987754
0.20800,-1.310917508
0.20850,-1.921306324
0.20900,-0.7005286929
0.20950,0.2150545302
0.21000,0.8254433456
0.21050,0.2150545302
0.21100,-0.3953342852
0.21150,-1.005723101
0.21200,-0.7005286929
0.21250,-0.3953342852
0.21300,-0.3953342852
0.21350,-0.3953342852
0.21400,-0.3953342852
0.21450,-0.09013987754
0.21500,-0.09013987754
0.21550,-0.09013987754
0.21600,-0.09013987754
0.21650,0.2150545302
0.21700,0.8254433456
0.21750,0.5202489379
0.21800,-0.3953342852
0.21850,-0.3953342852
0.21900,0.2150545302
0.21950,1.130637753
0.22000,0.5202489379
0.22050,-0.09013987754
0.22100,-0.09013987754
0.22150,1.130637753
0.22200,2.046220976
0.22250,1.130637753
0.22300,-0.7005286929
0.22350,-1.616111916
0.22400,-0.7005286929
0.22450,-0.09013987754
0.22500,-0.09013987754
0.22550,-0.09013987754
0.22600,-0.09013987754
0.22650,0.8254433456
0.22700,0.8254433456
0.22750,-0.09013987754
0.22800,-1.310917508
0.22850,-1.005723101
0.22900,-0.09013987754
0.22950,0.5202489379
0.23000,0.8254433456
0.23050,1.130637753
0.23100,0.5202489379
0.23150,-0.3953342852
0.23200,-1.310917508
0.23250,-1.310917508
0.23300,-0.7005286929
0.23350,-0.3953342852
0.23400,-0.3953342852
0.23450,-0.09013987754
0.23500,0.2150545302
0.23550,0.5202489379
0.23600,0.5202489379
0.23650,0.5202489379
0.23700,0.8254433456
0.23750,0.8254433456
0.23800,0.2150545302
0.23850,0.5202489379
0.23900,0.8254433456
0.23950,0.8254433456
0.24000,-0.3953342852
0.24050,-1.310917508
0.24100,-1.005723101
0.24150,0.2150545302
0.24200,1.741026569
0.24250,2.351415384
0.24300,2.046220976
0.24350,0.8254433456
0.24400,-1.005723101
0.24450,-2.226500731
0.24500,-1.310917508
0.24550,-0.09013987754
0.24600,0.2150545302
0.24650,-0.3953342852
0.24700,-1.005723101
0.24750,-0.09013987754
0.24800,0.8254433456
0.24850,0.8254433456
0.24900,-0.09013987754
0.24950,-1.310917508
0.25000,-1.616111916
0.25050,-1.005723101
0.25100,-0.09013987754
0.25150,0.5202489379
0.25200,0.8254433456
0.25250,0.5202489379
0.25300,-0.3953342852
0.25350,-1.005723101
0.25400,-0.7005286929
0.25450,-0.3953342852
0.25500,-0.09013987754
0.25550,-0.7005286929
0.25600,-1.310917508
0.25650,-0.7005286929
0.25700,-0.3953342852
0.25750,-0.3953342852
0.25800,-1.310917508
0.25850,-1.616111916
0.25900,-0.7005286929
0.25950,0.2150545302
0.26000,0.2150545302
0.26050,-0.7005286929
0.26100,-1.310917508
0.26150,-0.7005286929
0.26200,0.5202489379
0.26250,1.435832161
0.26300,1.435832161
0.26350,0.5202489379
0.26400,-0.09013987754
0.26450,-0.09013987754
0.26500,0.2150545302
0.26550,0.5202489379
0.26600,0.2150545302
0.26650,-0.09013987754
0.26700,0.5202489379
0.26750,1.130637753
0.26800,0.8254433456
0.26850,-0.3953342852
0.26900,-1.616111916
0.26950,-1.005723101
0.27000,-0.09013987754
0.27050,-0.09013987754
0.27100,-0.7005286929
0.27150,-0.09013987754
0.27200,1.130637753
0.27250,1.435832161
0.27300,-0.09013987754
0.27350,-1.921306324
0.27400,-1.616111916
0.27450,-0.09013987754
0.27500,-0.09013987754
0.27550,-0.3953342852
0.27600,-0.3953342852
0.27650,-0.09013987754
0.27700,0.5202489379
0.27750,0.2150545302
0.27800,0.5202489379
0.27850,1.130637753
0.27900,1.130637753
0.27950,-0.09013987754
0.28000,-1.310917508
0.28050,-1.310917508
0.28100,-0.3953342852
0.28150,0.2150545302
0.28200,0.5202489379
0.28250,0.8254433456
0.28300,0.2150545302
0.28350,-0.3953342852
0.28400,-1.310917508
0.28450,-1.005723101
0.28500,-0.09013987754
0.28550,0.5202489379
0.28600,0.5202489379
0.28650,0.2150545302
0.28700,0.2150545302
0.28750,0.2150545302
0.28800,-0.09013987754
0.28850,-0.7005286929
0.28900,-1.005723101
0.28950,-0.3953342852
0.29000,-0.09013987754
0.29050,0.2150545302
0.29100,-0.09013987754
0.29150,-0.3953342852
0.29200,-0.3953342852
0.29250,-0.7005286929
0.29300,-0.7005286929
0.29350,-0.09013987754
0.29400,0.2150545302
0.29450,0.2150545302
0.29500,-0.09013987754
0.29550,-0.09013987754
0.29600,-0.09013987754
0.29650,-0.09013987754
0.29700,-0.7005286929
0.29750,-1.310917508
0.29800,-1.005723101
0.29850,-0.3953342852
0.29900,-0.3953342852
0.29950,-1.310917508
0.30000,-1.310917508
0.30050,-0.09013987754
0.30100,0.5202489379
0.30150,-0.3953342852
0.30200,-1.616111916
0.30250,-1.921306324
0.30300,-1.005723101
0.30350,-0.09013987754
0.30400,-0.09013987754
0.30450,-0.09013987754
0.30500,0.2150545302
0.30550,0.5202489379
0.30600,0.5202489379
0.30650,0.5202489379
0.30700,0.2150545302
0.30750,-0.09013987754
0.30800,-0.7005286929
0.30850,-1.005723101
0.30900,-0.09013987754
0.30950,0.5202489379
0.31000,1.130637753
0.31050,0.5202489379
0.31100,-0.09013987754
0.31150,-0.09013987754
0.31200,-0.09013987754
0.31250,0.5202489379
0.31300,0.8254433456
0.31350,0.5202489379
0.31400,-0.09013987754
0.31450,-1.005723101
0.31500,-0.7005286929
0.31550,0.2150545302
0.31600,0.8254433456
0.31650,0.5202489379
0.31700,0.5202489379
0.31750,1.130637753
0.31800,0.8254433456
0.31850,0.2150545302
0.31900,-0.09013987754
0.31950,0.2150545302
0.32000,0.8254433456
0.32050,1.130637753
0.32100,0.2150545302
0.32150,-0.3953342852
0.32200,-1.005723101
0.32250,-0.09013987754
0.32300,0.5202489379
0.32350,1.130637753
0.32400,0.5202489379
0.32450,-0.09013987754
0.32500,-0.09013987754
0.32550,0.2150545302
0.32600,0.2150545302
0.32650,-0.09013987754
0.32700,-0.09013987754
0.32750,-0.09013987754
0.32800,-0.09013987754
0.32850,0.2150545302
0.32900,0.5202489379
0.32950,0.5202489379
0.33000,-0.3953342852
0.33050,-1.921306324
0.33100,-1.921306324
0.33150,-0.7005286929
0.33200,-0.09013987754
0.33250,0.2150545302
0.33300,-0.09013987754
0.33350,-0.09013987754
0.33400,-0.09013987754
0.33450,-0.09013987754
0.33500,-0.09013987754
0.33550,-0.09013987754
0.33600,-0.3953342852
0.33650,-0.7005286929
0.33700,-0.3953342852
0.33750,-0.09013987754
0.33800,0.5202489379
0.33850,0.2150545302
0.33900,-0.09013987754
0.33950,-0.7005286929
0.34000,-1.310917508
0.34050,-1.310917508
0.34100,-0.3953342852
0.34150,0.5202489379
0.34200,0.8254433456
0.34250,0.5202489379
0.34300,0.5202489379
0.34350,0.5202489379
0.34400,-0.09013987754
0.34450,-0.3953342852
0.34500,-0.09013987754
0.34550,0.5202489379
0.34600,0.2150545302
0.34650,-0.09013987754
0.34700,0.5202489379
0.34750,1.741026569
0.34800,1.741026569
0.34850,0.2150545302
0.34900,-0.7005286929
0.34950,-0.09013987754
0.35000,0.8254433456
0.35050,0.5202489379
0.35100,-0.09013987754
0.35150,-0.09013987754
0.35200,0.2150545302
0.35250,-0.09013987754
0.35300,-0.7005286929
0.35350,-1.005723101
0.35400,-0.3953342852
0.35450,0.2150545302
0.35500,0.5202489379
0.35550,0.2150545302
0.35600,-0.09013987754
0.35650,-0.09013987754
0.35700,-0.3953342852
0.35750,-0.3953342852
0.35800,-0.3953342852
0.35850,-0.7005286929
0.35900,-0.7005286929
0.35950,-0.3953342852
0.36000,-0.09013987754
0.36050,-0.09013987754
0.36100,-0.09013987754
0.36150,-0.3953342852
0.36200,-0.09013987754
0.36250,0.2150545302
0.36300,0.8254433456
0.36350,0.5202489379
0.36400,-0.3953342852
0.36450,-1.310917508
0.36500,-1.005723101
0.36550,-0.09013987754
0.36600,0.8254433456
0.36650,-0.09013987754
0.36700,-1.005723101
0.36750,-1.310917508
0.36800,-0.7005286929
0.36850,-0.09013987754
0.36900,-0.09013987754
0.36950,-0.3953342852
0.37000,-0.09013987754
0.37050,-0.09013987754
0.37100,-0.09013987754
0.37150,-0.09013987754
0.37200,-0.09013987754
0.37250,0.2150545302
0.37300,-0.09013987754
0.37350,-0.3953342852
0.37400,-0.3953342852
0.37450,-0.09013987754
0.37500,-0.09013987754
0.37550,-1.005723101
0.37600,-1.310917508
0.37650,-0.7005286929
0.37700,-0.09013987754
0.37750,-0.3953342852
0.37800,-1.310917508
0.37850,-1.616111916
0.37900,-1.310917508
0.37950,-0.7005286929
0.38000,-0.3953342852
0.38050,-0.09013987754
0.38100,0.5202489379
0.38150,0.5202489379
0.38200,-0.09013987754
0.38250,-1.005723101
0.38300,-0.3953342852
0.38350,0.8254433456
0.38400,2.046220976
0.38450,1.130637753
0.38500,-0.3953342852
0.38550,-0.7005286929
0.38600,-0.09013987754
0.38650,0.2150545302
0.38700,-0.09013987754
0.38750,-0.09013987754
0.38800,0.8254433456
0.38850,1.130637753
0.38900,-0.09013987754
0.38950,-1.005723101
0.39000,-0.7005286929
0.39050,-0.09013987754
0.39100,-0.7005286929
0.39150,-1.616111916
0.39200,-0.7005286929
0.39250,0.5202489379
0.39300,0.8254433456
0.39350,-0.3953342852
0.39400,-0.7005286929
0.39450,0.2150545302
0.39500,0.5202489379
0.39550,-0.09013987754
0.39600,-0.3953342852
0.39650,-0.09013987754
0.39700,-0.09013987754
0.39750,-1.005723101
0.39800,-1.616111916
0.39850,-1.310917508
0.39900,-0.09013987754
0.39950,-0.09013987754
0.40000,-0.09013987754
0.40050,-0.7005286929
0.40100,-1.310917508
0.40150,-1.616111916
0.40200,-1.310917508
0.40250,-0.09013987754
0.40300,-0.09013987754
0.40350,-1.005723101
0.40400,-1.616111916
0.40450,-0.3953342852
0.40500,0.5202489379
0.40550,0.5202489379
0.40600,-0.09013987754
0.40650,0.2150545302
0.40700,0.8254433456
0.40750,0.2150545302
0.40800,-1.310917508
0.40850,-1.921306324
0.40900,-1.616111916
0.40950,-0.7005286929
0.41000,-0.7005286929
0.41050,-1.005723101
0.41100,-0.3953342852
0.41150,-0.09013987754
0.41200,0.2150545302
0.41250,-0.09013987754
0.41300,-0.09013987754
0.41350,-0.09013987754
0.41400,-0.3953342852
0.41450,-0.09013987754
0.41500,0.2150545302
0.41550,0.5202489379
0.41600,0.2150545302
0.41650,-0.09013987754
0.41700,0.2150545302
0.41750,0.5202489379
0.41800,0.8254433456
0.41850,0.5202489379
0.41900,-0.09013987754
0.41950,-0.09013987754
0.42000,0.2150545302
0.42050,0.5202489379
0.42100,0.2150545302
0.42150,-0.09013987754
0.42200,-1.005723101
0.42250,-1.005723101
0.42300,-0.7005286929
0.42350,-1.005723101
0.42400,-1.310917508
0.42450,-1.005723101
0.42500,0.2150545302
0.42550,1.130637753
0.42600,0.8254433456
0.42650,-0.09013987754
0.42700,-0.7005286929
0.42750,-0.09013987754
0.42800,0.2150545302
0.42850,0.5202489379
0.42900,0.8254433456
0.42950,1.435832161
0.43000,0.8254433456
0.43050,-0.3953342852
0.43100,-0.3953342852
0.43150,0.2150545302
0.43200,0.5202489379
0.43250,-0.7005286929
0.43300,-2.531695139
0.43350,-1.616111916
0.43400,0.2150545302
0.43450,0.8254433456
0.43500,-0.3953342852
0.43550,-1.310917508
0.43600,-1.005723101
0.43650,-0.3953342852
0.43700,-0.7005286929
0.43750,-0.7005286929
0.43800,-0.09013987754
0.43850,1.130637753
0.43900,1.435832161
0.43950,1.130637753
0.44000,1.435832161
0.44050,1.741026569
0.44100,1.435832161
0.44150,0.5202489379
0.44200,-0.09013987754
0.44250,-0.3953342852
0.44300,-0.3953342852
0.44350,-0.09013987754
0.44400,-0.09013987754
0.44450,-0.09013987754
0.44500,-0.09013987754
0.44550,0.2150545302
0.44600,0.8254433456
0.44650,1.130637753
0.44700,0.8254433456
0.44750,0.5202489379
0.44800,0.5202489379
0.44850,0.2150545302
0.44900,-0.09013987754
0.44950,-1.310917508
0.45000,-1.616111916
0.45050,-1.005723101
0.45100,0.8254433456
0.45150,1.741026569
0.45200,1.130637753
0.45250,-0.3953342852
0.45300,-1.005723101
0.45350,-0.3953342852
0.45400,-0.09013987754
0.45450,-0.7005286929
0.45500,-0.3953342852
0.45550,0.2150545302
0.45600,1.130637753
0.45650,-0.09013987754
0.45700,-0.3953342852
0.45750,0.2150545302
0.45800,2.046220976
0.45850,1.741026569
0.45900,-0.09013987754
0.45950,-0.7005286929
0.46000,-0.09013987754
0.46050,0.8254433456
0.46100,0.8254433456
0.46150,0.5202489379
0.46200,1.130637753
0.46250,1.741026569
0.46300,1.435832161
0.46350,0.5202489379
0.46400,-0.09013987754
0.46450,-0.09013987754
0.46500,0.2150545302
0.46550,0.5202489379
0.46600,0.2150545302
0.46650,-0.7005286929
0.46700,-1.310917508
0.46750,-0.3953342852
0.46800,0.5202489379
0.46850,1.435832161
0.46900,1.130637753
0.46950,0.2150545302
0.47000,-0.09013987754
0.47050,0.2150545302
0.47100,0.5202489379
0.47150,1.130637753
0.47200,1.130637753
0.47250,0.2150545302
0.47300,-1.005723101
0.47350,-1.005723101
0.47400,0.2150545302
0.47450,1.435832161
0.47500,0.8254433456
0.47550,-0.09013987754
0.47600,-0.3953342852
0.47650,-0.09013987754
0.47700,0.2150545302
0.47750,-0.09013987754
0.47800,-0.3953342852
0.47850,-1.310917508
0.47900,-1.310917508
0.47950,-0.7005286929
0.48000,-0.09013987754
0.48050,0.2150545302
0.48100,-0.09013987754
0.48150,-0.7005286929
0.48200,-0.7005286929
0.48250,-0.7005286929
0.48300,-0.09013987754
0.48350,0.2150545302
0.48400,0.5202489379
0.48450,-0.3953342852
0.48500,-1.921306324
0.48550,-2.226500731
0.48600,-1.005723101
0.48650,-0.09013987754
0.48700,-0.09013987754
0.48750,-0.3953342852
0.48800,-0.3953342852
0.48850,-0.7005286929
0.48900,-1.005723101
0.48950,-1.310917508
0.49000,-1.005723101
0.49050,-0.7005286929
0.49100,-0.7005286929
0.49150,-0.3953342852
0.49200,0.5202489379
0.49250,1.130637753
0.49300,0.8254433456
0.49350,-0.3953342852
0.49400,-1.005723101
0.49450,-0.09013987754
0.49500,0.8254433456
0.49550,1.435832161
0.49600,0.8254433456
0.49650,0.5202489379
0.49700,1.130637753
0.49750,1.741026569
0.49800,1.435832161
0.49850,-0.09013987754
0.49900,-1.005723101
0.49950,-1.005723101
0.50000,-0.3953342852
0.50050,-0.09013987754
0.50100,0.2150545302
0.50150,-0.09013987754
0.50200,-0.09013987754
0.50250,-0.3953342852
0.50300,-0.09013987754
0.50350,0.2150545302
0.50400,0.8254433456
0.50450,1.130637753
0.50500,1.130637753
0.50550,0.8254433456
0.50600,0.5202489379
0.50650,0.5202489379
0.50700,0.5202489379
0.50750,-0.09013987754
0.50800,-0.7005286929
0.50850,-0.7005286929
0.50900,-0.09013987754
0.50950,0.8254433456
0.51000,-0.09013987754
0.51050,-0.7005286929
0.51100,-0.3953342852
0.51150,0.5202489379
0.51200,1.435832161
0.51250,1.130637753
0.51300,-0.09013987754
0.51350,-1.310917508
0.51400,-2.226500731
0.51450,-1.616111916
0.51500,-0.3953342852
0.51550,0.2150545302
0.51600,-0.09013987754
0.51650,-0.3953342852
0.51700,-0.09013987754
0.51750,0.2150545302
0.51800,-0.09013987754
0.51850,-1.310917508
0.51900,-1.005723101
0.51950,-0.09013987754
0.52000,-0.3953342852
0.52050,-1.005723101
0.52100,-0.7005286929
0.52150,0.2150545302
0.52200,0.5202489379
0.52250,-0.09013987754
0.52300,-0.09013987754
0.52350,0.2150545302
0.52400,-0.09013987754
0.52450,-0.3953342852
0.52500,-0.7005286929
0.52550,-0.09013987754
0.52600,0.2150545302
0.52650,-0.3953342852
0.52700,-1.005723101
0.52750,-0.09013987754
0.52800,0.8254433456
0.52850,0.8254433456
0.52900,-0.09013987754
0.52950,-0.09013987754
0.53000,-0.09013987754
0.53050,-0.09013987754
0.53100,-0.7005286929
0.53150,-0.7005286929
0.53200,-0.09013987754
0.53250,-0.09013987754
0.53300,-0.3953342852
0.53350,-0.09013987754
0.53400,0.2150545302
0.53450,0.5202489379
0.53500,-0.09013987754
0.53550,-0.09013987754
0.53600,-0.09013987754
0.53650,-0.09013987754
0.53700,0.2150545302
0.53750,-0.09013987754
0.53800,-0.7005286929
0.53850,-1.005723101
0.53900,-0.3953342852
0.53950,0.2150545302
0.54000,0.8254433456
0.54050,0.8254433456
0.54100,0.5202489379
0.54150,0.2150545302
0.54200,-0.09013987754
0.54250,0.2150545302
0.54300,0.2150545302
0.54350,0.2150545302
0.54400,-0.7005286929
0.54450,-1.616111916
0.54500,-1.616111916
0.54550,-0.7005286929
0.54600,-0.09013987754
0.54650,-0.3953342852
0.54700,-0.3953342852
0.54750,-0.09013987754
0.54800,-0.09013987754
0.54850,-0.09013987754
0.54900,-0.09013987754
0.54950,-0.09013987754
0.55000,-0.09013987754
0.55050,0.2150545302
0.55100,0.5202489379
0.55150,0.8254433456
0.55200,0.2150545302
0.55250,-0.09013987754
0.55300,-0.09013987754
0.55350,0.2150545302
0.55400,-0.09013987754
0.55450,-0.3953342852
0.55500,-0.3953342852
0.55550,-0.09013987754
0.55600,-0.09013987754
0.55650,-1.005723101
0.55700,-1.616111916
0.55750,-1.005723101
0.55800,-0.3953342852
0.55850,-0.09013987754
0.55900,0.2150545302
0.55950,0.8254433456
0.56000,0.8254433456
0.56050,0.5202489379
0.56100,0.2150545302
0.56150,0.5202489379
0.56200,1.130637753
0.56250,1.130637753
0.56300,0.5202489379
0.56350,-0.09013987754
0.56400,-0.7005286929
0.56450,-1.616111916
0.56500,-1.005723101
0.56550,0.5202489379
0.56600,1.130637753
0.56650,-0.09013987754
0.56700,-1.616111916
0.56750,-2.226500731
0.56800,-1.005723101
0.56850,-0.09013987754
0.56900,-0.09013987754
0.56950,-0.3953342852
0.57000,-1.005723101
0.57050,-1.005723101
0.57100,-0.09013987754
0.57150,0.5202489379
0.57200,-0.09013987754
0.57250,-1.921306324
0.57300,-2.836889547
0.57350,-1.616111916
0.57400,-0.3953342852
0.57450,-0.7005286929
0.57500,-1.616111916
0.57550,-1.005723101
0.57600,-0.09013987754
0.57650,-0.09013987754
0.57700,-0.3953342852
0.57750,-1.005723101
0.57800,-0.3953342852
0.57850,-0.09013987754
0.57900,-0.09013987754
0.57950,-0.09013987754
0.58000,0.2150545302
0.58050,0.2150545302
0.58100,-0.09013987754
0.58150,-0.09013987754
0.58200,-0.09013987754
0.58250,-0.09013987754
0.58300,-0.3953342852
0.58350,-0.7005286929
0.58400,-0.09013987754
0.58450,0.5202489379
0.58500,0.5202489379
0.58550,-0.09013987754
0.58600,-1.005723101
0.58650,-0.7005286929
0.58700,-0.09013987754
0.58750,0.5202489379
0.58800,-0.09013987754
0.58850,-0.7005286929
0.58900,-0.3953342852
0.58950,0.2150545302
0.59000,-0.09013987754
0.59050,-0.7005286929
0.59100,-1.005723101
0.59150,-0.3953342852
0.59200,-0.7005286929
0.59250,-1.921306324
0.59300,-2.226500731
0.59350,-0.7005286929
0.59400,0.2150545302
0.59450,0.5202489379
0.59500,0.2150545302
0.59550,0.2150545302
0.59600,-0.09013987754
0.59650,-1.005723101
0.59700,-1.310917508
0.59750,-0.7005286929
0.59800,-0.09013987754
0.59850,-0.09013987754
0.59900,-0.09013987754
0.59950,-0.09013987754
0.60000,-0.09013987754
0.60050,-0.7005286929
0.60100,-0.7005286929
0.60150,-0.09013987754
0.60200,0.2150545302
0.60250,-0.09013987754
0.60300,-0.09013987754
0.60350,1.130637753
0.60400,1.741026569
0.60450,0.8254433456
0.60500,-0.09013987754
0.60550,-0.09013987754
0.60600,0.2150545302
0.60650,-0.09013987754
0.60700,-1.005723101
0.60750,-0.7005286929
0.60800,0.5202489379
0.60850,1.130637753
0.60900,0.2150545302
0.60950,-0.09013987754
0.61000,0.5202489379
0.61050,0.8254433456
0.61100,-0.09013987754
0.61150,-2.226500731
0.61200,-2.836889547
0.61250,-1.005723101
0.61300,0.8254433456
0.61350,1.130637753
0.61400,-0.09013987754
0.61450,-0.3953342852
0.61500,-0.09013987754
0.61550,0.2150545302
0.61600,-0.09013987754
0.61650,-0.7005286929
0.61700,-1.005723101
0.61750,-0.09013987754
0.61800,0.5202489379
0.61850,-0.09013987754
0.61900,-1.005723101
0.61950,-1.616111916
0.62000,-1.005723101
0.62050,-0.09013987754
0.62100,0.2150545302
0.62150,0.2150545302
0.62200,0.2150545302
0.62250,0.2150545302
0.62300,0.2150545302
0.62350,0.2150545302
0.62400,-0.09013987754
0.62450,-0.09013987754
0.62500,-0.3953342852
0.62550,-0.09013987754
0.62600,0.8254433456
0.62650,1.741026569
0.62700,1.741026569
0.62750,0.2150545302
0.62800,-0.7005286929
0.62850,-0.09013987754
0.62900,1.435832161
0.62950,1.741026569
0.63000,-0.09013987754
0.63050,-1.310917508
0.63100,-0.09013987754
0.63150,2.046220976
0.63200,2.351415384
0.63250,0.2150545302
0.63300,-0.3953342852
0.63350,0.5202489379
0.63400,1.130637753
0.63450,0.2150545302
0.63500,-1.005723101
0.63550,-0.3953342852
0.63600,0.8254433456
0.63650,1.130637753
0.63700,-0.09013987754
0.63750,-1.005723101
0.63800,-0.09013987754
0.63850,1.130637753
0.63900,0.8254433456
0.63950,-0.09013987754
0.64000,-0.09013987754
0.64050,0.8254433456
0.64100,0.8254433456
0.64150,-0.09013987754
0.64200,-0.7005286929
0.64250,-0.09013987754
0.64300,0.5202489379
0.64350,0.2150545302
0.64400,-0.7005286929
0.64450,-1.310917508
0.64500,-0.3953342852
0.64550,0.8254433456
0.64600,2.046220976
0.64650,2.351415384
0.64700,1.130637753
0.64750,-0.09013987754
0.64800,-0.7005286929
0.64850,-0.09013987754
0.64900,0.8254433456
0.64950,0.8254433456
0.65000,0.2150545302
0.65050,-0.09013987754
0.65100,0.2150545302
0.65150,0.5202489379
0.65200,-0.09013987754
0.65250,-1.005723101
0.65300,-1.921306324
0.65350,-1.005723101
0.65400,-0.09013987754
0.65450,0.2150545302
0.65500,-0.09013987754
0.65550,0.5202489379
0.65600,1.435832161
0.65650,0.8254433456
0.65700,-1.616111916
0.65750,-3.142083955
0.65800,-1.921306324
0.65850,0.5202489379
0.65900,1.130637753
0.65950,-0.09013987754
0.66000,-1.005723101
0.66050,-0.7005286929
0.66100,-0.3953342852
0.66150,-0.7005286929
0.66200,-1.005723101
0.66250,-0.7005286929
0.66300,-0.09013987754
0.66350,0.2150545302
0.66400,-0.09013987754
0.66450,-0.7005286929
0.66500,-0.3953342852
0.66550,0.2150545302
0.66600,0.8254433456
0.66650,0.2150545302
0.66700,-1.005723101
0.66750,-1.310917508
0.66800,-0.09013987754
0.66850,1.435832161
0.66900,1.435832161
0.66950,0.8254433456
0.67000,-0.09013987754
0.67050,-1.005723101
0.67100,-1.921306324
0.67150,-1.616111916
0.67200,-0.09013987754
0.67250,0.2150545302
0.67300,-0.7005286929
0.67350,-1.616111916
0.67400,-1.310917508
0.67450,-0.7005286929
0.67500,-1.310917508
0.67550,-1.921306324
0.67600,-1.005723101
0.67650,0.5202489379
0.67700,0.2150545302
0.67750,-1.310917508
0.67800,-1.616111916
0.67850,-0.09013987754
0.67900,1.435832161
0.67950,0.8254433456
0.68000,-0.09013987754
0.68050,-0.3953342852
0.68100,-0.3953342852
0.68150,-1.005723101
0.68200,-1.005723101
0.68250,-0.09013987754
0.68300,1.130637753
0.68350,1.130637753
0.68400,0.2150545302
0.68450,-0.09013987754
0.68500,0.2150545302
0.68550,-0.09013987754
0.68600,-0.7005286929
0.68650,-1.310917508
0.68700,-0.09013987754
0.68750,0.8254433456
0.68800,0.8254433456
0.68850,-0.3953342852
0.68900,-1.616111916
0.68950,-1.616111916
0.69000,-0.7005286929
0.69050,-0.09013987754
0.69100,0.2150545302
0.69150,-0.09013987754
0.69200,-0.3953342852
0.69250,-0.7005286929
0.69300,-0.09013987754
0.69350,-0.09013987754
0.69400,-0.09013987754
0.69450,-1.005723101
0.69500,-1.005723101
0.69550,-0.09013987754
0.69600,0.5202489379
0.69650,-0.3953342852
0.69700,-1.616111916
0.69750,-1.616111916
0.69800,-0.3953342852
0.69850,0.2150545302
0.69900,0.2150545302
0.69950,0.2150545302
0.70000,0.8254433456
0.70050,0.8254433456
0.70100,-0.3953342852
0.70150,-1.310917508
0.70200,-0.7005286929
0.70250,0.2150545302
0.70300,0.5202489379
0.70350,-0.09013987754
0.70400,-0.7005286929
0.70450,-0.3953342852
0.70500,-0.09013987754
0.70550,-0.09013987754
0.70600,-0.09013987754
0.70650,-0.09013987754
0.70700,-0.3953342852
0.70750,-0.7005286929
0.70800,-0.3953342852
0.70850,-0.09013987754
0.70900,-0.09013987754
0.70950,-0.09013987754
0.71000,-0.09013987754
0.71050,0.5202489379
0.71100,1.130637753
0.71150,0.5202489379
0.71200,-0.09013987754
0.71250,-0.09013987754
0.71300,0.2150545302
0.71350,-0.09013987754
0.71400,-0.09013987754
0.71450,-0.09013987754
0.71500,0.8254433456
0.71550,0.5202489379
0.71600,-0.3953342852
0.71650,-1.310917508
0.71700,-0.3953342852
0.71750,0.8254433456
0.71800,1.130637753
0.71850,0.2150545302
0.71900,-0.09013987754
0.71950,0.5202489379
0.72000,1.130637753
0.72050,0.5202489379
0.72100,-0.09013987754
0.72150,-0.09013987754
0.72200,0.2150545302
0.72250,-0.09013987754
0.72300,-1.005723101
0.72350,-1.005723101
0.72400,-0.09013987754
0.72450,-0.09013987754
0.72500,-1.310917508
0.72550,-2.531695139
0.72600,-1.005723101
0.72650,1.130637753
0.72700,1.741026569
0.72750,0.2150545302
0.72800,-0.3953342852
0.72850,0.2150545302
0.72900,1.435832161
0.72950,1.130637753
0.73000,0.2150545302
0.73050,-0.09013987754
0.73100,0.2150545302
0.73150,0.2150545302
0.73200,-0.09013987754
0.73250,-0.3953342852
0.73300,-0.3953342852
0.73350,-0.7005286929
0.73400,-1.005723101
0.73450,-0.3953342852
0.73500,0.5202489379
0.73550,1.130637753
0.73600,0.5202489379
0.73650,-0.3953342852
0.73700,-1.005723101
0.73750,-0.3953342852
0.73800,-0.09013987754
0.73850,0.2150545302
0.73900,-0.09013987754
0.73950,-0.09013987754
0.74000,-0.09013987754
0.74050,0.2150545302
0.74100,0.8254433456
0.74150,1.130637753
0.74200,0.5202489379
0.74250,0.2150545302
0.74300,0.8254433456
0.74350,1.435832161
0.74400,0.5202489379
0.74450,-0.3953342852
0.74500,-0.7005286929
0.74550,-0.3953342852
0.74600,-0.09013987754
0.74650,-0.09013987754
0.74700,1.741026569
0.74750,5.098165053
0.74800,7.539720315
0.74850,7.234525907
0.74900,5.403359461
0.74950,4.18258183
0.75000,3.266998607
0.75050,2.046220976
0.75100,1.435832161
0.75150,2.351415384
0.75200,2.961804199
0.75250,1.741026569
0.75300,-0.09013987754
0.75350,-1.310917508
0.75400,-1.921306324
0.75450,-2.836889547
0.75500,-4.668055993
0.75550,-5.583639216
0.75600,-4.973250401
0.75650,-4.057667178
0.75700,-4.057667178
0.75750,-4.362861585
0.75800,-3.447278362
0.75850,-1.921306324
0.75900,-1.616111916
0.75950,-2.531695139
0.76000,-3.142083955
0.76050,-2.226500731
0.76100,-1.005723101
0.76150,-0.3953342852
0.76200,-0.7005286929
0.76250,-0.3953342852
0.76300,-0.09013987754
0.76350,-0.3953342852
0.76400,-0.09013987754
0.76450,0.5202489379
0.76500,2.351415384
0.76550,2.656609792
0.76600,1.741026569
0.76650,0.8254433456
0.76700,0.2150545302
0.76750,-0.09013987754
0.76800,0.5202489379
0.76850,3.266998607
0.76900,7.234525907
0.76950,9.370886761
0.77000,8.15010913
0.77050,6.013748276
0.77100,4.792970646
0.77150,4.18258183
0.77200,3.266998607
0.77250,2.656609792
0.77300,2.656609792
0.77350,1.741026569
0.77400,0.2150545302
0.77450,0.5202489379
0.77500,3.266998607
0.77550,5.098165053
0.77600,3.877387423
0.77650,2.046220976
0.77700,2.046220976
0.77750,1.741026569
0.77800,-0.7005286929
0.77850,-3.75247277
0.77900,-3.447278362
0.77950,-1.310917508
0.78000,-1.616111916
0.78050,-4.362861585
0.78100,-5.888833624
0.78150,-5.278444808
0.78200,-4.973250401
0.78250,-7.109611255
0.78300,-8.940777701
0.78350,-9.551166516
0.78400,-8.940777701
0.78450,-8.330388885
0.78500,-6.499222439
0.78550,-3.142083955
0.78600,-1.310917508
0.78650,-2.531695139
0.78700,-3.75247277
0.78750,-2.836889547
0.78800,-1.005723101
0.78850,-0.3953342852
0.78900,-1.616111916
0.78950,-2.226500731
0.79000,-2.226500731
0.79050,-2.531695139
0.79100,-4.057667178
0.79150,-5.888833624
0.79200,-6.499222439
0.79250,-6.804416847
0.79300,-6.804416847
0.79350,-6.194028032
0.79400,-4.668055993
0.79450,-2.531695139
0.79500,-0.7005286929
0.79550,0.5202489379
0.79600,1.435832161
0.79650,2.046220976
0.79700,2.046220976
0.79750,2.351415384
0.79800,2.961804199
0.79850,3.877387423
0.79900,3.572193015
0.79950,2.961804199
0.80000,2.351415384
0.80050,2.656609792
0.80100,2.961804199
0.80150,2.656609792
0.80200,1.741026569
0.80250,1.435832161
0.80300,1.741026569
0.80350,2.656609792
0.80400,2.961804199
0.80450,2.351415384
0.80500,1.130637753
0.80550,0.2150545302
0.80600,-0.09013987754
0.80650,0.2150545302
0.80700,1.435832161
0.80750,2.656609792
0.80800,2.961804199
0.80850,2.046220976
0.80900,0.8254433456
0.80950,-0.09013987754
0.81000,0.5202489379
0.81050,1.130637753
0.81100,1.130637753
0.81150,0.5202489379
0.81200,-0.09013987754
0.81250,-0.7005286929
0.81300,-0.7005286929
0.81350,0.2150545302
0.81400,1.435832161
0.81450,2.351415384
0.81500,1.741026569
0.81550,0.2150545302
0.81600,-1.005723101
0.81650,-1.005723101
0.81700,-0.3953342852
0.81750,0.2150545302
0.81800,0.5202489379
0.81850,0.8254433456
0.81900,1.741026569
0.81950,2.351415384
0.82000,1.130637753
0.82050,-0.3953342852
0.82100,-0.09013987754
0.82150,1.435832161
0.82200,2.351415384
0.82250,0.5202489379
0.82300,-0.09013987754
0.82350,2.656609792
0.82400,6.318942684
0.82450,6.9293315
0.82500,4.792970646
0.82550,3.877387423
0.82600,5.708553869
0.82650,7.539720315
0.82700,6.9293315
0.82750,5.403359461
0.82800,4.18258183
0.82850,3.572193015
0.82900,2.961804199
0.82950,2.656609792
0.83000,2.046220976
0.83050,0.5202489379
0.83100,-1.310917508
0.83150,-1.616111916
0.83200,0.2150545302
0.83250,2.046220976
0.83300,1.130637753
0.83350,-0.3953342852
0.83400,-0.3953342852
0.83450,1.741026569
0.83500,3.572193015
0.83550,2.656609792
0.83600,0.2150545302
0.83650,-0.3953342852
0.83700,0.5202489379
0.83750,2.351415384
0.83800,3.266998607
0.83850,2.351415384
0.83900,0.2150545302
0.83950,-1.921306324
0.84000,-4.057667178
0.84050,-6.194028032
0.84100,-8.330388885
0.84150,-11.07713855
0.84200,-12.60311059
0.84250,-12.29791619
0.84300,-11.38233296
0.84350,-10.77194415
0.84400,-11.38233296
0.84450,-11.68752737
0.84500,-10.16155533
0.84550,-7.72000007
0.84600,-6.194028032
0.84650,-5.278444808
0.84700,-4.057667178
0.84750,-1.616111916
0.84800,0.8254433456
0.84850,2.656609792
0.84900,2.961804199
0.84950,1.741026569
0.85000,0.8254433456
0.85050,0.5202489379
0.85100,0.5202489379
0.85150,-0.09013987754
0.85200,-0.7005286929
0.85250,0.2150545302
0.85300,2.656609792
0.85350,4.487776238
0.85400,4.487776238
0.85450,5.403359461
0.85500,9.370886761
0.85550,15.16958051
0.85600,17.30594136
0.85650,14.8643861
0.85700,10.28646998
0.85750,6.9293315
0.85800,5.098165053
0.85850,3.266998607
0.85900,2.046220976
0.85950,1.130637753
0.86000,-0.09013987754
0.86050,-3.142083955
0.86100,-6.804416847
0.86150,-9.245972109
0.86200,-10.77194415
0.86250,-11.99272178
0.86300,-12.908305
0.86350,-12.908305
0.86400,-11.99272178
0.86450,-10.77194415
0.86500,-9.856360924
0.86550,-7.72000007
0.86600,-4.973250401
0.86650,-3.447278362
0.86700,-3.447278362
0.86750,-3.142083955
0.86800,-1.310917508
0.86850,1.130637753
0.86900,1.741026569
0.86950,0.8254433456
0.87000,-0.09013987754
0.87050,-0.3953342852
0.87100,-0.7005286929
0.87150,-1.616111916
0.87200,-2.531695139
0.87250,-2.531695139
0.87300,-2.226500731
0.87350,-2.836889547
0.87400,-4.057667178
0.87450,-3.75247277
0.87500,-2.531695139
0.87550,-1.616111916
0.87600,-1.005723101
0.87650,-0.09013987754
0.87700,0.8254433456
0.87750,0.5202489379
0.87800,-0.7005286929
0.87850,-1.005723101
0.87900,0.2150545302
0.87950,1.741026569
0.88000,1.435832161
0.88050,0.5202489379
0.88100,1.130637753
0.88150,2.351415384
0.88200,2.351415384
0.88250,1.741026569
0.88300,1.741026569
0.88350,2.046220976
0.88400,1.435832161
0.88450,0.8254433456
0.88500,0.8254433456
0.88550,2.046220976
0.88600,2.351415384
0.88650,2.351415384
0.88700,3.572193015
0.88750,5.708553869
0.88800,6.318942684
0.88850,4.792970646
0.88900,2.961804199
0.88950,2.961804199
0.89000,3.877387423
0.89050,3.572193015
0.89100,2.351415384
0.89150,1.435832161
0.89200,1.130637753
0.89250,1.741026569
0.89300,1.741026569
0.89350,1.435832161
0.89400,0.8254433456
0.89450,0.5202489379
0.89500,-0.09013987754
0.89550,-1.310917508
0.89600,-2.226500731
0.89650,-2.226500731
0.89700,-1.310917508
0.89750,-0.09013987754
0.89800,2.351415384
0.89850,5.098165053
0.89900,6.013748276
0.89950,5.098165053
0.90000,4.792970646
0.90050,6.624137092
0.90100,8.455303538
0.90150,6.9293315
0.90200,3.877387423
0.90250,2.656609792
0.90300,2.656609792
0.90350,2.046220976
0.90400,-0.09013987754
0.90450,-0.7005286929
0.90500,1.130637753
0.90550,4.792970646
0.90600,10.8968588
0.90650,19.13710781
0.90700,24.93580155
0.90750,23.10463511
0.90800,13.94880288
0.90850,5.403359461
0.90900,3.266998607
0.90950,4.18258183
0.91000,3.266998607
0.91050,-0.3953342852
0.91100,-5.278444808
0.91150,-9.856360924
0.91200,-12.29791619
0.91250,-12.60311059
0.91300,-12.29791619
0.91350,-13.82388822
0.91400,-16.8758323
0.91450,-19.01219316
0.91500,-20.53816519
0.91550,-21.75894282
0.91600,-22.36933164
0.91650,-21.14855401
0.91700,-18.40180434
0.91750,-15.96024908
0.91800,-13.82388822
0.91850,-9.245972109
0.91900,-3.447278362
0.91950,-0.3953342852
0.92000,-2.226500731
0.92050,-4.973250401
0.92100,-5.278444808
0.92150,-3.142083955
0.92200,-1.005723101
0.92250,-0.09013987754
0.92300,-0.09013987754
0.92350,-0.3953342852
0.92400,-0.7005286929
0.92450,-0.3953342852
0.92500,2.961804199
0.92550,9.370886761
0.92600,15.16958051
0.92650,16.69555255
0.92700,13.33841406
0.92750,9.065692354
0.92800,7.844914723
0.92850,7.844914723
0.92900,4.487776238
0.92950,-0.3953342852
0.93000,-2.226500731
0.93050,1.130637753
0.93100,5.098165053
0.93150,3.572193015
0.93200,-1.921306324
0.93250,-6.194028032
0.93300,-7.109611255
0.93350,-6.499222439
0.93400,-6.499222439
0.93450,-7.109611255
0.93500,-8.025194478
0.93550,-10.16155533
0.93600,-12.29791619
0.93650,-12.908305
0.93700,-12.29791619
0.93750,-11.07713855
0.93800,-9.856360924
0.93850,-8.025194478
0.93900,-6.499222439
0.93950,-5.888833624
0.94000,-4.668055993
0.94050,-1.616111916
0.94100,2.656609792
0.94150,5.403359461
0.94200,4.487776238
0.94250,2.046220976
0.94300,1.741026569
0.94350,4.18258183
0.94400,6.318942684
0.94450,6.624137092
0.94500,6.318942684
0.94550,6.624137092
0.94600,7.234525907
0.94650,6.318942684
0.94700,3.877387423
0.94750,1.741026569
0.94800,1.130637753
0.94850,0.8254433456
0.94900,0.2150545302
0.94950,-0.09013987754
0.95000,0.5202489379
0.95050,1.435832161
0.95100,1.130637753
0.95150,1.435832161
0.95200,2.961804199
0.95250,4.487776238
0.95300,4.18258183
0.95350,2.656609792
0.95400,1.741026569
0.95450,2.046220976
0.95500,3.266998607
0.95550,3.266998607
0.95600,2.351415384
0.95650,1.741026569
0.95700,2.656609792
0.95750,3.572193015
0.95800,3.266998607
0.95850,2.046220976
0.95900,1.435832161
0.95950,2.046220976
0.96000,2.961804199
0.96050,2.656609792
0.96100,1.435832161
0.96150,1.435832161
0.96200,2.351415384
0.96250,2.046220976
0.96300,1.130637753
0.96350,0.5202489379
0.96400,0.8254433456
0.96450,0.5202489379
0.96500,-0.09013987754
0.96550,0.2150545302
0.96600,1.435832161
0.96650,2.046220976
0.96700,0.5202489379
0.96750,-0.09013987754
0.96800,0.8254433456
0.96850,2.351415384
0.96900,2.351415384
0.96950,0.8254433456
0.97000,-0.09013987754
0.97050,-0.09013987754
0.97100,-0.09013987754
0.97150,0.2150545302
0.97200,0.5202489379
0.97250,1.435832161
0.97300,1.435832161
0.97350,0.5202489379
0.97400,-0.09013987754
0.97450,-0.09013987754
0.97500,-0.09013987754
0.97550,-0.09013987754
0.97600,-0.09013987754
0.97650,0.2150545302
0.97700,0.8254433456
0.97750,0.8254433456
0.97800,0.5202489379
0.97850,0.2150545302
0.97900,-0.09013987754
0.97950,-0.09013987754
0.98000,0.5202489379
0.98050,0.8254433456
0.98100,0.8254433456
0.98150,0.8254433456
0.98200,0.2150545302
0.98250,-0.09013987754
0.98300,-1.310917508
0.98350,-1.921306324
0.98400,-1.005723101
0.98450,-0.09013987754
0.98500,0.2150545302
0.98550,-0.09013987754
0.98600,0.2150545302
0.98650,0.8254433456
0.98700,1.435832161
0.98750,1.741026569
0.98800,2.351415384
0.98850,2.046220976
0.98900,0.2150545302
0.98950,-0.3953342852
0.99000,3.572193015
0.99050,13.94880288
0.99100,23.10463511
0.99150,24.32541274
0.99200,19.13710781
0.99250,13.94880288
0.99300,11.50724762
0.99350,9.065692354
0.99400,6.013748276
0.99450,3.572193015
0.99500,2.656609792
0.99550,0.8254433456
0.99600,-2.226500731
0.99650,-4.057667178
0.99700,-3.142083955
0.99750,-1.921306324
0.99800,-2.531695139
0.99850,-3.142083955
0.99900,-0.7005286929
0.99950,2.351415384
1.00000,2.961804199
1.00050,1.130637753
1.00100,0.5202489379
1.00150,0.8254433456
1.00200,-0.09013987754
1.00250,-2.226500731
1.00300,-3.75247277
1.00350,-3.75247277
1.00400,-4.668055993
1.00450,-7.72000007
1.00500,-11.38233296
1.00550,-13.51869382
1.00600,-15.04466585
1.00650,-17.18102671
1.00700,-19.92777638
1.00750,-22.97972046
1.00800,-25.72647012
1.00850,-26.03166453
1.00900,-21.75894282
1.00950,-15.04466585
1.01000,-10.46674974
1.01050,-8.940777701
1.01100,-7.414805662
1.01150,-4.668055993
1.01200,-3.75247277
1.01250,-5.278444808
1.01300,-5.888833624
1.01350,-2.226500731
1.01400,2.046220976
1.01450,4.487776238
1.01500,6.9293315
1.01550,10.8968588
1.01600,14.55919169
1.01650,14.25399728
1.01700,11.81244202
1.01750,10.8968588
1.01800,10.59166439
1.01850,8.15010913
1.01900,4.18258183
1.01950,2.046220976
1.02000,0.2150545302
1.02050,-4.057667178
1.02100,-11.07713855
1.02150,-15.65505467
1.02200,-15.04466585
1.02250,-12.29791619
1.02300,-10.46674974
1.02350,-10.16155533
1.02400,-9.551166516
1.02450,-8.635583293
1.02500,-6.804416847
1.02550,-2.226500731
1.02600,2.351415384
1.02650,4.18258183
1.02700,2.046220976
1.02750,-1.005723101
1.02800,-2.226500731
1.02850,-1.921306324
1.02900,-2.226500731
1.02950,-2.226500731
1.03000,-1.005723101
1.03050,-0.09013987754
1.03100,-0.3953342852
1.03150,-1.616111916
1.03200,-1.310917508
1.03250,0.2150545302
1.03300,0.8254433456
1.03350,-0.09013987754
1.03400,-0.7005286929
1.03450,-0.09013987754
1.03500,0.5202489379
1.03550,-0.09013987754
1.03600,-0.7005286929
1.03650,-0.09013987754
1.03700,0.8254433456
1.03750,0.5202489379
1.03800,-0.09013987754
1.03850,-0.09013987754
1.03900,1.435832161
1.03950,2.351415384
1.04000,2.656609792
1.04050,2.961804199
1.04100,2.656609792
1.04150,1.741026569
1.04200,1.435832161
1.04250,2.656609792
1.04300,3.877387423
1.04350,2.351415384
1.04400,-0.3953342852
1.04450,-1.310917508
1.04500,0.8254433456
1.04550,3.266998607
1.04600,3.877387423
1.04650,3.877387423
1.04700,4.18258183
1.04750,4.18258183
1.04800,2.656609792
1.04850,1.130637753
1.04900,1.435832161
1.04950,2.351415384
1.05000,1.435832161
1.05050,-0.09013987754
1.05100,-0.3953342852
1.05150,1.130637753
1.05200,2.656609792
1.05250,2.046220976
1.05300,0.8254433456
1.05350,1.435832161
1.05400,2.656609792
1.05450,2.961804199
1.05500,2.046220976
1.05550,1.741026569
1.05600,2.046220976
1.05650,2.046220976
1.05700,1.130637753
1.05750,-0.09013987754
1.05800,-0.09013987754
1.05850,0.5202489379
1.05900,0.8254433456
1.05950,1.130637753
1.06000,2.046220976
1.06050,2.351415384
1.06100,1.130637753
1.06150,0.2150545302
1.06200,0.5202489379
1.06250,1.741026569
1.06300,2.046220976
1.06350,1.130637753
1.06400,0.2150545302
1.06450,0.2150545302
1.06500,0.8254433456
1.06550,0.5202489379
1.06600,-0.09013987754
1.06650,-0.09013987754
1.06700,-0.09013987754
1.06750,-0.09013987754
1.06800,-0.09013987754
1.06850,-0.09013987754
1.06900,-0.09013987754
1.06950,-0.09013987754
1.07000,-0.3953342852
1.07050,-0.09013987754
1.07100,0.2150545302
1.07150,0.8254433456
1.07200,0.8254433456
1.07250,0.5202489379
1.07300,0.8254433456
1.07350,0.8254433456
1.07400,1.130637753
1.07450,1.130637753
1.07500,0.5202489379
1.07550,-0.09013987754
1.07600,-0.7005286929
1.07650,-0.3953342852
1.07700,-0.09013987754
1.07750,-0.09013987754
1.07800,-0.09013987754
1.07850,-0.09013987754
1.07900,0.8254433456
1.07950,1.130637753
1.08000,0.5202489379
1.08050,-0.09013987754
1.08100,-0.09013987754
1.08150,0.2150545302
1.08200,-0.09013987754
1.08250,-0.09013987754
1.08300,0.5202489379
1.08350,1.435832161
1.08400,0.5202489379
1.08450,-1.005723101
1.08500,-1.921306324
1.08550,-0.7005286929
1.08600,0.2150545302
1.08650,0.8254433456
1.08700,0.8254433456
1.08750,0.8254433456
1.08800,0.8254433456
1.08850,0.2150545302
1.08900,-0.09013987754
1.08950,-0.3953342852
1.09000,-0.3953342852
1.09050,-0.09013987754
1.09100,0.2150545302
1.09150,0.5202489379
1.09200,0.2150545302
1.09250,-0.3953342852
1.09300,-1.005723101
1.09350,-1.005723101
1.09400,-1.310917508
1.09450,-1.005723101
1.09500,-0.09013987754
1.09550,-0.09013987754
1.09600,-0.09013987754
1.09650,-0.3953342852
1.09700,0.5202489379
1.09750,1.741026569
1.09800,2.046220976
1.09850,1.130637753
1.09900,0.8254433456
1.09950,0.5202489379
1.10000,-0.09013987754
1.10050,-0.7005286929
1.10100,-0.3953342852
1.10150,-0.09013987754
1.10200,-0.3953342852
1.10250,-1.005723101
1.10300,-0.3953342852
1.10350,0.8254433456
1.10400,0.8254433456
1.10450,-0.09013987754
1.10500,-0.7005286929
1.10550,-0.3953342852
1.10600,-0.7005286929
1.10650,-1.616111916
1.10700,-1.005723101
1.10750,-0.09013987754
1.10800,-0.09013987754
1.10850,-1.005723101
1.10900,-1.005723101
1.10950,0.5202489379
1.11000,1.435832161
1.11050,0.8254433456
1.11100,0.2150545302
1.11150,1.435832161
1.11200,2.656609792
1.11250,1.741026569
1.11300,0.2150545302
1.11350,-0.09013987754
1.11400,0.5202489379
1.11450,1.130637753
1.11500,1.435832161
1.11550,1.741026569
1.11600,1.741026569
1.11650,1.435832161
1.11700,1.741026569
1.11750,2.656609792
1.11800,2.656609792
1.11850,1.435832161
1.11900,-0.09013987754
1.11950,-1.005723101
1.12000,-0.3953342852
1.12050,-0.09013987754
1.12100,-0.09013987754
1.12150,-0.09013987754
1.12200,-0.09013987754
1.12250,-0.7005286929
1.12300,-1.616111916
1.12350,-1.616111916
1.12400,-0.3953342852
1.12450,-0.09013987754
1.12500,-1.310917508
1.12550,-3.142083955
1.12600,-3.75247277
1.12650,-2.836889547
1.12700,-2.836889547
1.12750,-4.362861585
1.12800,-4.973250401
1.12850,-2.836889547
1.12900,-0.7005286929
1.12950,-1.310917508
1.13000,-3.142083955
1.13050,-2.836889547
1.13100,-1.005723101
1.13150,-0.7005286929
1.13200,-2.226500731
1.13250,-3.142083955
1.13300,-1.921306324
1.13350,-0.7005286929
1.13400,-1.310917508
1.13450,-2.226500731
1.13500,-2.226500731
1.13550,-1.921306324
1.13600,-1.921306324
1.13650,-1.310917508
1.13700,0.2150545302
1.13750,0.8254433456
1.13800,-0.09013987754
1.13850,-0.7005286929
1.13900,-0.09013987754
1.13950,1.435832161
1.14000,1.435832161
1.14050,0.2150545302
1.14100,-0.7005286929
1.14150,-1.310917508
1.14200,-1.310917508
1.14250,-0.3953342852
1.14300,-0.09013987754
1.14350,-0.7005286929
1.14400,-1.921306324
1.14450,-1.310917508
1.14500,-0.09013987754
1.14550,-0.09013987754
1.14600,-1.005723101
1.14650,-1.005723101
1.14700,0.5202489379
1.14750,1.741026569
1.14800,1.130637753
1.14850,-0.09013987754
1.14900,-0.09013987754
1.14950,-0.09013987754
1.15000,0.2150545302
1.15050,1.435832161
1.15100,2.961804199
1.15150,2.656609792
1.15200,1.130637753
1.15250,0.2150545302
1.15300,1.435832161
1.15350,2.961804199
1.15400,2.961804199
1.15450,1.741026569
1.15500,0.8254433456
1.15550,0.8254433456
1.15600,1.435832161
1.15650,1.435832161
1.15700,1.435832161
1.15750,1.741026569
1.15800,2.656609792
1.15850,3.572193015
1.15900,2.961804199
1.15950,1.741026569
1.16000,1.741026569
1.16050,3.572193015
1.16100,6.013748276
1.16150,9.065692354
1.16200,13.03321965
1.16250,17.91633018
1.16300,19.44230222
1.16350,16.69555255
1.16400,12.72802525
1.16450,12.11763643
1.16500,13.03321965
1.16550,10.8968588
1.16600,5.403359461
1.16650,-0.09013987754
1.16700,-4.057667178
1.16750,-6.804416847
1.16800,-9.856360924
1.16850,-12.60311059
1.16900,-14.73947145
1.16950,-16.26544349
1.17000,-16.8758323
1.17050,-16.26544349
1.17100,-15.96024908
1.17150,-16.57063789
1.17200,-17.48622112
1.17250,-17.18102671
1.17300,-16.57063789
1.17350,-15.96024908
1.17400,-15.04466585
1.17450,-12.29791619
1.17500,-8.940777701
1.17550,-7.414805662
1.17600,-7.109611255
1.17650,-5.583639216
1.17700,-3.447278362
1.17750,-1.921306324
1.17800,-1.921306324
1.17850,-2.226500731
1.17900,-1.921306324
1.17950,-1.616111916
1.18000,-1.005723101
1.18050,-0.09013987754
1.18100,0.2150545302
1.18150,0.2150545302
1.18200,0.2150545302
1.18250,0.5202489379
1.18300,0.2150545302
1.18350,-1.005723101
1.18400,-1.616111916
1.18450,-0.09013987754
1.18500,1.130637753
1.18550,-0.09013987754
1.18600,-2.531695139
1.18650,-3.447278362
1.18700,-1.616111916
1.18750,-0.09013987754
1.18800,0.2150545302
1.18850,-0.09013987754
1.18900,0.2150545302
1.18950,-0.09013987754
1.19000,-0.09013987754
1.19050,-0.09013987754
1.19100,1.130637753
1.19150,1.435832161
1.19200,0.5202489379
1.19250,0.2150545302
1.19300,1.130637753
1.19350,2.351415384
1.19400,2.351415384
1.19450,2.046220976
1.19500,2.046220976
1.19550,2.351415384
1.19600,1.741026569
1.19650,1.435832161
1.19700,2.351415384
1.19750,3.266998607
1.19800,3.266998607
1.19850,2.656609792
1.19900,2.961804199
1.19950,3.572193015
1.20000,3.572193015
1.20050,2.656609792
1.20100,2.046220976
1.20150,1.435832161
1.20200,0.5202489379
1.20250,-0.3953342852
1.20300,-0.09013987754
1.20350,2.046220976
1.20400,4.18258183
1.20450,4.18258183
1.20500,2.351415384
1.20550,0.8254433456
1.20600,0.8254433456
1.20650,0.8254433456
1.20700,0.5202489379
1.20750,-0.09013987754
1.20800,-0.09013987754
1.20850,1.130637753
1.20900,2.656609792
1.20950,3.572193015
1.21000,2.961804199
1.21050,2.046220976
1.21100,1.435832161
1.21150,1.130637753
1.21200,0.5202489379
1.21250,0.8254433456
1.21300,2.351415384
1.21350,3.266998607
1.21400,1.741026569
1.21450,-0.3953342852
1.21500,-1.005723101
1.21550,0.2150545302
1.21600,1.741026569
1.21650,2.046220976
1.21700,2.046220976
1.21750,2.351415384
1.21800,2.351415384
1.21850,0.8254433456
1.21900,-0.09013987754
1.21950,0.2150545302
1.22000,1.435832161
1.22050,1.435832161
1.22100,1.130637753
1.22150,1.130637753
1.22200,1.435832161
1.22250,2.351415384
1.22300,3.572193015
1.22350,3.877387423
1.22400,2.351415384
1.22450,0.2150545302
1.22500,0.8254433456
1.22550,3.266998607
1.22600,2.961804199
1.22650,1.130637753
1.22700,2.961804199
1.22750,8.455303538
1.22800,10.59166439
1.22850,7.234525907
1.22900,8.455303538
1.22950,23.40982952
1.23000,42.02668839
1.23050,47.52018772
1.23100,36.83838345
1.23150,24.32541274
1.23200,19.44230222
1.23250,17.61113577
1.23300,12.42283084
1.23350,5.708553869
1.23400,-0.09013987754
1.23450,-6.194028032
1.23500,-13.82388822
1.23550,-19.92777638
1.23600,-22.06413723
1.23650,-24.50569249
1.23700,-28.7784142
1.23750,-31.52516387
1.23800,-29.69399742
1.23850,-26.94724776
1.23900,-26.33685894
1.23950,-25.72647012
1.24000,-21.14855401
1.24050,-15.04466585
1.24100,-12.29791619
1.24150,-11.68752737
1.24200,-9.856360924
1.24250,-7.109611255
1.24300,-6.804416847
1.24350,-8.635583293
1.24400,-10.16155533
1.24450,-9.245972109
1.24500,-7.72000007
1.24550,-5.888833624
1.24600,-4.362861585
1.24650,-4.362861585
1.24700,-5.583639216
1.24750,-5.583639216
1.24800,-2.226500731
1.24850,1.741026569
1.24900,2.961804199
1.24950,1.741026569
1.25000,1.130637753
1.25050,2.656609792
1.25100,3.877387423
1.25150,3.572193015
1.25200,3.266998607
1.25250,3.572193015
1.25300,2.961804199
1.25350,0.2150545302
1.25400,-1.310917508
1.25450,-0.09013987754
1.25500,2.351415384
1.25550,2.961804199
1.25600,1.741026569
1.25650,0.8254433456
1.25700,1.130637753
1.25750,1.130637753
1.25800,0.5202489379
1.25850,0.5202489379
1.25900,1.130637753
1.25950,1.741026569
1.26000,1.435832161
1.26050,1.435832161
1.26100,3.266998607
1.26150,4.792970646
1.26200,4.792970646
1.26250,3.877387423
1.26300,3.877387423
1.26350,4.487776238
1.26400,4.487776238
1.26450,3.877387423
1.26500,3.877387423
1.26550,4.18258183
1.26600,4.487776238
1.26650,3.877387423
1.26700,2.656609792
1.26750,2.046220976
1.26800,1.741026569
1.26850,2.351415384
1.26900,2.961804199
1.26950,3.266998607
1.27000,2.656609792
1.27050,2.046220976
1.27100,2.046220976
1.27150,2.046220976
1.27200,1.435832161
1.27250,0.2150545302
1.27300,-0.3953342852
1.27350,-0.3953342852
1.27400,-0.09013987754
1.27450,1.130637753
1.27500,1.435832161
1.27550,0.5202489379
1.27600,-0.3953342852
1.27650,-0.3953342852
1.27700,0.5202489379
1.27750,0.8254433456
1.27800,-0.09013987754
1.27850,-1.005723101
1.27900,-0.09013987754
1.27950,1.435832161
1.28000,2.351415384
1.28050,2.046220976
1.28100,2.046220976
1.28150,2.351415384
1.28200,2.046220976
1.28250,1.741026569
1.28300,1.741026569
1.28350,1.741026569
1.28400,1.130637753
1.28450,1.435832161
1.28500,3.266998607
1.28550,6.013748276
1.28600,6.9293315
1.28650,6.624137092
1.28700,6.624137092
1.28750,8.455303538
1.28800,9.981275577
1.28850,9.981275577
1.28900,8.455303538
1.28950,7.539720315
1.29000,7.844914723
1.29050,9.370886761
1.29100,9.981275577
1.29150,9.065692354
1.29200,6.624137092
1.29250,4.487776238
1.29300,2.656609792
1.29350,0.5202489379
1.29400,-2.226500731
1.29450,-4.362861585
1.29500,-5.583639216
1.29550,-7.109611255
1.29600,-9.245972109
1.29650,-10.46674974
1.29700,-9.856360924
1.29750,-9.245972109
1.29800,-10.46674974
1.29850,-11.99272178
1.29900,-11.99272178
1.29950,-9.856360924
1.30000,-8.940777701
1.30050,-8.940777701
1.30100,-7.109611255
1.30150,-1.616111916
1.30200,5.098165053
1.30250,9.676081169
1.30300,9.676081169
1.30350,8.760497946
1.30400,9.676081169
1.30450,13.33841406
1.30500,16.69555255
1.30550,17.30594136
1.30600,16.69555255
1.30650,16.08516373
1.30700,14.8643861
1.30750,10.8968588
1.30800,4.18258183
1.30850,-2.226500731
1.30900,-5.583639216
1.30950,-6.804416847
1.31000,-8.940777701
1.31050,-12.60311059
1.31100,-15.96024908
1.31150,-19.31738756
1.31200,-23.89530368
1.31250,-28.47321979
1.31300,-28.7784142
1.31350,-22.97972046
1.31400,-15.34986026
1.31450,-11.38233296
1.31500,-11.38233296
1.31550,-11.68752737
1.31600,-9.856360924
1.31650,-7.72000007
1.31700,-7.72000007
1.31750,-9.245972109
1.31800,-9.856360924
1.31850,-8.025194478
1.31900,-5.583639216
1.31950,-4.668055993
1.32000,-5.278444808
1.32050,-5.888833624
1.32100,-5.583639216
1.32150,-6.804416847
1.32200,-11.07713855
1.32250,-15.34986026
1.32300,-15.65505467
1.32350,-11.07713855
1.32400,-6.499222439
1.32450,-4.057667178
1.32500,-3.142083955
1.32550,-1.310917508
1.32600,1.130637753
1.32650,2.656609792
1.32700,2.961804199
1.32750,2.961804199
1.32800,2.961804199
1.32850,2.656609792
1.32900,2.656609792
1.32950,3.877387423
1.33000,5.403359461
1.33050,5.403359461
1.33100,4.487776238
1.33150,4.18258183
1.33200,4.18258183
1.33250,3.572193015
1.33300,2.656609792
1.33350,3.266998607
1.33400,4.792970646
1.33450,4.792970646
1.33500,3.266998607
1.33550,1.741026569
1.33600,1.435832161
1.33650,2.046220976
1.33700,2.961804199
1.33750,4.487776238
1.33800,5.708553869
1.33850,5.403359461
1.33900,4.487776238
1.33950,3.572193015
1.34000,2.961804199
1.34050,1.130637753
1.34100,0.2150545302
1.34150,1.741026569
1.34200,3.877387423
1.34250,4.18258183
1.34300,2.351415384
1.34350,1.741026569
1.34400,2.656609792
1.34450,2.656609792
1.34500,0.8254433456
1.34550,-0.09013987754
1.34600,1.741026569
1.34650,3.877387423
1.34700,3.877387423
1.34750,2.046220976
1.34800,1.130637753
1.34850,1.435832161
1.34900,2.046220976
1.34950,2.351415384
1.35000,2.656609792
1.35050,2.656609792
1.35100,2.656609792
1.35150,2.351415384
1.35200,1.130637753
1.35250,-0.09013987754
1.35300,-0.09013987754
1.35350,0.8254433456
1.35400,1.435832161
1.35450,0.5202489379
1.35500,-0.09013987754
1.35550,0.2150545302
1.35600,2.046220976
1.35650,2.656609792
1.35700,2.351415384
1.35750,2.961804199
1.35800,5.708553869
1.35850,7.539720315
1.35900,6.318942684
1.35950,3.266998607
1.36000,1.741026569
1.36050,2.351415384
1.36100,2.961804199
1.36150,2.351415384
1.36200,2.046220976
1.36250,2.961804199
1.36300,4.18258183
1.36350,3.572193015
1.36400,3.572193015
1.36450,7.234525907
1.36500,13.64360847
1.36550,17.91633018
1.36600,16.39035814
1.36650,12.11763643
1.36700,9.370886761
1.36750,9.065692354
1.36800,8.455303538
1.36850,5.403359461
1.36900,2.046220976
1.36950,-0.09013987754
1.37000,-0.3953342852
1.37050,-1.921306324
1.37100,-5.278444808
1.37150,-8.940777701
1.37200,-11.99272178
1.37250,-14.43427704
1.37300,-15.96024908
1.37350,-15.34986026
1.37400,-12.29791619
1.37450,-7.414805662
1.37500,-3.447278362
1.37550,-1.616111916
1.37600,-1.005723101
1.37650,-0.09013987754
1.37700,0.5202489379
1.37750,0.5202489379
1.37800,-0.3953342852
1.37850,-2.531695139
1.37900,-4.057667178
1.37950,-4.362861585
1.38000,-3.142083955
1.38050,-1.921306324
1.38100,-2.226500731
1.38150,-4.362861585
1.38200,-6.804416847
1.38250,-8.330388885
1.38300,-8.330388885
1.38350,-8.025194478
1.38400,-8.635583293
1.38450,-9.245972109
1.38500,-8.635583293
1.38550,-6.499222439
1.38600,-3.75247277
1.38650,-2.226500731
1.38700,-3.447278362
1.38750,-5.583639216
1.38800,-6.194028032
1.38850,-5.888833624
1.38900,-5.888833624
1.38950,-6.194028032
1.39000,-5.278444808
1.39050,-3.142083955
1.39100,-1.310917508
1.39150,-1.921306324
1.39200,-3.447278362
1.39250,-3.142083955
1.39300,-1.310917508
1.39350,0.2150545302
1.39400,0.8254433456
1.39450,1.435832161
1.39500,2.961804199
1.39550,2.961804199
1.39600,2.046220976
1.39650,1.741026569
1.39700,3.877387423
1.39750,6.9293315
1.39800,7.844914723
1.39850,6.9293315
1.39900,6.9293315
1.39950,8.15010913
1.40000,7.844914723
1.40050,6.013748276
1.40100,3.877387423
1.40150,2.961804199
1.40200,2.656609792
1.40250,2.046220976
1.40300,1.130637753
1.40350,0.8254433456
1.40400,-0.09013987754
1.40450,-1.005723101
1.40500,-1.310917508
1.40550,-1.005723101
1.40600,-0.7005286929
1.40650,-1.310917508
1.40700,-1.616111916
1.40750,-0.7005286929
1.40800,-0.09013987754
1.40850,0.2150545302
1.40900,0.5202489379
1.40950,1.435832161
1.41000,2.351415384
1.41050,1.741026569
1.41100,0.2150545302
1.41150,-0.3953342852
1.41200,-0.7005286929
1.41250,-0.3953342852
1.41300,-0.09013987754
1.41350,0.8254433456
1.41400,1.741026569
1.41450,1.435832161
1.41500,0.5202489379
1.41550,-0.09013987754
1.41600,-0.09013987754
1.41650,-0.3953342852
1.41700,-1.310917508
1.41750,-0.7005286929
1.41800,0.8254433456
1.41850,2.046220976
1.41900,1.435832161
1.41950,0.5202489379
1.42000,-0.09013987754
1.42050,0.2150545302
1.42100,0.5202489379
1.42150,1.130637753
1.42200,1.741026569
1.42250,1.435832161
1.42300,0.2150545302
1.42350,-0.09013987754
1.42400,0.2150545302
1.42450,1.130637753
1.42500,2.351415384
1.42550,6.318942684
1.42600,11.81244202
1.42650,14.55919169
1.42700,11.50724762
1.42750,5.708553869
1.42800,3.266998607
1.42850,4.792970646
1.42900,4.792970646
1.42950,2.046220976
1.43000,0.5202489379
1.43050,2.961804199
1.43100,6.013748276
1.43150,5.403359461
1.43200,2.351415384
1.43250,-0.09013987754
1.43300,-0.7005286929
1.43350,-1.921306324
1.43400,-3.75247277
1.43450,-4.057667178
1.43500,-2.531695139
1.43550,-1.005723101
1.43600,-0.3953342852
1.43650,-1.310917508
1.43700,-3.447278362
1.43750,-5.888833624
1.43800,-7.109611255
1.43850,-6.804416847
1.43900,-5.888833624
1.43950,-6.194028032
1.44000,-7.109611255
1.44050,-8.330388885
1.44100,-8.940777701
1.44150,-9.245972109
1.44200,-8.940777701
1.44250,-8.330388885
1.44300,-7.109611255
1.44350,-4.973250401
1.44400,-1.310917508
1.44450,2.656609792
1.44500,6.9293315
1.44550,9.370886761
1.44600,8.455303538
1.44650,3.572193015
1.44700,-1.616111916
1.44750,-2.836889547
1.44800,1.435832161
1.44850,7.234525907
1.44900,8.455303538
1.44950,4.792970646
1.45000,0.5202489379
1.45050,-1.310917508
1.45100,-2.531695139
1.45150,-3.75247277
1.45200,-5.278444808
1.45250,-6.804416847
1.45300,-8.940777701
1.45350,-10.77194415
1.45400,-11.68752737
1.45450,-10.77194415
1.45500,-9.551166516
1.45550,-9.551166516
1.45600,-9.856360924
1.45650,-9.245972109
1.45700,-7.72000007
1.45750,-6.499222439
1.45800,-5.888833624
1.45850,-5.583639216
1.45900,-4.362861585
1.45950,-3.447278362
1.46000,-4.057667178
1.46050,-5.278444808
1.46100,-5.278444808
1.46150,-3.142083955
1.46200,-0.3953342852
1.46250,0.8254433456
1.46300,1.435832161
1.46350,1.741026569
1.46400,1.741026569
1.46450,0.8254433456
1.46500,0.2150545302
1.46550,0.5202489379
1.46600,2.046220976
1.46650,2.961804199
1.46700,2.961804199
1.46750,2.351415384
1.46800,1.741026569
1.46850,1.435832161
1.46900,2.046220976
1.46950,2.961804199
1.47000,3.572193015
1.47050,3.572193015
1.47100,3.572193015
1.47150,3.877387423
1.47200,3.877387423
1.47250,3.266998607
1.47300,2.656609792
1.47350,2.961804199
1.47400,3.572193015
1.47450,3.572193015
1.47500,2.961804199
1.47550,2.656609792
1.47600,2.961804199
1.47650,2.351415384
1.47700,1.130637753
1.47750,0.2150545302
1.47800,0.2150545302
1.47850,0.2150545302
1.47900,-0.09013987754
1.47950,-1.005723101
1.48000,-1.921306324
1.48050,-1.921306324
1.48100,-1.005723101
1.48150,-0.09013987754
1.48200,0.5202489379
1.48250,-0.09013987754
1.48300,-0.7005286929
1.48350,-0.7005286929
1.48400,0.8254433456
1.48450,3.572193015
1.48500,5.708553869
1.48550,6.318942684
1.48600,5.403359461
1.48650,4.487776238
1.48700,5.098165053
1.48750,4.792970646
1.48800,2.046220976
1.48850,-0.7005286929
1.48900,-0.3953342852
1.48950,2.656609792
1.49000,4.487776238
1.49050,2.351415384
1.49100,-1.005723101
1.49150,-2.226500731
1.49200,-1.005723101
1.49250,-0.09013987754
1.49300,-1.005723101
1.49350,-2.226500731
1.49400,-2.226500731
1.49450,-1.616111916
1.49500,-1.616111916
1.49550,-1.616111916
1.49600,-0.3953342852
1.49650,1.130637753
1.49700,2.961804199
1.49750,4.18258183
1.49800,5.098165053
1.49850,4.487776238
1.49900,3.266998607
1.49950,2.046220976
1.50000,2.046220976
1.50050,2.656609792
1.50100,2.351415384
1.50150,1.435832161
1.50200,0.5202489379
1.50250,0.2150545302
1.50300,0.2150545302
1.50350,0.2150545302
1.50400,-0.09013987754
1.50450,-0.09013987754
1.50500,-0.3953342852
1.50550,-0.7005286929
1.50600,-0.3953342852
1.50650,-0.09013987754
1.50700,-0.3953342852
1.50750,-1.005723101
1.50800,-1.616111916
1.50850,-1.921306324
1.50900,-2.531695139
1.50950,-2.226500731
1.51000,-1.310917508
1.51050,-0.3953342852
1.51100,-0.3953342852
1.51150,-1.005723101
1.51200,-0.09013987754
1.51250,0.8254433456
1.51300,1.130637753
1.51350,2.656609792
1.51400,6.9293315
1.51450,11.81244202
1.51500,12.42283084
1.51550,8.455303538
1.51600,4.792970646
1.51650,3.877387423
1.51700,2.351415384
1.51750,-1.616111916
1.51800,-5.278444808
1.51850,-4.362861585
1.51900,-0.7005286929
1.51950,-0.3953342852
1.52000,-3.75247277
1.52050,-6.804416847
1.52100,-7.72000007
1.52150,-7.72000007
1.52200,-8.635583293
1.52250,-9.245972109
1.52300,-8.330388885
1.52350,-6.194028032
1.52400,-5.278444808
1.52450,-4.973250401
1.52500,-4.362861585
1.52550,-4.057667178
1.52600,-4.973250401
1.52650,-6.499222439
1.52700,-6.804416847
1.52750,-4.973250401
1.52800,-3.142083955
1.52850,-1.921306324
1.52900,-1.616111916
1.52950,-1.310917508
1.53000,-1.005723101
1.53050,-0.7005286929
1.53100,-0.3953342852
1.53150,0.2150545302
1.53200,1.741026569
1.53250,3.572193015
1.53300,4.792970646
1.53350,5.098165053
1.53400,3.877387423
1.53450,1.741026569
1.53500,-0.09013987754
1.53550,-0.3953342852
1.53600,0.5202489379
1.53650,2.961804199
1.53700,4.792970646
1.53750,5.403359461
1.53800,4.18258183
1.53850,2.656609792
1.53900,1.741026569
1.53950,1.435832161
1.54000,1.130637753
1.54050,0.2150545302
1.54100,-0.3953342852
1.54150,-0.7005286929
1.54200,-1.005723101
1.54250,-1.310917508
1.54300,-1.310917508
1.54350,-1.310917508
1.54400,-1.616111916
1.54450,-1.921306324
1.54500,-1.310917508
1.54550,0.2150545302
1.54600,1.435832161
1.54650,1.741026569
1.54700,1.435832161
1.54750,0.5202489379
1.54800,-0.09013987754
1.54850,-0.3953342852
1.54900,-0.09013987754
1.54950,0.8254433456
1.55000,0.5202489379
1.55050,-0.09013987754
1.55100,-0.3953342852
1.55150,-0.09013987754
1.55200,-0.09013987754
1.55250,-1.005723101
1.55300,-1.310917508
1.55350,0.2150545302
1.55400,1.741026569
1.55450,0.8254433456
1.55500,-1.005723101
1.55550,-1.616111916
1.55600,-0.3953342852
1.55650,1.130637753
1.55700,1.741026569
1.55750,1.435832161
1.55800,1.435832161
1.55850,2.351415384
1.55900,2.656609792
1.55950,2.351415384
1.56000,1.741026569
1.56050,1.435832161
1.56100,1.435832161
1.56150,0.5202489379
1.56200,-0.3953342852
1.56250,-0.3953342852
1.56300,1.130637753
1.56350,3.877387423
1.56400,5.403359461
1.56450,5.098165053
1.56500,3.572193015
1.56550,1.741026569
1.56600,0.8254433456
1.56650,0.8254433456
1.56700,1.130637753
1.56750,1.435832161
1.56800,1.741026569
1.56850,2.046220976
1.56900,1.741026569
1.56950,0.5202489379
1.57000,-0.7005286929
1.57050,-1.616111916
1.57100,-1.310917508
1.57150,-0.3953342852
1.57200,0.5202489379
1.57250,0.8254433456
1.57300,-0.09013987754
1.57350,-0.7005286929
1.57400,-0.09013987754
1.57450,1.130637753
1.57500,0.8254433456
1.57550,-0.7005286929
1.57600,-1.005723101
1.57650,0.8254433456
1.57700,1.741026569
1.57750,-0.3953342852
1.57800,-1.310917508
1.57850,3.572193015
1.57900,12.11763643
1.57950,15.47477492
1.58000,12.11763643
1.58050,7.234525907
1.58100,5.708553869
1.58150,6.013748276
1.58200,5.098165053
1.58250,2.961804199
1.58300,0.5202489379
1.58350,-1.616111916
1.58400,-2.226500731
1.58450,-0.09013987754
1.58500,2.961804199
1.58550,2.351415384
1.58600,-1.921306324
1.58650,-5.888833624
1.58700,-6.804416847
1.58750,-6.804416847
1.58800,-8.635583293
1.58850,-11.38233296
1.58900,-12.908305
1.58950,-13.21349941
1.59000,-14.73947145
1.59050,-15.96024908
1.59100,-15.96024908
1.59150,-15.65505467
1.59200,-15.65505467
1.59250,-14.73947145
1.59300,-11.38233296
1.59350,-7.414805662
1.59400,-4.057667178
1.59450,-1.616111916
1.59500,-0.09013987754
1.59550,-0.09013987754
1.59600,-0.3953342852
1.59650,1.130637753
1.59700,6.318942684
1.59750,9.981275577
1.59800,9.065692354
1.59850,6.9293315
1.59900,8.15010913
1.59950,11.81244202
1.60000,13.03321965
1.60050,9.676081169
1.60100,5.708553869
1.60150,3.266998607
1.60200,1.435832161
1.60250,-0.7005286929
1.60300,-2.531695139
1.60350,-3.75247277
1.60400,-4.973250401
1.60450,-6.804416847
1.60500,-7.72000007
1.60550,-7.109611255
1.60600,-7.414805662
1.60650,-8.635583293
1.60700,-8.635583293
1.60750,-6.804416847
1.60800,-4.668055993
1.60850,-3.447278362
1.60900,-2.226500731
1.60950,-1.005723101
1.61000,-0.7005286929
1.61050,-1.310917508
1.61100,-1.005723101
1.61150,1.741026569
1.61200,4.18258183
1.61250,4.18258183
1.61300,2.046220976
1.61350,-0.09013987754
1.61400,-1.310917508
1.61450,-2.836889547
1.61500,-4.057667178
1.61550,-4.057667178
1.61600,-3.75247277
1.61650,-4.362861585
1.61700,-4.668055993
1.61750,-3.142083955
1.61800,-1.005723101
1.61850,-0.3953342852
1.61900,-1.005723101
1.61950,-1.005723101
1.62000,0.5202489379
1.62050,2.046220976
1.62100,2.351415384
1.62150,2.656609792
1.62200,2.961804199
1.62250,2.656609792
1.62300,1.435832161
1.62350,0.5202489379
1.62400,0.5202489379
1.62450,0.8254433456
1.62500,0.2150545302
1.62550,-0.09013987754
1.62600,-0.09013987754
1.62650,1.130637753
1.62700,2.351415384
1.62750,3.266998607
1.62800,3.266998607
1.62850,2.351415384
1.62900,1.130637753
1.62950,0.5202489379
1.63000,0.5202489379
1.63050,1.435832161
1.63100,2.046220976
1.63150,1.741026569
1.63200,1.130637753
1.63250,1.130637753
1.63300,1.741026569
1.63350,1.741026569
1.63400,0.5202489379
1.63450,-0.3953342852
1.63500,-0.3953342852
1.63550,0.5202489379
1.63600,0.8254433456
1.63650,-0.3953342852
1.63700,-1.616111916
1.63750,-0.3953342852
1.63800,0.8254433456
1.63850,1.435832161
1.63900,0.8254433456
1.63950,0.8254433456
1.64000,2.351415384
1.64050,3.266998607
1.64100,2.351415384
1.64150,0.5202489379
1.64200,-0.09013987754
1.64250,0.2150545302
1.64300,1.130637753
1.64350,0.8254433456
1.64400,-0.09013987754
1.64450,0.2150545302
1.64500,1.435832161
1.64550,1.741026569
1.64600,1.435832161
1.64650,1.130637753
1.64700,1.435832161
1.64750,1.130637753
1.64800,-0.09013987754
1.64850,0.2150545302
1.64900,2.656609792
1.64950,5.403359461
1.65000,6.013748276
1.65050,5.708553869
1.65100,5.098165053
1.65150,4.487776238
1.65200,2.961804199
1.65250,2.046220976
1.65300,2.656609792
1.65350,4.18258183
1.65400,4.18258183
1.65450,3.877387423
1.65500,5.098165053
1.65550,7.234525907
1.65600,7.844914723
1.65650,5.708553869
1.65700,4.487776238
1.65750,5.098165053
1.65800,6.318942684
1.65850,6.9293315
1.65900,6.9293315
1.65950,7.234525907
1.66000,6.318942684
1.66050,3.266998607
1.66100,-0.7005286929
1.66150,-3.447278362
1.66200,-5.583639216
1.66250,-8.025194478
1.66300,-10.77194415
1.66350,-12.60311059
1.66400,-12.908305
1.66450,-12.908305
1.66500,-13.82388822
1.66550,-13.21349941
1.66600,-7.414805662
1.66650,2.351415384
1.66700,9.676081169
1.66750,9.676081169
1.66800,4.487776238
1.66850,0.8254433456
1.66900,0.2150545302
1.66950,-1.005723101
1.67000,-3.75247277
1.67050,-4.057667178
1.67100,-1.310917508
1.67150,-0.7005286929
1.67200,-4.668055993
1.67250,-10.16155533
1.67300,-12.60311059
1.67350,-12.908305
1.67400,-14.12908263
1.67450,-15.65505467
1.67500,-14.43427704
1.67550,-11.68752737
1.67600,-8.940777701
1.67650,-5.583639216
1.67700,-0.09013987754
1.67750,5.098165053
1.67800,6.318942684
1.67850,4.487776238
1.67900,2.961804199
1.67950,3.266998607
1.68000,2.656609792
1.68050,0.8254433456
1.68100,0.2150545302
1.68150,1.435832161
1.68200,1.741026569
1.68250,-0.3953342852
1.68300,-3.447278362
1.68350,-4.973250401
1.68400,-4.362861585
1.68450,-3.447278362
1.68500,-2.531695139
1.68550,-1.921306324
1.68600,-1.921306324
1.68650,-2.531695139
1.68700,-2.531695139
1.68750,-0.7005286929
1.68800,1.435832161
1.68850,3.266998607
1.68900,3.572193015
1.68950,3.266998607
1.69000,3.266998607
1.69050,3.572193015
1.69100,3.266998607
1.69150,2.351415384
1.69200,2.046220976
1.69250,2.351415384
1.69300,2.351415384
1.69350,1.741026569
1.69400,0.2150545302
1.69450,-0.3953342852
1.69500,-1.005723101
1.69550,-0.09013987754
1.69600,1.130637753
1.69650,2.961804199
1.69700,3.572193015
1.69750,3.572193015
1.69800,3.572193015
1.69850,3.266998607
1.69900,2.046220976
1.69950,0.8254433456
1.70000,1.130637753
1.70050,2.656609792
1.70100,3.572193015
1.70150,3.266998607
1.70200,2.961804199
1.70250,2.656609792
1.70300,1.741026569
1.70350,0.5202489379
1.70400,0.5202489379
1.70450,1.130637753
1.70500,0.8254433456
1.70550,-0.09013987754
1.70600,0.2150545302
1.70650,2.046220976
1.70700,2.046220976
1.70750,-0.09013987754
1.70800,-1.310917508
1.70850,-0.09013987754
1.70900,2.046220976
1.70950,1.435832161
1.71000,-0.7005286929
1.71050,-0.7005286929
1.71100,0.8254433456
1.71150,1.435832161
1.71200,-0.09013987754
1.71250,-0.3953342852
1.71300,1.130637753
1.71350,3.877387423
1.71400,4.18258183
1.71450,2.351415384
1.71500,0.2150545302
1.71550,-0.3953342852
1.71600,-0.09013987754
1.71650,-0.09013987754
1.71700,-0.09013987754
1.71750,-0.7005286929
1.71800,-1.616111916
1.71850,-1.310917508
1.71900,-1.310917508
1.71950,-2.226500731
1.72000,-2.836889547
1.72050,-2.531695139
1.72100,-1.616111916
1.72150,-1.616111916
1.72200,-1.921306324
1.72250,-1.310917508
1.72300,-0.09013987754
1.72350,-0.09013987754
1.72400,0.5202489379
1.72450,2.656609792
1.72500,6.624137092
1.72550,9.981275577
1.72600,10.28646998
1.72650,8.15010913
1.72700,5.708553869
1.72750,3.572193015
1.72800,2.351415384
1.72850,0.8254433456
1.72900,-1.005723101
1.72950,-2.531695139
1.73000,-1.921306324
1.73050,-0.09013987754
1.73100,-0.09013987754
1.73150,-2.531695139
1.73200,-4.973250401
1.73250,-4.973250401
1.73300,-3.75247277
1.73350,-4.057667178
1.73400,-5.888833624
1.73450,-6.499222439
1.73500,-6.194028032
1.73550,-6.804416847
1.73600,-7.72000007
1.73650,-7.109611255
1.73700,-6.194028032
1.73750,-7.109611255
1.73800,-8.025194478
1.73850,-6.499222439
1.73900,-2.531695139
1.73950,-0.09013987754
1.74000,-0.3953342852
1.74050,-1.616111916
1.74100,-1.005723101
1.74150,-0.09013987754
1.74200,-0.09013987754
1.74250,-1.616111916
1.74300,-2.531695139
1.74350,-1.310917508
1.74400,1.741026569
1.74450,4.487776238
1.74500,5.403359461
1.74550,4.792970646
1.74600,5.098165053
1.74650,5.708553869
1.74700,5.403359461
1.74750,3.266998607
1.74800,2.046220976
1.74850,2.046220976
1.74900,2.351415384
1.74950,0.8254433456
1.75000,-1.310917508
1.75050,-2.226500731
1.75100,-2.226500731
1.75150,-2.531695139
1.75200,-3.142083955
1.75250,-1.921306324
1.75300,0.2150545302
1.75350,1.435832161
1.75400,0.2150545302
1.75450,-0.3953342852
1.75500,-0.09013987754
1.75550,0.5202489379
1.75600,0.2150545302
1.75650,-0.7005286929
1.75700,-0.7005286929
1.75750,0.2150545302
1.75800,2.046220976
1.75850,4.487776238
1.75900,6.9293315
1.75950,7.234525907
1.76000,5.098165053
1.76050,2.656609792
1.76100,3.266998607
1.76150,5.403359461
1.76200,5.098165053
1.76250,1.435832161
1.76300,-2.531695139
1.76350,-4.668055993
1.76400,-4.668055993
1.76450,-4.057667178
1.76500,-3.75247277
1.76550,-3.447278362
1.76600,-4.362861585
1.76650,-6.804416847
1.76700,-8.025194478
1.76750,-6.804416847
1.76800,-4.973250401
1.76850,-4.973250401
1.76900,-5.583639216
1.76950,-5.278444808
1.77000,-3.447278362
1.77050,-1.921306324
1.77100,-0.3953342852
1.77150,2.046220976
1.77200,3.877387423
1.77250,2.961804199
1.77300,0.5202489379
1.77350,-0.09013987754
1.77400,0.8254433456
1.77450,2.046220976
1.77500,1.435832161
1.77550,0.8254433456
1.77600,0.5202489379
1.77650,-0.09013987754
1.77700,-0.3953342852
1.77750,0.2150545302
1.77800,1.741026569
1.77850,1.435832161
1.77900,-0.3953342852
1.77950,-1.616111916
1.78000,-0.3953342852
1.78050,1.130637753
1.78100,1.130637753
1.78150,0.2150545302
1.78200,0.5202489379
1.78250,1.130637753
1.78300,0.5202489379
1.78350,-1.005723101
1.78400,-1.310917508
1.78450,0.2150545302
1.78500,2.351415384
1.78550,2.961804199
1.78600,2.961804199
1.78650,3.572193015
1.78700,4.792970646
1.78750,5.708553869
1.78800,6.013748276
1.78850,5.098165053
1.78900,3.266998607
1.78950,0.8254433456
1.79000,-0.3953342852
1.79050,-0.09013987754
1.79100,0.5202489379
1.79150,-0.09013987754
1.79200,-1.310917508
1.79250,-2.226500731
1.79300,-1.616111916
1.79350,-0.3953342852
1.79400,-0.09013987754
1.79450,-0.3953342852
1.79500,-1.005723101
1.79550,-1.310917508
1.79600,-1.310917508
1.79650,-1.005723101
1.79700,-0.09013987754
1.79750,-0.09013987754
1.79800,-0.7005286929
1.79850,-1.921306324
1.79900,-1.616111916
1.79950,-0.09013987754
1.80000,1.130637753
1.80050,0.2150545302
1.80100,-0.7005286929
1.80150,-0.3953342852
1.80200,0.2150545302
1.80250,0.5202489379
1.80300,-0.09013987754
1.80350,-0.3953342852
1.80400,0.2150545302
1.80450,0.8254433456
1.80500,0.8254433456
1.80550,0.5202489379
1.80600,1.130637753
1.80650,2.046220976
1.80700,3.266998607
1.80750,5.403359461
1.80800,9.065692354
1.80850,12.11763643
1.80900,12.11763643
1.80950,8.760497946
1.81000,5.098165053
1.81050,4.18258183
1.81100,4.18258183
1.81150,2.961804199
1.81200,0.2150545302
1.81250,-1.921306324
1.81300,-2.531695139
1.81350,-2.531695139
1.81400,-4.057667178
1.81450,-6.194028032
1.81500,-7.72000007
1.81550,-8.025194478
1.81600,-7.72000007
1.81650,-8.330388885
1.81700,-9.551166516
1.81750,-9.856360924
1.81800,-8.940777701
1.81850,-7.414805662
1.81900,-6.499222439
1.81950,-5.583639216
1.82000,-3.75247277
1.82050,-0.7005286929
1.82100,2.351415384
1.82150,2.961804199
1.82200,1.130637753
1.82250,-1.310917508
1.82300,-2.226500731
1.82350,-0.09013987754
1.82400,2.656609792
1.82450,3.877387423
1.82500,2.656609792
1.82550,0.2150545302
1.82600,-0.3953342852
1.82650,-0.09013987754
1.82700,-0.09013987754
1.82750,-0.3953342852
1.82800,-0.3953342852
1.82850,-0.09013987754
1.82900,-0.3953342852
1.82950,-2.226500731
1.83000,-3.142083955
1.83050,-2.836889547
1.83100,-2.226500731
1.83150,-2.531695139
1.83200,-2.226500731
1.83250,-0.09013987754
1.83300,1.741026569
1.83350,0.8254433456
1.83400,-1.616111916
1.83450,-2.226500731
1.83500,-0.09013987754
1.83550,1.741026569
1.83600,1.741026569
1.83650,0.5202489379
1.83700,-0.09013987754
1.83750,-0.3953342852
1.83800,-0.7005286929
1.83850,-0.3953342852
1.83900,0.2150545302
1.83950,0.2150545302
1.84000,-1.310917508
1.84050,-2.531695139
1.84100,-1.310917508
1.84150,1.130637753
1.84200,2.656609792
1.84250,3.266998607
1.84300,3.877387423
1.84350,5.403359461
1.84400,6.013748276
1.84450,5.098165053
1.84500,4.18258183
1.84550,3.572193015
1.84600,2.656609792
1.84650,0.8254433456
1.84700,-0.7005286929
1.84750,-1.616111916
1.84800,-2.836889547
1.84850,-4.668055993
1.84900,-6.194028032
1.84950,-6.499222439
1.85000,-6.499222439
1.85050,-5.888833624
1.85100,-5.278444808
1.85150,-4.362861585
1.85200,-4.362861585
1.85250,-4.973250401
1.85300,-3.75247277
1.85350,0.5202489379
1.85400,5.708553869
1.85450,7.844914723
1.85500,5.708553869
1.85550,2.351415384
1.85600,0.2150545302
1.85650,0.2150545302
1.85700,0.5202489379
1.85750,0.5202489379
1.85800,-0.09013987754
1.85850,-2.226500731
1.85900,-4.362861585
1.85950,-4.973250401
1.86000,-4.057667178
1.86050,-2.531695139
1.86100,-1.005723101
1.86150,-0.09013987754
1.86200,0.5202489379
1.86250,0.2150545302
1.86300,-0.3953342852
1.86350,-0.7005286929
1.86400,-0.09013987754
1.86450,2.046220976
1.86500,4.18258183
1.86550,5.403359461
1.86600,4.792970646
1.86650,3.266998607
1.86700,2.656609792
1.86750,3.572193015
1.86800,3.266998607
1.86850,1.130637753
1.86900,-1.005723101
1.86950,-1.005723101
1.87000,-0.09013987754
1.87050,-1.310917508
1.87100,-3.447278362
1.87150,-4.057667178
1.87200,-2.531695139
1.87250,-1.005723101
1.87300,-1.616111916
1.87350,-2.836889547
1.87400,-3.447278362
1.87450,-2.836889547
1.87500,-2.226500731
1.87550,-1.310917508
1.87600,-0.7005286929
1.87650,-0.3953342852
1.87700,-0.09013987754
1.87750,0.5202489379
1.87800,1.130637753
1.87850,1.435832161
1.87900,1.435832161
1.87950,2.046220976
1.88000,2.961804199
1.88050,2.656609792
1.88100,1.435832161
1.88150,-0.09013987754
1.88200,-1.310917508
1.88250,-1.921306324
1.88300,-0.7005286929
1.88350,1.435832161
1.88400,3.572193015
1.88450,3.266998607
1.88500,2.046220976
1.88550,2.351415384
1.88600,3.266998607
1.88650,2.961804199
1.88700,0.5202489379
1.88750,-1.005723101
1.88800,-1.616111916
1.88850,-1.616111916
1.88900,-2.836889547
1.88950,-4.362861585
1.89000,-4.668055993
1.89050,-3.447278362
1.89100,-2.836889547
1.89150,-3.447278362
1.89200,-4.057667178
1.89250,-4.057667178
1.89300,-3.142083955
1.89350,-2.226500731
1.89400,-1.616111916
1.89450,-1.616111916
1.89500,-1.616111916
1.89550,-1.310917508
1.89600,-0.09013987754
1.89650,2.961804199
1.89700,5.098165053
1.89750,5.098165053
1.89800,5.098165053
1.89850,7.234525907
1.89900,10.28646998
1.89950,10.59166439
1.90000,6.9293315
1.90050,3.877387423
1.90100,3.572193015
1.90150,4.18258183
1.90200,3.572193015
1.90250,2.046220976
1.90300,1.741026569
1.90350,1.741026569
1.90400,0.2150545302
1.90450,-2.226500731
1.90500,-4.362861585
1.90550,-4.362861585
1.90600,-4.362861585
1.90650,-4.973250401
1.90700,-5.888833624
1.90750,-6.194028032
1.90800,-6.194028032
1.90850,-6.804416847
1.90900,-6.804416847
1.90950,-5.583639216
1.91000,-4.362861585
1.91050,-4.973250401
1.91100,-6.804416847
1.91150,-6.499222439
1.91200,-3.142083955
1.91250,0.5202489379
1.91300,2.656609792
1.91350,2.351415384
1.91400,1.741026569
1.91450,1.130637753
1.91500,0.5202489379
1.91550,-0.09013987754
1.91600,-0.3953342852
1.91650,-0.7005286929
1.91700,-0.09013987754
1.91750,0.8254433456
1.91800,2.046220976
1.91850,1.741026569
1.91900,-0.09013987754
1.91950,-1.005723101
1.92000,-1.005723101
1.92050,-0.7005286929
1.92100,-0.3953342852
1.92150,0.2150545302
1.92200,2.046220976
1.92250,3.572193015
1.92300,4.487776238
1.92350,6.624137092
1.92400,9.370886761
1.92450,9.981275577
1.92500,7.234525907
1.92550,4.18258183
1.92600,4.18258183
1.92650,6.013748276
1.92700,6.318942684
1.92750,3.572193015
1.92800,-0.09013987754
1.92850,-3.142083955
1.92900,-4.973250401
1.92950,-6.194028032
1.93000,-7.414805662
1.93050,-7.414805662
1.93100,-4.668055993
1.93150,-0.09013987754
1.93200,3.877387423
1.93250,3.877387423
1.93300,0.2150545302
1.93350,-2.531695139
1.93400,-3.447278362
1.93450,-3.142083955
1.93500,-3.75247277
1.93550,-4.362861585
1.93600,-3.142083955
1.93650,-2.226500731
1.93700,-2.226500731
1.93750,-2.836889547
1.93800,-2.531695139
1.93850,-1.310917508
1.93900,-1.005723101
1.93950,-1.616111916
1.94000,-2.226500731
1.94050,-1.921306324
1.94100,-0.09013987754
1.94150,1.741026569
1.94200,3.572193015
1.94250,3.877387423
1.94300,3.877387423
1.94350,3.877387423
1.94400,3.572193015
1.94450,1.435832161
1.94500,-1.921306324
1.94550,-4.362861585
1.94600,-4.057667178
1.94650,-3.447278362
1.94700,-3.75247277
1.94750,-4.057667178
1.94800,-3.447278362
1.94850,-1.616111916
1.94900,-1.005723101
1.94950,-1.310917508
1.95000,-1.005723101
1.95050,-0.09013987754
1.95100,1.130637753
1.95150,0.5202489379
1.95200,-0.3953342852
1.95250,-0.7005286929
1.95300,-0.09013987754
1.95350,0.5202489379
1.95400,0.5202489379
1.95450,0.5202489379
1.95500,1.435832161
1.95550,2.351415384
1.95600,2.351415384
1.95650,1.741026569
1.95700,1.130637753
1.95750,0.5202489379
1.95800,-0.09013987754
1.95850,-0.09013987754
1.95900,0.2150545302
1.95950,1.435832161
1.96000,2.656609792
1.96050,3.572193015
1.96100,3.266998607
1.96150,2.656609792
1.96200,2.961804199
1.96250,4.487776238
1.96300,5.403359461
1.96350,4.18258183
1.96400,2.046220976
1.96450,2.046220976
1.96500,3.877387423
1.96550,4.792970646
1.96600,3.266998607
1.96650,1.130637753
1.96700,0.8254433456
1.96750,1.130637753
1.96800,-0.09013987754
1.96850,-1.005723101
1.96900,-0.09013987754
1.96950,2.656609792
1.97000,4.18258183
1.97050,3.877387423
1.97100,3.877387423
1.97150,4.18258183
1.97200,3.572193015
1.97250,1.741026569
1.97300,0.2150545302
1.97350,0.2150545302
1.97400,-0.3953342852
1.97450,-2.836889547
1.97500,-4.362861585
1.97550,-4.362861585
1.97600,-4.057667178
1.97650,-4.973250401
1.97700,-5.583639216
1.97750,-4.362861585
1.97800,-2.226500731
1.97850,-1.310917508
1.97900,-1.310917508
1.97950,-1.310917508
1.98000,-1.005723101
1.98050,-0.7005286929
1.98100,-0.7005286929
1.98150,-0.3953342852
1.98200,-0.09013987754
1.98250,0.5202489379
1.98300,1.435832161
1.98350,1.435832161
1.98400,-0.09013987754
1.98450,-1.616111916
1.98500,-1.310917508
1.98550,0.2150545302
1.98600,1.130637753
1.98650,-0.09013987754
1.98700,-1.005723101
1.98750,-0.7005286929
1.98800,0.2150545302
1.98850,0.2150545302
1.98900,-0.7005286929
1.98950,-1.921306324
1.99000,-1.921306324
1.99050,-0.09013987754
1.99100,3.266998607
1.99150,5.708553869
1.99200,4.792970646
1.99250,1.435832161
1.99300,-0.7005286929
1.99350,-0.7005286929
1.99400,-0.09013987754
1.99450,-0.7005286929
1.99500,-0.7005286929
1.99550,1.741026569
1.99600,6.624137092
1.99650,9.676081169
1.99700,8.760497946
1.99750,4.487776238
1.99800,0.5202489379
1.99850,1.130637753
1.99900,7.844914723
1.99950,15.77996932
2.00000,19.13710781
2.00050,15.47477492
2.00100,9.065692354
2.00150,5.708553869
2.00200,4.792970646
2.00250,2.351415384
2.00300,-1.005723101
2.00350,-3.75247277
2.00400,-5.583639216
2.00450,-8.025194478
2.00500,-11.38233296
2.00550,-14.12908263
2.00600,-15.04466585
2.00650,-15.04466585
2.00700,-16.26544349
2.00750,-17.48622112
2.00800,-16.26544349
2.00850,-11.07713855
2.00900,-4.057667178
2.00950,0.8254433456
2.01000,2.351415384
2.01050,0.5202489379
2.01100,-2.226500731
2.01150,-4.057667178
2.01200,-4.973250401
2.01250,-4.668055993
2.01300,-4.362861585
2.01350,-5.583639216
2.01400,-7.72000007
2.01450,-8.635583293
2.01500,-7.109611255
2.01550,-4.973250401
2.01600,-5.888833624
2.01650,-9.245972109
2.01700,-10.46674974
2.01750,-6.804416847
2.01800,-1.310917508
2.01850,0.8254433456
2.01900,0.5202489379
2.01950,0.5202489379
2.02000,1.741026569
2.02050,1.741026569
2.02100,-0.09013987754
2.02150,-2.226500731
2.02200,-2.226500731
2.02250,-1.616111916
2.02300,-1.616111916
2.02350,-2.531695139
2.02400,-3.447278362
2.02450,-3.447278362
2.02500,-2.836889547
2.02550,-1.921306324
2.02600,-0.7005286929
2.02650,-0.09013987754
2.02700,0.2150545302
2.02750,1.130637753
2.02800,2.656609792
2.02850,4.487776238
2.02900,5.098165053
2.02950,4.792970646
2.03000,4.18258183
2.03050,3.572193015
2.03100,3.572193015
2.03150,3.572193015
2.03200,3.572193015
2.03250,2.961804199
2.03300,2.656609792
2.03350,2.351415384
2.03400,2.656609792
2.03450,2.961804199
2.03500,2.351415384
2.03550,1.435832161
2.03600,0.5202489379
2.03650,1.130637753
2.03700,2.351415384
2.03750,3.266998607
2.03800,2.656609792
2.03850,1.741026569
2.03900,2.046220976
2.03950,3.572193015
2.04000,5.098165053
2.04050,5.098165053
2.04100,3.877387423
2.04150,2.351415384
2.04200,2.351415384
2.04250,2.656609792
2.04300,2.351415384
2.04350,1.130637753
2.04400,0.5202489379
2.04450,0.5202489379
2.04500,1.130637753
2.04550,1.130637753
2.04600,0.8254433456
2.04650,1.130637753
2.04700,1.130637753
2.04750,1.130637753
2.04800,0.8254433456
2.04850,0.2150545302
2.04900,-0.09013987754
2.04950,-1.005723101
2.05000,-1.310917508
2.05050,-0.7005286929
2.05100,-0.3953342852
2.05150,-1.005723101
2.05200,-1.921306324
2.05250,-1.616111916
2.05300,-1.310917508
2.05350,-1.005723101
2.05400,0.2150545302
2.05450,2.961804199
2.05500,5.403359461
2.05550,6.013748276
2.05600,5.098165053
2.05650,4.487776238
2.05700,3.877387423
2.05750,2.961804199
2.05800,2.351415384
2.05850,2.961804199
2.05900,4.487776238
2.05950,4.18258183
2.06000,1.130637753
2.06050,-1.921306324
2.06100,-3.142083955
2.06150,-2.226500731
2.06200,-1.616111916
2.06250,-3.447278362
2.06300,-6.194028032
2.06350,-8.025194478
2.06400,-8.025194478
2.06450,-7.414805662
2.06500,-7.109611255
2.06550,-6.804416847
2.06600,-5.583639216
2.06650,-3.75247277
2.06700,-2.836889547
2.06750,-2.531695139
2.06800,-1.616111916
2.06850,-0.09013987754
2.06900,0.8254433456
2.06950,0.8254433456
2.07000,1.435832161
2.07050,2.961804199
2.07100,3.877387423
2.07150,3.266998607
2.07200,2.351415384
2.07250,2.046220976
2.07300,2.046220976
2.07350,1.741026569
2.07400,1.130637753
2.07450,0.8254433456
2.07500,1.130637753
2.07550,1.741026569
2.07600,2.351415384
2.07650,2.656609792
2.07700,1.741026569
2.07750,-0.09013987754
2.07800,-1.616111916
2.07850,-1.310917508
2.07900,-0.3953342852
2.07950,-0.7005286929
2.08000,-1.310917508
2.08050,-0.09013987754
2.08100,1.130637753
2.08150,0.2150545302
2.08200,-2.226500731
2.08250,-4.057667178
2.08300,-3.447278362
2.08350,-2.531695139
2.08400,-3.75247277
2.08450,-5.888833624
2.08500,-5.583639216
2.08550,-4.362861585
2.08600,-4.362861585
2.08650,-5.278444808
2.08700,-4.057667178
2.08750,-1.005723101
2.08800,-0.09013987754
2.08850,-1.616111916
2.08900,-2.226500731
2.08950,0.8254433456
2.09000,5.708553869
2.09050,7.234525907
2.09100,4.792970646
2.09150,2.046220976
2.09200,0.8254433456
2.09250,0.8254433456
2.09300,0.2150545302
2.09350,0.2150545302
2.09400,-0.09013987754
2.09450,-0.3953342852
2.09500,-1.616111916
2.09550,-2.531695139
2.09600,-2.836889547
2.09650,-2.531695139
2.09700,-1.921306324
2.09750,-0.7005286929
2.09800,0.2150545302
2.09850,0.2150545302
2.09900,-0.09013987754
2.09950,-0.3953342852
2.10000,-0.09013987754
2.10050,-0.09013987754
2.10100,-0.09013987754
2.10150,-0.3953342852
2.10200,-0.09013987754
2.10250,-0.09013987754
2.10300,-0.3953342852
2.10350,-0.09013987754
2.10400,0.5202489379
2.10450,-0.09013987754
2.10500,-1.005723101
2.10550,-1.616111916
2.10600,-0.3953342852
2.10650,-0.09013987754
2.10700,-0.09013987754
2.10750,0.8254433456
2.10800,2.961804199
2.10850,4.487776238
2.10900,3.266998607
2.10950,1.130637753
2.11000,0.8254433456
2.11050,2.046220976
2.11100,2.351415384
2.11150,2.351415384
2.11200,2.351415384
2.11250,2.046220976
2.11300,1.130637753
2.11350,-0.09013987754
2.11400,0.5202489379
2.11450,1.435832161
2.11500,1.435832161
2.11550,0.2150545302
2.11600,-0.09013987754
2.11650,1.130637753
2.11700,1.741026569
2.11750,1.130637753
2.11800,0.5202489379
2.11850,0.8254433456
2.11900,1.741026569
2.11950,1.130637753
2.12000,-0.09013987754
2.12050,-1.310917508
2.12100,-2.226500731
2.12150,-1.921306324
2.12200,-0.3953342852
2.12250,2.046220976
2.12300,4.792970646
2.12350,5.708553869
2.12400,5.098165053
2.12450,4.487776238
2.12500,4.487776238
2.12550,3.572193015
2.12600,2.046220976
2.12650,0.8254433456
2.12700,1.435832161
2.12750,2.351415384
2.12800,2.656609792
2.12850,2.351415384
2.12900,1.130637753
2.12950,-0.09013987754
2.13000,-0.09013987754
2.13050,3.572193015
2.13100,10.59166439
2.13150,15.77996932
2.13200,14.55919169
2.13250,8.15010913
2.13300,2.046220976
2.13350,-0.09013987754
2.13400,0.8254433456
2.13450,0.8254433456
2.13500,-1.005723101
2.13550,-5.278444808
2.13600,-8.635583293
2.13650,-9.856360924
2.13700,-8.940777701
2.13750,-7.72000007
2.13800,-6.804416847
2.13850,-6.499222439
2.13900,-5.583639216
2.13950,-5.278444808
2.14000,-4.973250401
2.14050,-4.668055993
2.14100,-4.057667178
2.14150,-4.057667178
2.14200,-5.583639216
2.14250,-6.804416847
2.14300,-7.109611255
2.14350,-6.804416847
2.14400,-6.804416847
2.14450,-6.499222439
2.14500,-5.583639216
2.14550,-6.194028032
2.14600,-8.635583293
2.14650,-10.77194415
2.14700,-10.46674974
2.14750,-8.025194478
2.14800,-3.75247277
2.14850,0.8254433456
2.14900,6.013748276
2.14950,8.760497946
2.15000,7.234525907
2.15050,4.18258183
2.15100,2.961804199
2.15150,2.961804199
2.15200,1.435832161
2.15250,-0.7005286929
2.15300,-1.921306324
2.15350,-1.310917508
2.15400,-1.310917508
2.15450,-2.836889547
2.15500,-4.668055993
2.15550,-5.278444808
2.15600,-5.278444808
2.15650,-4.362861585
2.15700,-2.836889547
2.15750,-1.616111916
2.15800,-1.616111916
2.15850,-1.921306324
2.15900,-1.616111916
2.15950,-0.3953342852
2.16000,0.2150545302
2.16050,0.2150545302
2.16100,0.8254433456
2.16150,2.046220976
2.16200,2.046220976
2.16250,1.130637753
2.16300,-0.09013987754
2.16350,-1.005723101
2.16400,-0.7005286929
2.16450,0.5202489379
2.16500,2.351415384
2.16550,3.877387423
2.16600,4.18258183
2.16650,4.487776238
2.16700,5.403359461
2.16750,6.318942684
2.16800,6.318942684
2.16850,6.013748276
2.16900,5.708553869
2.16950,4.792970646
2.17000,3.572193015
2.17050,2.961804199
2.17100,2.961804199
2.17150,2.046220976
2.17200,-0.3953342852
2.17250,-2.531695139
2.17300,-2.226500731
2.17350,-0.7005286929
2.17400,-0.7005286929
2.17450,-1.616111916
2.17500,-1.921306324
2.17550,-0.3953342852
2.17600,1.130637753
2.17650,2.351415384
2.17700,2.351415384
2.17750,2.046220976
2.17800,1.741026569
2.17850,2.351415384
2.17900,4.18258183
2.17950,5.708553869
2.18000,5.403359461
2.18050,3.877387423
2.18100,2.656609792
2.18150,1.435832161
2.18200,0.2150545302
2.18250,-0.7005286929
2.18300,-1.616111916
2.18350,-2.226500731
2.18400,-3.142083955
2.18450,-2.836889547
2.18500,-1.616111916
2.18550,-0.7005286929
2.18600,-1.616111916
2.18650,-2.836889547
2.18700,-2.836889547
2.18750,-2.226500731
2.18800,-2.836889547
2.18850,-4.057667178
2.18900,-4.668055993
2.18950,-4.057667178
2.19000,-3.447278362
2.19050,-3.142083955
2.19100,-2.836889547
2.19150,-2.226500731
2.19200,-1.921306324
2.19250,-1.921306324
2.19300,-0.7005286929
2.19350,0.2150545302
2.19400,0.5202489379
2.19450,-0.09013987754
2.19500,-0.3953342852
2.19550,-0.09013987754
2.19600,0.2150545302
2.19650,-0.09013987754
2.19700,-1.310917508
2.19750,-1.616111916
2.19800,-1.616111916
2.19850,-1.005723101
2.19900,-0.09013987754
2.19950,0.2150545302
2.20000,0.2150545302
2.20050,-0.09013987754
2.20100,-0.09013987754
2.20150,0.2150545302
2.20200,-0.09013987754
2.20250,-0.7005286929
2.20300,-0.3953342852
2.20350,0.5202489379
2.20400,1.130637753
2.20450,0.5202489379
2.20500,-0.09013987754
2.20550,0.2150545302
2.20600,2.046220976
2.20650,3.572193015
2.20700,3.572193015
2.20750,2.656609792
2.20800,1.435832161
2.20850,0.8254433456
2.20900,1.435832161
2.20950,2.656609792
2.21000,2.351415384
2.21050,0.8254433456
2.21100,-0.09013987754
2.21150,0.2150545302
2.21200,0.5202489379
2.21250,0.2150545302
2.21300,0.2150545302
2.21350,1.435832161
2.21400,2.961804199
2.21450,3.572193015
2.21500,3.266998607
2.21550,3.266998607
2.21600,2.351415384
2.21650,1.130637753
2.21700,0.5202489379
2.21750,0.8254433456
2.21800,1.130637753
2.21850,0.2150545302
2.21900,-0.3953342852
2.21950,-0.09013987754
2.22000,-0.09013987754
2.22050,-0.3953342852
2.22100,-0.7005286929
2.22150,-0.09013987754
2.22200,0.5202489379
2.22250,-0.7005286929
2.22300,-2.531695139
2.22350,-2.531695139
2.22400,-1.310917508
2.22450,-2.226500731
2.22500,-4.668055993
2.22550,-4.362861585
2.22600,-1.616111916
2.22650,0.2150545302
2.22700,-0.09013987754
2.22750,-1.005723101
2.22800,-0.3953342852
2.22850,-0.09013987754
2.22900,-1.005723101
2.22950,-2.531695139
2.23000,-1.616111916
2.23050,1.435832161
2.23100,4.18258183
2.23150,4.18258183
2.23200,3.266998607
2.23250,3.572193015
2.23300,5.403359461
2.23350,7.539720315
2.23400,8.760497946
2.23450,7.844914723
2.23500,6.318942684
2.23550,6.013748276
2.23600,7.234525907
2.23650,7.844914723
2.23700,5.708553869
2.23750,2.656609792
2.23800,-0.09013987754
2.23850,-2.836889547
2.23900,-4.668055993
2.23950,-5.278444808
2.24000,-5.278444808
2.24050,-7.109611255
2.24100,-10.46674974
2.24150,-12.908305
2.24200,-12.908305
2.24250,-11.99272178
2.24300,-12.908305
2.24350,-13.82388822
2.24400,-12.60311059
2.24450,-9.245972109
2.24500,-7.109611255
2.24550,-6.804416847
2.24600,-4.973250401
2.24650,-0.09013987754
2.24700,4.792970646
2.24750,6.9293315
2.24800,6.624137092
2.24850,5.708553869
2.24900,5.098165053
2.24950,3.266998607
2.25000,-0.09013987754
2.25050,-2.531695139
2.25100,-3.142083955
2.25150,-1.616111916
2.25200,-0.3953342852
2.25250,-0.7005286929
2.25300,-1.616111916
2.25350,-1.616111916
2.25400,-1.005723101
2.25450,-1.005723101
2.25500,-1.616111916
2.25550,-1.310917508
2.25600,-0.09013987754
2.25650,1.435832161
2.25700,2.656609792
2.25750,2.656609792
2.25800,2.656609792
2.25850,1.741026569
2.25900,0.5202489379
2.25950,-0.3953342852
2.26000,-1.310917508
2.26050,-2.226500731
2.26100,-3.142083955
2.26150,-3.447278362
2.26200,-3.142083955
2.26250,-2.836889547
2.26300,-3.447278362
2.26350,-4.362861585
2.26400,-4.668055993
2.26450,-3.447278362
2.26500,-1.310917508
2.26550,1.130637753
2.26600,2.656609792
2.26650,2.351415384
2.26700,1.130637753
2.26750,0.2150545302
2.26800,0.2150545302
2.26850,-0.09013987754
2.26900,-0.7005286929
2.26950,-0.7005286929
2.27000,-0.09013987754
2.27050,0.5202489379
2.27100,0.8254433456
2.27150,1.130637753
2.27200,2.046220976
2.27250,1.741026569
2.27300,0.2150545302
2.27350,-0.7005286929
2.27400,-0.09013987754
2.27450,2.046220976
2.27500,3.266998607
2.27550,2.961804199
2.27600,2.351415384
2.27650,1.741026569
2.27700,1.435832161
2.27750,1.130637753
2.27800,1.130637753
2.27850,1.741026569
2.27900,2.656609792
2.27950,3.266998607
2.28000,3.266998607
2.28050,2.351415384
2.28100,1.741026569
2.28150,1.435832161
2.28200,1.741026569
2.28250,2.351415384
2.28300,2.961804199
2.28350,3.877387423
2.28400,4.487776238
2.28450,4.18258183
2.28500,3.266998607
2.28550,2.656609792
2.28600,2.351415384
2.28650,2.351415384
2.28700,2.351415384
2.28750,3.572193015
2.28800,5.098165053
2.28850,5.708553869
2.28900,4.18258183
2.28950,2.046220976
2.29000,0.8254433456
2.29050,0.2150545302
2.29100,-0.3953342852
2.29150,-1.005723101
2.29200,-0.09013987754
2.29250,0.5202489379
2.29300,0.5202489379
2.29350,-0.7005286929
2.29400,-2.531695139
2.29450,-3.447278362
2.29500,-4.057667178
2.29550,-4.057667178
2.29600,-3.75247277
2.29650,-3.447278362
2.29700,-3.75247277
2.29750,-3.447278362
2.29800,-2.836889547
2.29850,-2.226500731
2.29900,-2.836889547
2.29950,-3.75247277
2.30000,-3.75247277
2.30050,-2.531695139
2.30100,-1.616111916
2.30150,-2.226500731
2.30200,-3.142083955
2.30250,-3.75247277
2.30300,-3.142083955
2.30350,-2.226500731
2.30400,-1.005723101
2.30450,-0.3953342852
2.30500,-0.7005286929
2.30550,-0.3953342852
2.30600,1.130637753
2.30650,3.877387423
2.30700,4.487776238
2.30750,2.046220976
2.30800,-0.09013987754
2.30850,0.5202489379
2.30900,2.351415384
2.30950,2.961804199
2.31000,2.046220976
2.31050,1.741026569
2.31100,2.656609792
2.31150,3.266998607
2.31200,1.741026569
2.31250,-0.09013987754
2.31300,-0.3953342852
2.31350,-0.09013987754
2.31400,-0.3953342852
2.31450,-1.310917508
2.31500,-1.921306324
2.31550,-1.616111916
2.31600,-1.005723101
2.31650,-1.310917508
2.31700,-1.310917508
2.31750,0.5202489379
2.31800,4.18258183
2.31850,7.539720315
2.31900,8.760497946
2.31950,8.760497946
2.32000,9.981275577
2.32050,11.20205321
2.32100,10.59166439
2.32150,7.234525907
2.32200,3.572193015
2.32250,1.130637753
2.32300,-0.09013987754
2.32350,-1.005723101
2.32400,-2.226500731
2.32450,-1.921306324
2.32500,-1.921306324
2.32550,-4.362861585
2.32600,-7.414805662
2.32650,-8.635583293
2.32700,-6.804416847
2.32750,-4.668055993
2.32800,-4.057667178
2.32850,-3.447278362
2.32900,-2.531695139
2.32950,-2.836889547
2.33000,-3.447278362
2.33050,-3.75247277
2.33100,-3.142083955
2.33150,-4.057667178
2.33200,-5.278444808
2.33250,-3.75247277
2.33300,-0.09013987754
2.33350,2.046220976
2.33400,-0.7005286929
2.33450,-5.888833624
2.33500,-8.330388885
2.33550,-7.72000007
2.33600,-6.804416847
2.33650,-5.888833624
2.33700,-4.362861585
2.33750,-2.531695139
2.33800,-2.531695139
2.33850,-3.447278362
2.33900,-4.362861585
2.33950,-4.057667178
2.34000,-3.75247277
2.34050,-3.75247277
2.34100,-2.531695139
2.34150,-1.005723101
2.34200,-0.09013987754
2.34250,1.130637753
2.34300,3.266998607
2.34350,5.708553869
2.34400,6.624137092
2.34450,6.318942684
2.34500,6.013748276
2.34550,6.318942684
2.34600,7.539720315
2.34650,8.455303538
2.34700,8.455303538
2.34750,6.318942684
2.34800,2.961804199
2.34850,0.5202489379
2.34900,1.130637753
2.34950,2.351415384
2.35000,1.741026569
2.35050,-0.7005286929
2.35100,-2.836889547
2.35150,-2.226500731
2.35200,-1.005723101
2.35250,-1.005723101
2.35300,-2.836889547
2.35350,-4.668055993
2.35400,-4.362861585
2.35450,-2.226500731
2.35500,-0.09013987754
2.35550,-0.3953342852
2.35600,-1.310917508
2.35650,-1.005723101
2.35700,0.5202489379
2.35750,1.741026569
2.35800,1.741026569
2.35850,1.741026569
2.35900,3.877387423
2.35950,6.013748276
2.36000,5.708553869
2.36050,3.877387423
2.36100,2.046220976
2.36150,1.741026569
2.36200,0.8254433456
2.36250,-0.7005286929
2.36300,-1.921306324
2.36350,-1.921306324
2.36400,-2.226500731
2.36450,-3.447278362
2.36500,-3.447278362
2.36550,-2.226500731
2.36600,-1.005723101
2.36650,-1.921306324
2.36700,-3.447278362
2.36750,-2.836889547
2.36800,-0.7005286929
2.36850,-0.09013987754
2.36900,-1.005723101
2.36950,-1.921306324
2.37000,-1.310917508
2.37050,-0.09013987754
2.37100,-0.09013987754
2.37150,-0.3953342852
2.37200,-0.3953342852
2.37250,-1.005723101
2.37300,-1.005723101
2.37350,-0.09013987754
2.37400,1.130637753
2.37450,1.130637753
2.37500,-0.7005286929
2.37550,-1.616111916
2.37600,-0.3953342852
2.37650,0.8254433456
2.37700,0.8254433456
2.37750,0.2150545302
2.37800,1.130637753
2.37850,2.351415384
2.37900,1.130637753
2.37950,-1.005723101
2.38000,-1.616111916
2.38050,-0.09013987754
2.38100,1.130637753
2.38150,0.2150545302
2.38200,-1.005723101
2.38250,-1.616111916
2.38300,-1.921306324
2.38350,-1.921306324
2.38400,-1.005723101
2.38450,-0.09013987754
2.38500,0.5202489379
2.38550,-0.7005286929
2.38600,-2.226500731
2.38650,-2.226500731
2.38700,-0.7005286929
2.38750,0.2150545302
2.38800,0.2150545302
2.38850,0.2150545302
2.38900,0.5202489379
2.38950,0.8254433456
2.39000,1.130637753
2.39050,1.130637753
2.39100,0.5202489379
2.39150,-0.09013987754
2.39200,0.2150545302
2.39250,1.435832161
2.39300,2.046220976
2.39350,1.130637753
2.39400,-0.09013987754
2.39450,-0.09013987754
2.39500,0.2150545302
2.39550,0.5202489379
2.39600,0.5202489379
2.39650,1.130637753
2.39700,1.435832161
2.39750,0.8254433456
2.39800,1.130637753
2.39850,3.266998607
2.39900,5.403359461
2.39950,5.098165053
2.40000,3.572193015
2.40050,2.351415384
2.40100,2.046220976
2.40150,1.435832161
2.40200,1.741026569
2.40250,5.708553869
2.40300,10.8968588
2.40350,12.11763643
2.40400,8.455303538
2.40450,3.572193015
2.40500,1.130637753
2.40550,1.130637753
2.40600,1.741026569
2.40650,2.656609792
2.40700,2.961804199
2.40750,1.130637753
2.40800,-1.921306324
2.40850,-3.75247277
2.40900,-2.836889547
2.40950,-2.226500731
2.41000,-3.447278362
2.41050,-5.583639216
2.41100,-6.804416847
2.41150,-7.414805662
2.41200,-8.635583293
2.41250,-8.940777701
2.41300,-8.330388885
2.41350,-8.025194478
2.41400,-8.330388885
2.41450,-8.635583293
2.41500,-8.330388885
2.41550,-6.499222439
2.41600,-4.362861585
2.41650,-2.836889547
2.41700,-2.531695139
2.41750,-3.142083955
2.41800,-2.531695139
2.41850,-1.005723101
2.41900,-0.09013987754
2.41950,-0.3953342852
2.42000,-1.005723101
2.42050,-0.3953342852
2.42100,0.8254433456
2.42150,2.046220976
2.42200,2.351415384
2.42250,2.656609792
2.42300,2.656609792
2.42350,1.435832161
2.42400,0.2150545302
2.42450,-0.09013987754
2.42500,0.2150545302
2.42550,-0.09013987754
2.42600,-0.3953342852
2.42650,-0.3953342852
2.42700,-0.3953342852
2.42750,-0.09013987754
2.42800,-0.09013987754
2.42850,0.2150545302
2.42900,-0.09013987754
2.42950,-0.09013987754
2.43000,0.2150545302
2.43050,0.5202489379
2.43100,-0.09013987754
2.43150,-0.3953342852
2.43200,0.5202489379
2.43250,2.656609792
2.43300,2.351415384
2.43350,-0.09013987754
2.43400,-0.7005286929
2.43450,2.351415384
2.43500,6.624137092
2.43550,8.760497946
2.43600,8.15010913
2.43650,6.318942684
2.43700,3.877387423
2.43750,1.741026569
2.43800,0.8254433456
2.43850,0.2150545302
2.43900,-0.3953342852
2.43950,-1.921306324
2.44000,-3.447278362
2.44050,-4.668055993
2.44100,-6.499222439
2.44150,-8.025194478
2.44200,-8.025194478
2.44250,-7.109611255
2.44300,-6.804416847
2.44350,-6.804416847
2.44400,-3.75247277
2.44450,1.435832161
2.44500,5.403359461
2.44550,5.708553869
2.44600,4.18258183
2.44650,3.877387423
2.44700,3.572193015
2.44750,2.656609792
2.44800,1.435832161
2.44850,0.8254433456
2.44900,0.5202489379
2.44950,0.2150545302
2.45000,-0.09013987754
2.45050,0.2150545302
2.45100,0.5202489379
2.45150,0.5202489379
2.45200,0.5202489379
2.45250,0.8254433456
2.45300,0.2150545302
2.45350,-0.09013987754
2.45400,-0.09013987754
2.45450,0.5202489379
2.45500,0.2150545302
2.45550,-1.310917508
2.45600,-2.531695139
2.45650,-2.531695139
2.45700,-3.142083955
2.45750,-4.362861585
2.45800,-4.668055993
2.45850,-2.836889547
2.45900,-1.005723101
2.45950,-1.005723101
2.46000,-1.921306324
2.46050,-2.531695139
2.46100,-1.921306324
2.46150,-1.616111916
2.46200,-0.7005286929
2.46250,0.2150545302
2.46300,1.435832161
2.46350,1.741026569
2.46400,1.130637753
2.46450,0.5202489379
2.46500,-0.09013987754
2.46550,-0.3953342852
2.46600,-0.09013987754
2.46650,0.5202489379
2.46700,0.8254433456
2.46750,0.2150545302
2.46800,-0.09013987754
2.46850,-0.09013987754
2.46900,0.2150545302
2.46950,0.2150545302
2.47000,0.2150545302
2.47050,0.2150545302
2.47100,-0.09013987754
2.47150,-0.09013987754
2.47200,-0.09013987754
2.47250,-0.09013987754
2.47300,-0.09013987754
2.47350,-0.3953342852
2.47400,0.8254433456
2.47450,2.656609792
2.47500,3.266998607
2.47550,3.877387423
2.47600,6.318942684
2.47650,9.981275577
2.47700,11.20205321
2.47750,8.455303538
2.47800,5.708553869
2.47850,5.403359461
2.47900,5.403359461
2.47950,3.877387423
2.48000,2.351415384
2.48050,2.656609792
2.48100,2.961804199
2.48150,1.130637753
2.48200,-2.226500731
2.48250,-4.668055993
2.48300,-5.583639216
2.48350,-6.499222439
2.48400,-8.330388885
2.48450,-9.245972109
2.48500,-8.330388885
2.48550,-7.414805662
2.48600,-7.414805662
2.48650,-7.72000007
2.48700,-8.025194478
2.48750,-7.414805662
2.48800,-6.499222439
2.48850,-5.583639216
2.48900,-4.973250401
2.48950,-4.668055993
2.49000,-4.362861585
2.49050,-4.057667178
2.49100,-3.75247277
2.49150,-2.226500731
2.49200,1.130637753
2.49250,6.9293315
2.49300,12.42283084
2.49350,16.39035814
2.49400,19.44230222
2.49450,20.05269103
2.49500,16.39035814
2.49550,10.28646998
2.49600,7.234525907
2.49650,9.065692354
2.49700,11.50724762
2.49750,8.455303538
2.49800,1.435832161
2.49850,-3.75247277
2.49900,-5.888833624
2.49950,-7.72000007
2.50000,-10.16155533
2.50050,-11.68752737
2.50100,-10.77194415
2.50150,-8.940777701
2.50200,-8.025194478
2.50250,-7.72000007
2.50300,-7.109611255
2.50350,-5.888833624
2.50400,-4.057667178
2.50450,-1.921306324
2.50500,-0.3953342852
2.50550,0.2150545302
2.50600,0.5202489379
2.50650,1.435832161
2.50700,2.351415384
2.50750,2.351415384
2.50800,0.5202489379
2.50850,-1.921306324
2.50900,-4.668055993
2.50950,-5.583639216
2.51000,-5.888833624
2.51050,-6.194028032
2.51100,-7.109611255
2.51150,-8.025194478
2.51200,-8.330388885
2.51250,-7.72000007
2.51300,-6.804416847
2.51350,-5.278444808
2.51400,-2.531695139
2.51450,-0.09013987754
2.51500,0.5202489379
2.51550,0.2150545302
2.51600,0.5202489379
2.51650,1.741026569
2.51700,2.656609792
2.51750,2.961804199
2.51800,2.961804199
2.51850,3.266998607
2.51900,3.266998607
2.51950,2.656609792
2.52000,2.351415384
2.52050,2.351415384
2.52100,2.656609792
2.52150,2.046220976
2.52200,1.130637753
2.52250,0.5202489379
2.52300,-0.09013987754
2.52350,-0.09013987754
2.52400,0.5202489379
2.52450,1.741026569
2.52500,1.435832161
2.52550,0.5202489379
2.52600,0.8254433456
2.52650,2.656609792
2.52700,3.572193015
2.52750,1.741026569
2.52800,-0.3953342852
2.52850,-0.3953342852
2.52900,1.130637753
2.52950,2.046220976
2.53000,1.130637753
2.53050,-0.09013987754
2.53100,-0.3953342852
2.53150,-0.09013987754
2.53200,0.8254433456
2.53250,1.741026569
2.53300,2.351415384
2.53350,1.741026569
2.53400,0.8254433456
2.53450,0.8254433456
2.53500,1.741026569
2.53550,1.741026569
2.53600,0.2150545302
2.53650,-0.3953342852
2.53700,-0.09013987754
2.53750,0.2150545302
2.53800,0.2150545302
2.53850,-0.09013987754
2.53900,0.5202489379
2.53950,1.435832161
2.54000,2.046220976
2.54050,1.741026569
2.54100,1.130637753
2.54150,0.8254433456
2.54200,0.2150545302
2.54250,-0.09013987754
2.54300,-0.7005286929
2.54350,-0.09013987754
2.54400,0.8254433456
2.54450,1.741026569
2.54500,1.130637753
2.54550,-0.09013987754
2.54600,-0.09013987754
2.54650,0.8254433456
2.54700,1.130637753
2.54750,-0.3953342852
2.54800,-0.7005286929
2.54850,1.435832161
2.54900,3.877387423
2.54950,2.351415384
2.55000,0.2150545302
2.55050,3.877387423
2.55100,13.03321965
2.55150,19.13710781
2.55200,17.00074695
2.55250,10.59166439
2.55300,6.9293315
2.55350,6.318942684
2.55400,4.18258183
2.55450,0.2150545302
2.55500,-2.531695139
2.55550,-3.75247277
2.55600,-5.583639216
2.55650,-8.635583293
2.55700,-11.07713855
2.55750,-11.38233296
2.55800,-10.46674974
2.55850,-9.856360924
2.55900,-8.940777701
2.55950,-6.499222439
2.56000,-3.447278362
2.56050,-1.310917508
2.56100,-1.310917508
2.56150,-2.531695139
2.56200,-3.142083955
2.56250,-2.226500731
2.56300,-1.310917508
2.56350,-1.616111916
2.56400,-2.836889547
2.56450,-3.75247277
2.56500,-3.447278362
2.56550,-3.75247277
2.56600,-5.278444808
2.56650,-7.109611255
2.56700,-7.414805662
2.56750,-7.414805662
2.56800,-7.414805662
2.56850,-6.499222439
2.56900,-4.057667178
2.56950,-1.005723101
2.57000,1.130637753
2.57050,3.572193015
2.57100,7.234525907
2.57150,9.981275577
2.57200,9.981275577
2.57250,7.844914723
2.57300,6.9293315
2.57350,8.455303538
2.57400,9.370886761
2.57450,7.539720315
2.57500,3.266998607
2.57550,-0.7005286929
2.57600,-2.531695139
2.57650,-1.616111916
2.57700,-0.09013987754
2.57750,-0.09013987754
2.57800,-1.616111916
2.57850,-3.142083955
2.57900,-1.921306324
2.57950,-0.3953342852
2.58000,-2.226500731
2.58050,-5.278444808
2.58100,-6.499222439
2.58150,-4.973250401
2.58200,-3.75247277
2.58250,-4.668055993
2.58300,-4.973250401
2.58350,-2.531695139
2.58400,0.2150545302
2.58450,0.5202489379
2.58500,-0.3953342852
2.58550,-1.005723101
2.58600,-0.7005286929
2.58650,-1.616111916
2.58700,-3.447278362
2.58750,-4.362861585
2.58800,-3.447278362
2.58850,-2.531695139
2.58900,-1.616111916
2.58950,-0.09013987754
2.59000,1.741026569
2.59050,2.046220976
2.59100,0.8254433456
2.59150,0.2150545302
2.59200,1.435832161
2.59250,2.046220976
2.59300,1.130637753
2.59350,0.2150545302
2.59400,1.130637753
2.59450,2.351415384
2.59500,1.741026569
2.59550,0.2150545302
2.59600,-0.09013987754
2.59650,0.8254433456
2.59700,1.130637753
2.59750,0.5202489379
2.59800,0.2150545302
2.59850,-0.09013987754
2.59900,-0.3953342852
2.59950,-0.7005286929
2.60000,0.5202489379
2.60050,2.351415384
2.60100,2.351415384
2.60150,-0.09013987754
2.60200,-1.005723101
2.60250,-0.3953342852
2.60300,0.5202489379
2.60350,0.2150545302
2.60400,-0.09013987754
2.60450,0.5202489379
2.60500,1.741026569
2.60550,1.435832161
2.60600,0.5202489379
2.60650,-0.09013987754
2.60700,0.2150545302
2.60750,0.2150545302
2.60800,-0.09013987754
2.60850,-0.09013987754
2.60900,0.5202489379
2.60950,0.8254433456
2.61000,-0.09013987754
2.61050,-0.3953342852
2.61100,-0.09013987754
2.61150,0.2150545302
2.61200,0.5202489379
2.61250,0.8254433456
2.61300,1.435832161
2.61350,1.130637753
2.61400,0.2150545302
2.61450,-0.09013987754
2.61500,-0.09013987754
2.61550,0.5202489379
2.61600,0.8254433456
2.61650,0.8254433456
2.61700,0.8254433456
2.61750,0.8254433456
2.61800,0.5202489379
2.61850,0.5202489379
2.61900,0.8254433456
2.61950,0.8254433456
2.62000,0.5202489379
2.62050,0.5202489379
2.62100,0.8254433456
2.62150,1.130637753
2.62200,0.5202489379
2.62250,-0.09013987754
2.62300,-0.09013987754
2.62350,0.8254433456
2.62400,2.046220976
2.62450,2.046220976
2.62500,1.435832161
2.62550,1.130637753
2.62600,1.435832161
2.62650,1.741026569
2.62700,1.435832161
2.62750,0.5202489379
2.62800,0.2150545302
2.62850,0.5202489379
2.62900,0.5202489379
2.62950,-0.09013987754
2.63000,-0.09013987754
2.63050,-0.09013987754
2.63100,-0.09013987754
2.63150,-0.3953342852
2.63200,-0.3953342852
2.63250,0.2150545302
2.63300,0.8254433456
2.63350,-0.09013987754
2.63400,-1.310917508
2.63450,-0.7005286929
2.63500,0.8254433456
2.63550,2.351415384
2.63600,2.351415384
2.63650,2.351415384
2.63700,2.961804199
2.63750,3.572193015
2.63800,2.351415384
2.63850,0.2150545302
2.63900,-0.3953342852
2.63950,-0.09013987754
2.64000,0.2150545302
2.64050,-0.09013987754
2.64100,-0.7005286929
2.64150,-0.09013987754
2.64200,1.435832161
2.64250,1.435832161
2.64300,0.2150545302
2.64350,-0.09013987754
2.64400,1.435832161
2.64450,4.18258183
2.64500,5.403359461
2.64550,4.487776238
2.64600,2.656609792
2.64650,0.5202489379
2.64700,-0.09013987754
2.64750,0.2150545302
2.64800,1.130637753
2.64850,0.8254433456
2.64900,-0.7005286929
2.64950,-2.531695139
2.65000,-4.668055993
2.65050,-6.804416847
2.65100,-9.245972109
2.65150,-10.46674974
2.65200,-10.46674974
2.65250,-9.551166516
2.65300,-7.72000007
2.65350,-5.278444808
2.65400,-4.362861585
2.65450,-5.278444808
2.65500,-3.75247277
2.65550,2.656609792
2.65600,10.59166439
2.65650,12.11763643
2.65700,7.234525907
2.65750,2.656609792
2.65800,2.961804199
2.65850,3.877387423
2.65900,1.741026569
2.65950,-0.7005286929
2.66000,-1.005723101
2.66050,-1.005723101
2.66100,-2.836889547
2.66150,-4.668055993
2.66200,-4.668055993
2.66250,-6.194028032
2.66300,-10.16155533
2.66350,-12.29791619
2.66400,-7.72000007
2.66450,-0.09013987754
2.66500,3.572193015
2.66550,1.435832161
2.66600,-1.616111916
2.66650,-3.75247277
2.66700,-4.362861585
2.66750,-4.362861585
2.66800,-3.142083955
2.66850,-1.921306324
2.66900,-2.226500731
2.66950,-2.531695139
2.67000,-1.310917508
2.67050,-0.09013987754
2.67100,-1.616111916
2.67150,-4.668055993
2.67200,-4.973250401
2.67250,-2.226500731
2.67300,0.2150545302
2.67350,1.130637753
2.67400,0.8254433456
2.67450,0.8254433456
2.67500,0.8254433456
2.67550,0.5202489379
2.67600,-0.09013987754
2.67650,-0.7005286929
2.67700,-2.226500731
2.67750,-3.142083955
2.67800,-2.531695139
2.67850,-1.921306324
2.67900,-2.531695139
2.67950,-2.836889547
2.68000,-1.310917508
2.68050,0.2150545302
2.68100,0.8254433456
2.68150,0.2150545302
2.68200,0.8254433456
2.68250,2.656609792
2.68300,3.266998607
2.68350,2.046220976
2.68400,0.8254433456
2.68450,1.435832161
2.68500,2.656609792
2.68550,2.351415384
2.68600,1.435832161
2.68650,1.130637753
2.68700,1.741026569
2.68750,2.046220976
2.68800,1.130637753
2.68850,-0.09013987754
2.68900,-0.09013987754
2.68950,-0.09013987754
2.69000,0.5202489379
2.69050,1.741026569
2.69100,2.351415384
2.69150,1.741026569
2.69200,0.2150545302
2.69250,-0.7005286929
2.69300,-0.09013987754
2.69350,1.130637753
2.69400,2.046220976
2.69450,1.435832161
2.69500,0.8254433456
2.69550,1.435832161
2.69600,1.741026569
2.69650,0.5202489379
2.69700,-0.7005286929
2.69750,-0.09013987754
2.69800,0.8254433456
2.69850,1.435832161
2.69900,0.8254433456
2.69950,0.8254433456
2.70000,1.435832161
2.70050,1.130637753
2.70100,-0.09013987754
2.70150,-1.005723101
2.70200,-0.3953342852
2.70250,-0.09013987754
2.70300,-0.3953342852
2.70350,-1.310917508
2.70400,-0.3953342852
2.70450,1.130637753
2.70500,2.046220976
2.70550,1.130637753
2.70600,-0.3953342852
2.70650,-1.005723101
2.70700,-0.3953342852
2.70750,0.2150545302
2.70800,0.8254433456
2.70850,0.8254433456
2.70900,0.8254433456
2.70950,0.8254433456
2.71000,0.2150545302
2.71050,-0.3953342852
2.71100,-0.7005286929
2.71150,-0.09013987754
2.71200,0.2150545302
2.71250,-0.09013987754
2.71300,-0.09013987754
2.71350,0.5202489379
2.71400,2.046220976
2.71450,3.572193015
2.71500,3.877387423
2.71550,2.961804199
2.71600,1.435832161
2.71650,0.5202489379
2.71700,1.130637753
2.71750,2.046220976
2.71800,2.656609792
2.71850,2.656609792
2.71900,2.351415384
2.71950,2.656609792
2.72000,2.656609792
2.72050,1.130637753
2.72100,-0.09013987754
2.72150,0.2150545302
2.72200,2.046220976
2.72250,4.18258183
2.72300,5.098165053
2.72350,5.708553869
2.72400,6.318942684
2.72450,6.318942684
2.72500,4.487776238
2.72550,1.130637753
2.72600,-1.310917508
2.72650,-2.226500731
2.72700,-2.531695139
2.72750,-3.142083955
2.72800,-5.278444808
2.72850,-8.025194478
2.72900,-10.16155533
2.72950,-10.77194415
2.73000,-9.551166516
2.73050,-8.025194478
2.73100,-6.804416847
2.73150,-6.194028032
2.73200,-5.278444808
2.73250,-4.362861585
2.73300,-3.447278362
2.73350,-1.310917508
2.73400,2.046220976
2.73450,4.792970646
2.73500,3.572193015
2.73550,0.8254433456
2.73600,0.2150545302
2.73650,3.572193015
2.73700,5.708553869
2.73750,3.266998607
2.73800,0.2150545302
2.73850,0.2150545302
2.73900,2.656609792
2.73950,3.572193015
2.74000,2.046220976
2.74050,1.435832161
2.74100,1.435832161
2.74150,-0.09013987754
2.74200,-2.531695139
2.74250,-4.973250401
2.74300,-5.278444808
2.74350,-5.583639216
2.74400,-6.804416847
2.74450,-8.025194478
2.74500,-8.025194478
2.74550,-7.414805662
2.74600,-6.804416847
2.74650,-5.278444808
2.74700,-3.447278362
2.74750,-2.226500731
2.74800,-2.226500731
2.74850,-3.142083955
2.74900,-4.057667178
2.74950,-4.362861585
2.75000,-4.973250401
2.75050,-4.973250401
2.75100,-4.668055993
2.75150,-3.447278362
2.75200,-1.921306324
2.75250,-0.7005286929
2.75300,-0.7005286929
2.75350,-1.616111916
2.75400,-2.531695139
2.75450,-2.226500731
2.75500,-0.09013987754
2.75550,2.046220976
2.75600,3.266998607
2.75650,2.961804199
2.75700,2.351415384
2.75750,2.656609792
2.75800,3.877387423
2.75850,4.487776238
2.75900,3.572193015
2.75950,2.656609792
2.76000,2.351415384
2.76050,2.656609792
2.76100,2.961804199
2.76150,2.656609792
2.76200,2.351415384
2.76250,1.435832161
2.76300,1.130637753
2.76350,1.130637753
2.76400,1.741026569
2.76450,1.741026569
2.76500,0.5202489379
2.76550,-0.09013987754
2.76600,0.5202489379
2.76650,1.435832161
2.76700,1.130637753
2.76750,-0.09013987754
2.76800,-0.09013987754
2.76850,1.130637753
2.76900,1.130637753
2.76950,-0.09013987754
2.77000,-0.09013987754
2.77050,1.130637753
2.77100,3.266998607
2.77150,3.877387423
2.77200,3.266998607
2.77250,3.266998607
2.77300,3.266998607
2.77350,2.656609792
2.77400,2.656609792
2.77450,2.961804199
2.77500,3.572193015
2.77550,2.656609792
2.77600,1.435832161
2.77650,1.741026569
2.77700,2.351415384
2.77750,1.130637753
2.77800,-1.005723101
2.77850,-1.616111916
2.77900,1.130637753
2.77950,4.18258183
2.78000,4.487776238
2.78050,2.961804199
2.78100,1.741026569
2.78150,1.435832161
2.78200,0.5202489379
2.78250,-0.3953342852
2.78300,-1.616111916
2.78350,-2.226500731
2.78400,-2.531695139
2.78450,-2.226500731
2.78500,-1.616111916
2.78550,-1.921306324
2.78600,-3.75247277
2.78650,-5.583639216
2.78700,-6.194028032
2.78750,-5.888833624
2.78800,-4.973250401
2.78850,-3.75247277
2.78900,-2.226500731
2.78950,-1.310917508
2.79000,-2.226500731
2.79050,-3.447278362
2.79100,-2.531695139
2.79150,-0.09013987754
2.79200,2.351415384
2.79250,2.961804199
2.79300,3.266998607
2.79350,4.18258183
2.79400,4.487776238
2.79450,4.487776238
2.79500,4.792970646
2.79550,5.708553869
2.79600,5.708553869
2.79650,4.18258183
2.79700,1.741026569
2.79750,-0.09013987754
2.79800,-0.09013987754
2.79850,-0.09013987754
2.79900,-0.09013987754
2.79950,-0.09013987754
2.80000,-0.09013987754
2.80050,-0.09013987754
2.80100,-1.005723101
2.80150,-2.226500731
2.80200,-2.836889547
2.80250,-1.616111916
2.80300,1.130637753
2.80350,4.18258183
2.80400,4.487776238
2.80450,2.961804199
2.80500,0.8254433456
2.80550,-0.09013987754
2.80600,-0.09013987754
2.80650,-0.09013987754
2.80700,-0.09013987754
2.80750,-0.09013987754
2.80800,-0.09013987754
2.80850,-1.005723101
2.80900,-1.921306324
2.80950,-3.142083955
2.81000,-4.973250401
2.81050,-6.804416847
2.81100,-7.72000007
2.81150,-7.72000007
2.81200,-7.109611255
2.81250,-5.278444808
2.81300,-1.921306324
2.81350,0.8254433456
2.81400,1.130637753
2.81450,-1.310917508
2.81500,-3.75247277
2.81550,-4.362861585
2.81600,-3.447278362
2.81650,-2.226500731
2.81700,-1.616111916
2.81750,-1.310917508
2.81800,-2.531695139
2.81850,-5.278444808
2.81900,-6.194028032
2.81950,-4.668055993
2.82000,-1.921306324
2.82050,-0.7005286929
2.82100,-0.3953342852
2.82150,0.2150545302
2.82200,1.130637753
2.82250,0.8254433456
2.82300,1.130637753
2.82350,3.572193015
2.82400,6.624137092
2.82450,6.9293315
2.82500,5.708553869
2.82550,4.792970646
2.82600,5.708553869
2.82650,6.318942684
2.82700,6.013748276
2.82750,6.013748276
2.82800,5.098165053
2.82850,2.961804199
2.82900,0.8254433456
2.82950,1.741026569
2.83000,4.18258183
2.83050,3.877387423
2.83100,1.741026569
2.83150,2.351415384
2.83200,5.708553869
2.83250,7.234525907
2.83300,4.487776238
2.83350,0.2150545302
2.83400,-1.616111916
2.83450,-2.531695139
2.83500,-4.362861585
2.83550,-5.278444808
2.83600,-3.75247277
2.83650,-1.616111916
2.83700,-1.921306324
2.83750,-3.75247277
2.83800,-4.973250401
2.83850,-4.973250401
2.83900,-5.888833624
2.83950,-6.804416847
2.84000,-5.278444808
2.84050,-1.616111916
2.84100,-0.09013987754
2.84150,-1.005723101
2.84200,-2.836889547
2.84250,-1.921306324
2.84300,0.5202489379
2.84350,2.656609792
2.84400,2.961804199
2.84450,2.351415384
2.84500,2.351415384
2.84550,2.961804199
2.84600,2.961804199
2.84650,3.266998607
2.84700,4.487776238
2.84750,6.624137092
2.84800,8.15010913
2.84850,7.539720315
2.84900,5.403359461
2.84950,4.18258183
2.85000,4.18258183
2.85050,4.792970646
2.85100,4.487776238
2.85150,2.656609792
2.85200,0.8254433456
