type,name,time_units,begin_time,frequency,count,units
signal,"Noraxon Ultium-RT BRACHIORAD.","s",0.00000,2000,53480,"uV"

time,value
0.00000,4.615131226
0.00050,4.615131226
0.00100,3.394353595
0.00150,1.868381556
0.00200,1.563187149
0.00250,2.783964779
0.00300,4.00474241
0.00350,4.309936818
0.00400,3.699548003
0.00450,2.783964779
0.00500,1.563187149
0.00550,-0.2679792975
0.00600,-1.793951336
0.00650,-2.099145744
0.00700,-0.8783681129
0.00750,-0.2679792975
0.00800,-0.2679792975
0.00850,-0.2679792975
0.00900,-0.8783681129
0.00950,-1.793951336
0.01000,-3.319923375
0.01050,-4.235506598
0.01100,-3.93031219
0.01150,-2.709534559
0.01200,-1.183562521
0.01250,-0.2679792975
0.01300,0.6476039256
0.01350,0.6476039256
0.01400,-0.5731737052
0.01450,-2.099145744
0.01500,-1.793951336
0.01550,-0.8783681129
0.01600,-0.5731737052
0.01650,-1.183562521
0.01700,-0.8783681129
0.01750,0.6476039256
0.01800,1.563187149
0.01850,0.03721511018
0.01900,-2.709534559
0.01950,-3.93031219
0.02000,-3.319923375
0.02050,-2.709534559
0.02100,-2.099145744
0.02150,-0.2679792975
0.02200,2.478770372
0.02250,4.920325633
0.02300,4.00474241
0.02350,0.9527983333
0.02400,-0.2679792975
0.02450,1.868381556
0.02500,4.309936818
0.02550,4.00474241
0.02600,1.563187149
0.02650,-0.2679792975
0.02700,-0.5731737052
0.02750,-0.5731737052
0.02800,-1.183562521
0.02850,-2.709534559
0.02900,-3.625117782
0.02950,-3.625117782
0.03000,-2.099145744
0.03050,-0.2679792975
0.03100,1.563187149
0.03150,1.868381556
0.03200,0.6476039256
0.03250,-0.2679792975
0.03300,0.03721511018
0.03350,1.257992741
0.03400,1.868381556
0.03450,1.257992741
0.03500,0.6476039256
0.03550,0.3424095179
0.03600,0.3424095179
0.03650,0.3424095179
0.03700,-0.2679792975
0.03750,0.03721511018
0.03800,0.6476039256
0.03850,0.3424095179
0.03900,-0.8783681129
0.03950,-1.793951336
0.04000,-0.5731737052
0.04050,1.257992741
0.04100,1.563187149
0.04150,1.563187149
0.04200,3.394353595
0.04250,6.141103264
0.04300,6.75149208
0.04350,4.920325633
0.04400,4.00474241
0.04450,3.699548003
0.04500,1.868381556
0.04550,-1.183562521
0.04600,-1.793951336
0.04650,3.089159187
0.04700,8.887852934
0.04750,10.41382497
0.04800,8.582658526
0.04850,7.361880895
0.04900,6.446297672
0.04950,2.478770372
0.05000,-2.709534559
0.05050,-6.371867452
0.05100,-7.592645082
0.05150,-8.203033898
0.05200,-9.118617121
0.05250,-7.89783949
0.05300,-5.761478636
0.05350,-6.371867452
0.05400,-9.118617121
0.05450,-9.729005936
0.05500,-6.677061859
0.05550,-5.151089821
0.05600,-7.592645082
0.05650,-10.94978357
0.05700,-10.33939475
0.05750,-7.592645082
0.05800,-6.371867452
0.05850,-6.371867452
0.05900,-4.845895413
0.05950,-2.709534559
0.06000,-2.709534559
0.06050,-3.93031219
0.06100,-3.319923375
0.06150,-0.2679792975
0.06200,1.563187149
0.06250,1.563187149
0.06300,2.173575964
0.06350,4.920325633
0.06400,6.141103264
0.06450,2.783964779
0.06500,-1.793951336
0.06550,-4.540701005
0.06600,-6.066673044
0.06650,-9.729005936
0.06700,-12.78095001
0.06750,-10.33939475
0.06800,-3.93031219
0.06850,0.03721511018
0.06900,-1.183562521
0.06950,-4.540701005
0.07000,-5.456284228
0.07050,-5.456284228
0.07100,-6.371867452
0.07150,-7.592645082
0.07200,-6.371867452
0.07250,-4.540701005
0.07300,-3.625117782
0.07350,-3.014728967
0.07400,-0.2679792975
0.07450,3.089159187
0.07500,4.615131226
0.07550,3.699548003
0.07600,3.089159187
0.07650,3.394353595
0.07700,3.089159187
0.07750,1.257992741
0.07800,0.9527983333
0.07850,2.478770372
0.07900,4.00474241
0.07950,4.00474241
0.08000,2.783964779
0.08050,2.478770372
0.08100,2.783964779
0.08150,3.394353595
0.08200,3.699548003
0.08250,4.309936818
0.08300,4.309936818
0.08350,2.173575964
0.08400,-0.8783681129
0.08450,-2.709534559
0.08500,-2.404340151
0.08550,-1.793951336
0.08600,-2.099145744
0.08650,-2.404340151
0.08700,-1.183562521
0.08750,0.03721511018
0.08800,0.9527983333
0.08850,1.868381556
0.08900,4.00474241
0.08950,7.056686487
0.09000,7.667075303
0.09050,6.141103264
0.09100,4.920325633
0.09150,5.225520041
0.09200,6.446297672
0.09250,6.446297672
0.09300,5.225520041
0.09350,3.699548003
0.09400,1.868381556
0.09450,0.3424095179
0.09500,-0.2679792975
0.09550,-0.5731737052
0.09600,-1.488756928
0.09650,-3.93031219
0.09700,-6.677061859
0.09750,-9.729005936
0.09800,-13.08614442
0.09850,-15.83289409
0.09900,-16.1380885
0.09950,-14.30692205
0.10000,-12.1705612
0.10050,-10.64458916
0.10100,-10.03420034
0.10150,-9.118617121
0.10200,-7.592645082
0.10250,-4.845895413
0.10300,-1.183562521
0.10350,2.173575964
0.10400,4.309936818
0.10450,5.225520041
0.10500,6.75149208
0.10550,7.667075303
0.10600,6.446297672
0.10650,2.783964779
0.10700,0.6476039256
0.10750,1.868381556
0.10800,4.615131226
0.10850,5.530714449
0.10900,4.615131226
0.10950,4.309936818
0.11000,4.615131226
0.11050,4.00474241
0.11100,2.783964779
0.11150,1.868381556
0.11200,1.868381556
0.11250,1.868381556
0.11300,0.6476039256
0.11350,-0.5731737052
0.11400,-1.793951336
0.11450,-2.099145744
0.11500,-1.793951336
0.11550,-1.183562521
0.11600,-0.2679792975
0.11650,1.257992741
0.11700,2.478770372
0.11750,1.868381556
0.11800,0.03721511018
0.11850,-0.8783681129
0.11900,-0.2679792975
0.11950,0.6476039256
0.12000,0.3424095179
0.12050,-0.2679792975
0.12100,-0.5731737052
0.12150,-0.2679792975
0.12200,0.3424095179
0.12250,0.03721511018
0.12300,-0.5731737052
0.12350,-0.8783681129
0.12400,-0.5731737052
0.12450,-0.2679792975
0.12500,0.3424095179
0.12550,0.3424095179
0.12600,-0.2679792975
0.12650,-0.8783681129
0.12700,-0.2679792975
0.12750,0.9527983333
0.12800,2.173575964
0.12850,2.478770372
0.12900,2.173575964
0.12950,1.868381556
0.13000,1.563187149
0.13050,0.6476039256
0.13100,-0.5731737052
0.13150,-2.709534559
0.13200,-5.151089821
0.13250,-5.761478636
0.13300,-2.404340151
0.13350,3.394353595
0.13400,7.97226971
0.13450,8.582658526
0.13500,7.361880895
0.13550,7.667075303
0.13600,9.498241749
0.13650,10.41382497
0.13700,8.582658526
0.13750,6.141103264
0.13800,6.141103264
0.13850,8.277464118
0.13900,10.10863056
0.13950,10.71901938
0.14000,10.10863056
0.14050,8.277464118
0.14100,3.699548003
0.14150,-3.014728967
0.14200,-8.813422713
0.14250,-10.03420034
0.14300,-8.508228305
0.14350,-9.118617121
0.14400,-14.30692205
0.14450,-19.80042139
0.14500,-20.1056158
0.14550,-16.44328291
0.14600,-14.30692205
0.14650,-15.52769968
0.14700,-16.74847731
0.14750,-14.61211646
0.14800,-11.86536679
0.14850,-12.1705612
0.14900,-13.39133883
0.14950,-12.1705612
0.15000,-8.203033898
0.15050,-4.235506598
0.15100,-2.709534559
0.15150,-1.488756928
0.15200,0.9527983333
0.15250,3.394353595
0.15300,4.309936818
0.15350,3.394353595
0.15400,1.257992741
0.15450,-1.183562521
0.15500,-3.319923375
0.15550,-3.319923375
0.15600,-1.488756928
0.15650,-0.5731737052
0.15700,-2.099145744
0.15750,-3.319923375
0.15800,-1.488756928
0.15850,1.868381556
0.15900,4.615131226
0.15950,5.225520041
0.16000,4.309936818
0.16050,4.00474241
0.16100,4.309936818
0.16150,4.615131226
0.16200,4.309936818
0.16250,2.783964779
0.16300,0.03721511018
0.16350,-1.793951336
0.16400,-2.099145744
0.16450,-1.183562521
0.16500,0.03721511018
0.16550,0.03721511018
0.16600,-0.8783681129
0.16650,-1.488756928
0.16700,-0.8783681129
0.16750,0.03721511018
0.16800,1.563187149
0.16850,2.478770372
0.16900,3.699548003
0.16950,4.00474241
0.17000,2.783964779
0.17050,0.6476039256
0.17100,-0.8783681129
0.17150,-1.488756928
0.17200,-1.183562521
0.17250,-0.2679792975
0.17300,0.03721511018
0.17350,1.563187149
0.17400,3.394353595
0.17450,4.309936818
0.17500,4.309936818
0.17550,4.615131226
0.17600,5.225520041
0.17650,5.835908857
0.17700,5.835908857
0.17750,4.615131226
0.17800,3.089159187
0.17850,2.783964779
0.17900,4.00474241
0.17950,5.225520041
0.18000,4.615131226
0.18050,2.783964779
0.18100,2.478770372
0.18150,4.615131226
0.18200,6.141103264
0.18250,4.920325633
0.18300,2.173575964
0.18350,1.868381556
0.18400,4.00474241
0.18450,6.141103264
0.18500,5.835908857
0.18550,4.920325633
0.18600,4.920325633
0.18650,5.225520041
0.18700,5.225520041
0.18750,4.615131226
0.18800,3.394353595
0.18850,1.257992741
0.18900,-0.5731737052
0.18950,-0.5731737052
0.19000,0.3424095179
0.19050,1.257992741
0.19100,0.3424095179
0.19150,-1.793951336
0.19200,-3.93031219
0.19250,-5.456284228
0.19300,-6.677061859
0.19350,-6.982256267
0.19400,-6.982256267
0.19450,-6.982256267
0.19500,-6.371867452
0.19550,-2.709534559
0.19600,1.563187149
0.19650,3.394353595
0.19700,2.173575964
0.19750,0.9527983333
0.19800,2.783964779
0.19850,5.530714449
0.19900,6.75149208
0.19950,6.75149208
0.20000,7.361880895
0.20050,7.667075303
0.20100,5.835908857
0.20150,2.783964779
0.20200,1.257992741
0.20250,3.089159187
0.20300,5.835908857
0.20350,6.446297672
0.20400,4.615131226
0.20450,2.783964779
0.20500,2.478770372
0.20550,3.394353595
0.20600,4.615131226
0.20650,5.225520041
0.20700,4.920325633
0.20750,4.309936818
0.20800,3.089159187
0.20850,1.563187149
0.20900,0.6476039256
0.20950,0.9527983333
0.21000,0.9527983333
0.21050,-1.183562521
0.21100,-5.456284228
0.21150,-7.89783949
0.21200,-7.592645082
0.21250,-6.982256267
0.21300,-8.203033898
0.21350,-10.33939475
0.21400,-10.94978357
0.21450,-8.813422713
0.21500,-6.066673044
0.21550,-3.93031219
0.21600,-2.404340151
0.21650,-0.8783681129
0.21700,1.257992741
0.21750,5.530714449
0.21800,11.02421379
0.21850,15.6021299
0.21900,17.73849076
0.21950,18.04368516
0.22000,18.34887957
0.22050,19.2644628
0.22100,19.87485161
0.22150,18.04368516
0.22200,13.16057464
0.22250,6.446297672
0.22300,-0.2679792975
0.22350,-6.371867452
0.22400,-10.94978357
0.22450,-14.00172764
0.22500,-15.83289409
0.22550,-17.05367172
0.22600,-18.27444935
0.22650,-20.71600461
0.22700,-23.76794869
0.22750,-24.68353191
0.22800,-22.54717106
0.22850,-20.41081021
0.22900,-19.80042139
0.22950,-19.80042139
0.23000,-17.35886613
0.23050,-13.08614442
0.23100,-9.729005936
0.23150,-9.118617121
0.23200,-9.729005936
0.23250,-9.729005936
0.23300,-9.423811529
0.23350,-8.813422713
0.23400,-7.592645082
0.23450,-4.845895413
0.23500,-2.099145744
0.23550,-0.8783681129
0.23600,-0.5731737052
0.23650,-0.2679792975
0.23700,0.6476039256
0.23750,0.6476039256
0.23800,0.6476039256
0.23850,2.173575964
0.23900,4.309936818
0.23950,4.920325633
0.24000,4.00474241
0.24050,3.089159187
0.24100,3.394353595
0.24150,3.699548003
0.24200,2.173575964
0.24250,-0.2679792975
0.24300,-0.8783681129
0.24350,-0.2679792975
0.24400,0.3424095179
0.24450,-0.2679792975
0.24500,-1.183562521
0.24550,-1.793951336
0.24600,-1.488756928
0.24650,-1.793951336
0.24700,-3.014728967
0.24750,-3.625117782
0.24800,-2.709534559
0.24850,-1.183562521
0.24900,-2.099145744
0.24950,-3.319923375
0.25000,-1.183562521
0.25050,3.394353595
0.25100,6.141103264
0.25150,3.089159187
0.25200,-1.793951336
0.25250,-3.625117782
0.25300,-0.2679792975
0.25350,3.394353595
0.25400,4.920325633
0.25450,4.920325633
0.25500,5.530714449
0.25550,6.141103264
0.25600,5.835908857
0.25650,5.225520041
0.25700,5.530714449
0.25750,5.835908857
0.25800,4.00474241
0.25850,1.257992741
0.25900,-0.5731737052
0.25950,-1.488756928
0.26000,-1.183562521
0.26050,-0.2679792975
0.26100,0.9527983333
0.26150,1.868381556
0.26200,0.6476039256
0.26250,-0.5731737052
0.26300,-0.8783681129
0.26350,0.03721511018
0.26400,1.868381556
0.26450,2.783964779
0.26500,2.478770372
0.26550,1.868381556
0.26600,1.868381556
0.26650,2.173575964
0.26700,1.868381556
0.26750,0.3424095179
0.26800,-0.8783681129
0.26850,-0.8783681129
0.26900,0.3424095179
0.26950,0.9527983333
0.27000,0.3424095179
0.27050,-0.2679792975
0.27100,0.3424095179
0.27150,1.257992741
0.27200,1.257992741
0.27250,0.9527983333
0.27300,0.9527983333
0.27350,0.6476039256
0.27400,0.3424095179
0.27450,-0.2679792975
0.27500,-1.183562521
0.27550,-2.404340151
0.27600,-3.319923375
0.27650,-2.404340151
0.27700,-0.2679792975
0.27750,0.9527983333
0.27800,-0.2679792975
0.27850,-1.793951336
0.27900,-1.793951336
0.27950,-0.8783681129
0.28000,-1.183562521
0.28050,-2.404340151
0.28100,-3.319923375
0.28150,-3.93031219
0.28200,-4.540701005
0.28250,-5.456284228
0.28300,-5.151089821
0.28350,-3.93031219
0.28400,-2.709534559
0.28450,-1.793951336
0.28500,-0.8783681129
0.28550,-0.2679792975
0.28600,0.9527983333
0.28650,1.868381556
0.28700,3.089159187
0.28750,3.394353595
0.28800,2.173575964
0.28850,0.6476039256
0.28900,0.9527983333
0.28950,3.089159187
0.29000,3.394353595
0.29050,0.6476039256
0.29100,-3.319923375
0.29150,-6.371867452
0.29200,-6.677061859
0.29250,-4.845895413
0.29300,-2.099145744
0.29350,0.9527983333
0.29400,3.089159187
0.29450,3.699548003
0.29500,4.309936818
0.29550,6.141103264
0.29600,7.056686487
0.29650,4.00474241
0.29700,-1.183562521
0.29750,-4.540701005
0.29800,-2.099145744
0.29850,2.478770372
0.29900,4.309936818
0.29950,2.173575964
0.30000,-0.2679792975
0.30050,0.03721511018
0.30100,2.173575964
0.30150,4.309936818
0.30200,4.615131226
0.30250,3.699548003
0.30300,2.783964779
0.30350,2.478770372
0.30400,2.783964779
0.30450,3.089159187
0.30500,2.783964779
0.30550,0.9527983333
0.30600,-1.488756928
0.30650,-2.709534559
0.30700,-1.183562521
0.30750,1.257992741
0.30800,3.089159187
0.30850,3.699548003
0.30900,3.394353595
0.30950,2.783964779
0.31000,2.173575964
0.31050,1.563187149
0.31100,0.9527983333
0.31150,0.3424095179
0.31200,-0.2679792975
0.31250,-0.2679792975
0.31300,1.257992741
0.31350,1.868381556
0.31400,-0.5731737052
0.31450,-3.93031219
0.31500,-4.845895413
0.31550,-3.014728967
0.31600,-0.5731737052
0.31650,0.9527983333
0.31700,3.394353595
0.31750,5.530714449
0.31800,5.225520041
0.31850,1.563187149
0.31900,-1.793951336
0.31950,-1.793951336
0.32000,-0.2679792975
0.32050,0.6476039256
0.32100,0.03721511018
0.32150,0.6476039256
0.32200,3.394353595
0.32250,6.446297672
0.32300,7.361880895
0.32350,5.835908857
0.32400,3.089159187
0.32450,0.6476039256
0.32500,0.6476039256
0.32550,2.478770372
0.32600,4.309936818
0.32650,5.225520041
0.32700,5.530714449
0.32750,6.446297672
0.32800,8.277464118
0.32850,8.887852934
0.32900,6.75149208
0.32950,2.478770372
0.33000,-1.793951336
0.33050,-4.540701005
0.33100,-5.761478636
0.33150,-7.287450675
0.33200,-10.03420034
0.33250,-14.00172764
0.33300,-17.66406054
0.33350,-20.1056158
0.33400,-20.71600461
0.33450,-17.96925494
0.33500,-12.1705612
0.33550,-6.371867452
0.33600,-3.319923375
0.33650,-3.014728967
0.33700,-2.099145744
0.33750,0.03721511018
0.33800,1.257992741
0.33850,-0.2679792975
0.33900,-2.709534559
0.33950,-3.319923375
0.34000,-1.793951336
0.34050,-0.2679792975
0.34100,-0.2679792975
0.34150,-0.8783681129
0.34200,-1.488756928
0.34250,-0.5731737052
0.34300,0.9527983333
0.34350,1.563187149
0.34400,-1.488756928
0.34450,-7.592645082
0.34500,-12.1705612
0.34550,-13.39133883
0.34600,-13.39133883
0.34650,-15.22250527
0.34700,-18.27444935
0.34750,-18.57964376
0.34800,-14.30692205
0.34850,-9.118617121
0.34900,-5.151089821
0.34950,-1.793951336
0.35000,2.478770372
0.35050,6.75149208
0.35100,7.97226971
0.35150,6.446297672
0.35200,4.615131226
0.35250,4.00474241
0.35300,4.00474241
0.35350,3.699548003
0.35400,4.00474241
0.35450,4.615131226
0.35500,3.394353595
0.35550,0.6476039256
0.35600,-0.5731737052
0.35650,1.257992741
0.35700,3.699548003
0.35750,4.00474241
0.35800,1.868381556
0.35850,0.3424095179
0.35900,-0.5731737052
0.35950,-2.404340151
0.36000,-4.235506598
0.36050,-4.540701005
0.36100,-4.235506598
0.36150,-5.456284228
0.36200,-6.982256267
0.36250,-6.371867452
0.36300,-3.625117782
0.36350,-1.183562521
0.36400,-0.2679792975
0.36450,0.3424095179
0.36500,3.089159187
0.36550,5.835908857
0.36600,7.056686487
0.36650,6.75149208
0.36700,5.225520041
0.36750,2.783964779
0.36800,0.03721511018
0.36850,-0.2679792975
0.36900,1.257992741
0.36950,3.089159187
0.37000,3.089159187
0.37050,1.868381556
0.37100,0.9527983333
0.37150,0.9527983333
0.37200,0.6476039256
0.37250,0.9527983333
0.37300,1.257992741
0.37350,0.9527983333
0.37400,-0.2679792975
0.37450,-1.183562521
0.37500,-1.793951336
0.37550,-2.404340151
0.37600,-2.099145744
0.37650,-0.2679792975
0.37700,1.563187149
0.37750,2.478770372
0.37800,1.257992741
0.37850,0.03721511018
0.37900,-0.2679792975
0.37950,-0.8783681129
0.38000,-2.404340151
0.38050,-3.014728967
0.38100,-2.709534559
0.38150,-2.709534559
0.38200,-3.014728967
0.38250,-2.709534559
0.38300,-1.183562521
0.38350,-0.2679792975
0.38400,-0.2679792975
0.38450,-0.8783681129
0.38500,-0.2679792975
0.38550,-0.2679792975
0.38600,-1.183562521
0.38650,-2.404340151
0.38700,-2.709534559
0.38750,-2.709534559
0.38800,-3.93031219
0.38850,-4.845895413
0.38900,-4.235506598
0.38950,-2.099145744
0.39000,-0.5731737052
0.39050,-0.2679792975
0.39100,0.03721511018
0.39150,1.563187149
0.39200,2.478770372
0.39250,2.173575964
0.39300,0.3424095179
0.39350,-1.488756928
0.39400,-3.014728967
0.39450,-3.014728967
0.39500,-2.404340151
0.39550,-2.099145744
0.39600,-1.488756928
0.39650,-0.2679792975
0.39700,1.563187149
0.39750,2.173575964
0.39800,0.6476039256
0.39850,-0.5731737052
0.39900,-0.5731737052
0.39950,-0.5731737052
0.40000,-1.488756928
0.40050,-3.319923375
0.40100,-3.319923375
0.40150,-2.099145744
0.40200,-0.8783681129
0.40250,-0.5731737052
0.40300,-1.488756928
0.40350,-2.709534559
0.40400,-3.625117782
0.40450,-2.709534559
0.40500,0.03721511018
0.40550,3.089159187
0.40600,4.309936818
0.40650,4.920325633
0.40700,5.835908857
0.40750,6.75149208
0.40800,5.835908857
0.40850,3.699548003
0.40900,1.563187149
0.40950,0.9527983333
0.41000,1.868381556
0.41050,3.089159187
0.41100,3.394353595
0.41150,1.868381556
0.41200,-0.8783681129
0.41250,-2.404340151
0.41300,-1.488756928
0.41350,-0.5731737052
0.41400,-0.8783681129
0.41450,-2.404340151
0.41500,-3.625117782
0.41550,-4.540701005
0.41600,-4.235506598
0.41650,-1.793951336
0.41700,2.173575964
0.41750,4.920325633
0.41800,4.00474241
0.41850,0.9527983333
0.41900,-1.183562521
0.41950,-2.099145744
0.42000,-1.793951336
0.42050,-1.183562521
0.42100,0.03721511018
0.42150,1.563187149
0.42200,2.173575964
0.42250,1.563187149
0.42300,0.03721511018
0.42350,-0.8783681129
0.42400,-0.2679792975
0.42450,2.173575964
0.42500,4.309936818
0.42550,3.394353595
0.42600,0.9527983333
0.42650,0.03721511018
0.42700,0.6476039256
0.42750,0.03721511018
0.42800,-1.793951336
0.42850,-3.319923375
0.42900,-4.235506598
0.42950,-5.151089821
0.43000,-6.677061859
0.43050,-6.982256267
0.43100,-5.761478636
0.43150,-5.151089821
0.43200,-5.456284228
0.43250,-4.235506598
0.43300,-0.5731737052
0.43350,1.257992741
0.43400,-0.2679792975
0.43450,-2.709534559
0.43500,-2.404340151
0.43550,0.03721511018
0.43600,1.563187149
0.43650,2.173575964
0.43700,4.615131226
0.43750,8.582658526
0.43800,10.71901938
0.43850,8.582658526
0.43900,4.615131226
0.43950,3.394353595
0.44000,5.530714449
0.44050,8.277464118
0.44100,10.41382497
0.44150,11.93979701
0.44200,12.55018583
0.44250,11.3294082
0.44300,7.97226971
0.44350,4.00474241
0.44400,2.783964779
0.44450,4.00474241
0.44500,5.225520041
0.44550,4.615131226
0.44600,2.783964779
0.44650,0.9527983333
0.44700,-0.2679792975
0.44750,-0.8783681129
0.44800,-1.488756928
0.44850,-1.793951336
0.44900,-1.793951336
0.44950,-1.793951336
0.45000,-1.793951336
0.45050,-1.183562521
0.45100,-0.2679792975
0.45150,0.3424095179
0.45200,0.6476039256
0.45250,0.6476039256
0.45300,0.9527983333
0.45350,1.257992741
0.45400,0.3424095179
0.45450,-0.2679792975
0.45500,-0.2679792975
0.45550,1.257992741
0.45600,1.868381556
0.45650,0.9527983333
0.45700,-0.5731737052
0.45750,-1.793951336
0.45800,-2.099145744
0.45850,-2.404340151
0.45900,-1.793951336
0.45950,0.03721511018
0.46000,2.783964779
0.46050,3.089159187
0.46100,0.9527983333
0.46150,-0.8783681129
0.46200,-2.099145744
0.46250,-3.625117782
0.46300,-5.761478636
0.46350,-6.677061859
0.46400,-4.540701005
0.46450,-1.183562521
0.46500,-0.5731737052
0.46550,-2.404340151
0.46600,-3.319923375
0.46650,-0.8783681129
0.46700,2.478770372
0.46750,4.309936818
0.46800,4.309936818
0.46850,3.394353595
0.46900,2.478770372
0.46950,0.3424095179
0.47000,-1.488756928
0.47050,-2.404340151
0.47100,-1.793951336
0.47150,-1.488756928
0.47200,-1.488756928
0.47250,-0.2679792975
0.47300,2.173575964
0.47350,5.225520041
0.47400,5.835908857
0.47450,4.00474241
0.47500,1.563187149
0.47550,-0.2679792975
0.47600,-0.5731737052
0.47650,-0.2679792975
0.47700,0.6476039256
0.47750,1.257992741
0.47800,1.868381556
0.47850,3.394353595
0.47900,4.309936818
0.47950,3.394353595
0.48000,0.6476039256
0.48050,-2.709534559
0.48100,-6.371867452
0.48150,-8.813422713
0.48200,-9.423811529
0.48250,-7.89783949
0.48300,-4.845895413
0.48350,-0.8783681129
0.48400,3.394353595
0.48450,5.835908857
0.48500,4.615131226
0.48550,-0.5731737052
0.48600,-6.371867452
0.48650,-8.813422713
0.48700,-9.118617121
0.48750,-11.25497797
0.48800,-15.83289409
0.48850,-19.49522698
0.48900,-20.41081021
0.48950,-19.19003258
0.49000,-18.88483817
0.49050,-19.19003258
0.49100,-17.66406054
0.49150,-13.69653324
0.49200,-8.508228305
0.49250,-4.235506598
0.49300,-1.793951336
0.49350,-0.8783681129
0.49400,-0.5731737052
0.49450,0.03721511018
0.49500,0.03721511018
0.49550,-0.5731737052
0.49600,-0.2679792975
0.49650,3.699548003
0.49700,7.97226971
0.49750,7.056686487
0.49800,1.257992741
0.49850,-3.319923375
0.49900,-3.014728967
0.49950,-0.2679792975
0.50000,0.6476039256
0.50050,0.9527983333
0.50100,3.699548003
0.50150,7.97226971
0.50200,9.193047341
0.50250,7.056686487
0.50300,5.530714449
0.50350,5.835908857
0.50400,4.615131226
0.50450,0.03721511018
0.50500,-2.709534559
0.50550,-0.8783681129
0.50600,2.783964779
0.50650,4.309936818
0.50700,3.089159187
0.50750,3.394353595
0.50800,5.835908857
0.50850,7.667075303
0.50900,7.667075303
0.50950,7.667075303
0.51000,7.97226971
0.51050,7.667075303
0.51100,6.446297672
0.51150,5.530714449
0.51200,4.920325633
0.51250,4.615131226
0.51300,3.699548003
0.51350,2.173575964
0.51400,0.6476039256
0.51450,-1.183562521
0.51500,-3.014728967
0.51550,-4.235506598
0.51600,-3.625117782
0.51650,-2.099145744
0.51700,-0.2679792975
0.51750,1.257992741
0.51800,2.478770372
0.51850,3.089159187
0.51900,3.089159187
0.51950,2.478770372
0.52000,1.257992741
0.52050,0.9527983333
0.52100,2.478770372
0.52150,5.225520041
0.52200,6.75149208
0.52250,6.75149208
0.52300,6.141103264
0.52350,6.141103264
0.52400,4.920325633
0.52450,2.478770372
0.52500,0.9527983333
0.52550,1.257992741
0.52600,2.173575964
0.52650,1.868381556
0.52700,-0.2679792975
0.52750,-1.488756928
0.52800,-2.099145744
0.52850,-1.183562521
0.52900,-0.2679792975
0.52950,1.563187149
0.53000,3.089159187
0.53050,3.699548003
0.53100,2.478770372
0.53150,0.3424095179
0.53200,-1.183562521
0.53250,-0.8783681129
0.53300,-0.2679792975
0.53350,-0.2679792975
0.53400,-0.8783681129
0.53450,-1.488756928
0.53500,-1.488756928
0.53550,-1.488756928
0.53600,-1.183562521
0.53650,-0.2679792975
0.53700,2.173575964
0.53750,3.394353595
0.53800,2.173575964
0.53850,-0.8783681129
0.53900,-3.625117782
0.53950,-4.845895413
0.54000,-3.625117782
0.54050,-1.183562521
0.54100,0.6476039256
0.54150,0.6476039256
0.54200,-0.2679792975
0.54250,-0.5731737052
0.54300,-1.183562521
0.54350,-3.93031219
0.54400,-7.592645082
0.54450,-7.89783949
0.54500,-3.319923375
0.54550,1.868381556
0.54600,3.394353595
0.54650,1.563187149
0.54700,1.257992741
0.54750,2.783964779
0.54800,3.699548003
0.54850,3.089159187
0.54900,2.478770372
0.54950,2.173575964
0.55000,0.9527983333
0.55050,-0.2679792975
0.55100,0.03721511018
0.55150,3.699548003
0.55200,7.97226971
0.55250,8.887852934
0.55300,6.75149208
0.55350,4.309936818
0.55400,3.394353595
0.55450,4.00474241
0.55500,5.530714449
0.55550,7.056686487
0.55600,7.97226971
0.55650,8.582658526
0.55700,8.277464118
0.55750,7.361880895
0.55800,6.141103264
0.55850,5.530714449
0.55900,4.920325633
0.55950,3.089159187
0.56000,0.6476039256
0.56050,-0.8783681129
0.56100,-1.793951336
0.56150,-3.014728967
0.56200,-4.845895413
0.56250,-6.371867452
0.56300,-6.982256267
0.56350,-6.371867452
0.56400,-5.456284228
0.56450,-3.625117782
0.56500,-1.793951336
0.56550,-0.8783681129
0.56600,-2.099145744
0.56650,-3.014728967
0.56700,-3.319923375
0.56750,-4.235506598
0.56800,-6.066673044
0.56850,-6.371867452
0.56900,-3.625117782
0.56950,-0.8783681129
0.57000,-1.183562521
0.57050,-3.014728967
0.57100,-2.404340151
0.57150,1.257992741
0.57200,3.394353595
0.57250,0.3424095179
0.57300,-4.845895413
0.57350,-7.592645082
0.57400,-6.066673044
0.57450,-3.014728967
0.57500,-0.2679792975
0.57550,2.173575964
0.57600,4.309936818
0.57650,4.615131226
0.57700,3.089159187
0.57750,1.257992741
0.57800,0.03721511018
0.57850,-1.793951336
0.57900,-5.456284228
0.57950,-8.508228305
0.58000,-8.508228305
0.58050,-5.761478636
0.58100,-3.625117782
0.58150,-4.235506598
0.58200,-6.371867452
0.58250,-7.287450675
0.58300,-6.371867452
0.58350,-4.540701005
0.58400,-4.235506598
0.58450,-4.540701005
0.58500,-4.845895413
0.58550,-3.319923375
0.58600,-1.488756928
0.58650,-0.5731737052
0.58700,-0.2679792975
0.58750,0.9527983333
0.58800,3.394353595
0.58850,4.615131226
0.58900,2.783964779
0.58950,-0.8783681129
0.59000,-4.235506598
0.59050,-5.151089821
0.59100,-5.456284228
0.59150,-6.066673044
0.59200,-7.287450675
0.59250,-8.508228305
0.59300,-8.508228305
0.59350,-6.982256267
0.59400,-4.235506598
0.59450,-1.793951336
0.59500,-1.183562521
0.59550,-0.8783681129
0.59600,-0.5731737052
0.59650,-0.2679792975
0.59700,-1.488756928
0.59750,-3.625117782
0.59800,-4.540701005
0.59850,-3.014728967
0.59900,-1.793951336
0.59950,-1.488756928
0.60000,-1.793951336
0.60050,-1.488756928
0.60100,-0.8783681129
0.60150,-1.793951336
0.60200,-4.235506598
0.60250,-6.677061859
0.60300,-6.677061859
0.60350,-3.93031219
0.60400,0.3424095179
0.60450,3.699548003
0.60500,3.699548003
0.60550,1.868381556
0.60600,0.6476039256
0.60650,-0.2679792975
0.60700,-1.488756928
0.60750,-3.93031219
0.60800,-5.456284228
0.60850,-5.456284228
0.60900,-4.540701005
0.60950,-2.099145744
0.61000,1.257992741
0.61050,4.309936818
0.61100,5.225520041
0.61150,4.309936818
0.61200,3.089159187
0.61250,2.173575964
0.61300,0.3424095179
0.61350,-1.793951336
0.61400,-4.540701005
0.61450,-6.982256267
0.61500,-9.118617121
0.61550,-10.03420034
0.61600,-8.813422713
0.61650,-6.371867452
0.61700,-4.845895413
0.61750,-3.93031219
0.61800,-1.793951336
0.61850,1.563187149
0.61900,4.309936818
0.61950,5.225520041
0.62000,4.920325633
0.62050,5.225520041
0.62100,5.530714449
0.62150,4.309936818
0.62200,1.563187149
0.62250,-0.5731737052
0.62300,-1.488756928
0.62350,-0.5731737052
0.62400,1.257992741
0.62450,1.868381556
0.62500,1.257992741
0.62550,1.257992741
0.62600,2.478770372
0.62650,2.478770372
0.62700,0.3424095179
0.62750,-1.793951336
0.62800,-0.5731737052
0.62850,2.478770372
0.62900,2.478770372
0.62950,-0.8783681129
0.63000,-3.014728967
0.63050,-2.099145744
0.63100,-0.5731737052
0.63150,-2.099145744
0.63200,-3.93031219
0.63250,-2.709534559
0.63300,0.3424095179
0.63350,1.563187149
0.63400,0.6476039256
0.63450,0.3424095179
0.63500,1.257992741
0.63550,1.563187149
0.63600,0.6476039256
0.63650,-0.2679792975
0.63700,-0.2679792975
0.63750,-0.2679792975
0.63800,0.03721511018
0.63850,1.257992741
0.63900,3.089159187
0.63950,3.394353595
0.64000,1.868381556
0.64050,0.03721511018
0.64100,-0.8783681129
0.64150,-2.404340151
0.64200,-4.235506598
0.64250,-5.456284228
0.64300,-5.151089821
0.64350,-5.151089821
0.64400,-5.761478636
0.64450,-5.761478636
0.64500,-3.014728967
0.64550,0.03721511018
0.64600,2.478770372
0.64650,4.309936818
0.64700,7.361880895
0.64750,11.02421379
0.64800,12.85538023
0.64850,11.93979701
0.64900,9.803436157
0.64950,7.056686487
0.65000,4.00474241
0.65050,1.563187149
0.65100,0.3424095179
0.65150,0.03721511018
0.65200,-0.2679792975
0.65250,-0.8783681129
0.65300,-0.8783681129
0.65350,-1.183562521
0.65400,-3.014728967
0.65450,-4.235506598
0.65500,-2.404340151
0.65550,-0.2679792975
0.65600,0.3424095179
0.65650,-1.183562521
0.65700,-2.404340151
0.65750,-2.099145744
0.65800,-3.625117782
0.65850,-6.677061859
0.65900,-8.813422713
0.65950,-7.287450675
0.66000,-4.540701005
0.66050,-2.709534559
0.66100,-2.099145744
0.66150,-2.709534559
0.66200,-4.540701005
0.66250,-5.761478636
0.66300,-6.066673044
0.66350,-5.456284228
0.66400,-6.677061859
0.66450,-8.203033898
0.66500,-7.89783949
0.66550,-6.371867452
0.66600,-8.203033898
0.66650,-13.69653324
0.66700,-18.57964376
0.66750,-17.66406054
0.66800,-11.56017238
0.66850,-5.151089821
0.66900,-1.793951336
0.66950,-1.183562521
0.67000,-2.099145744
0.67050,-3.625117782
0.67100,-5.456284228
0.67150,-6.371867452
0.67200,-4.845895413
0.67250,-1.793951336
0.67300,0.6476039256
0.67350,1.868381556
0.67400,1.563187149
0.67450,0.6476039256
0.67500,0.3424095179
0.67550,0.9527983333
0.67600,0.6476039256
0.67650,0.6476039256
0.67700,1.563187149
0.67750,3.089159187
0.67800,3.394353595
0.67850,1.563187149
0.67900,-0.2679792975
0.67950,-0.2679792975
0.68000,1.257992741
0.68050,3.699548003
0.68100,5.530714449
0.68150,7.667075303
0.68200,9.193047341
0.68250,8.887852934
0.68300,6.446297672
0.68350,4.309936818
0.68400,4.309936818
0.68450,5.225520041
0.68500,5.225520041
0.68550,4.00474241
0.68600,2.783964779
0.68650,2.173575964
0.68700,0.9527983333
0.68750,-0.2679792975
0.68800,0.03721511018
0.68850,2.173575964
0.68900,5.225520041
0.68950,7.361880895
0.69000,8.277464118
0.69050,8.582658526
0.69100,8.582658526
0.69150,7.97226971
0.69200,6.141103264
0.69250,3.089159187
0.69300,-0.2679792975
0.69350,-2.404340151
0.69400,-2.099145744
0.69450,-0.8783681129
0.69500,-0.5731737052
0.69550,-1.793951336
0.69600,-2.099145744
0.69650,-0.2679792975
0.69700,1.868381556
0.69750,1.257992741
0.69800,-1.488756928
0.69850,-3.319923375
0.69900,-1.488756928
0.69950,1.563187149
0.70000,3.394353595
0.70050,2.783964779
0.70100,1.868381556
0.70150,1.868381556
0.70200,2.173575964
0.70250,1.868381556
0.70300,1.563187149
0.70350,1.257992741
0.70400,0.9527983333
0.70450,0.6476039256
0.70500,0.03721511018
0.70550,-1.183562521
0.70600,-2.404340151
0.70650,-2.709534559
0.70700,-1.793951336
0.70750,-1.183562521
0.70800,-1.488756928
0.70850,-2.404340151
0.70900,-2.709534559
0.70950,-3.014728967
0.71000,-3.319923375
0.71050,-3.319923375
0.71100,-1.793951336
0.71150,-0.2679792975
0.71200,-0.2679792975
0.71250,-2.404340151
0.71300,-4.235506598
0.71350,-3.319923375
0.71400,-0.5731737052
0.71450,1.563187149
0.71500,2.478770372
0.71550,2.478770372
0.71600,2.173575964
0.71650,1.257992741
0.71700,-1.488756928
0.71750,-6.982256267
0.71800,-13.08614442
0.71850,-16.44328291
0.71900,-14.00172764
0.71950,-7.89783949
0.72000,-3.625117782
0.72050,-3.014728967
0.72100,-3.625117782
0.72150,-1.183562521
0.72200,3.394353595
0.72250,7.056686487
0.72300,7.97226971
0.72350,6.75149208
0.72400,5.835908857
0.72450,4.920325633
0.72500,3.699548003
0.72550,1.563187149
0.72600,-0.2679792975
0.72650,-2.404340151
0.72700,-2.404340151
0.72750,0.6476039256
0.72800,6.75149208
0.72850,12.85538023
0.72900,15.90732431
0.72950,15.6021299
0.73000,12.55018583
0.73050,9.193047341
0.73100,7.056686487
0.73150,5.835908857
0.73200,4.615131226
0.73250,3.394353595
0.73300,2.783964779
0.73350,3.699548003
0.73400,4.615131226
0.73450,5.835908857
0.73500,8.277464118
0.73550,12.55018583
0.73600,16.21251872
0.73650,15.6021299
0.73700,11.3294082
0.73750,8.277464118
0.73800,8.277464118
0.73850,9.498241749
0.73900,9.498241749
0.73950,8.277464118
0.74000,6.446297672
0.74050,3.089159187
0.74100,-0.2679792975
0.74150,-2.099145744
0.74200,-0.2679792975
0.74250,2.783964779
0.74300,2.478770372
0.74350,-1.488756928
0.74400,-6.371867452
0.74450,-9.729005936
0.74500,-11.86536679
0.74550,-12.78095001
0.74600,-11.25497797
0.74650,-6.066673044
0.74700,-0.5731737052
0.74750,0.9527983333
0.74800,-1.793951336
0.74850,-6.066673044
0.74900,-7.592645082
0.74950,-6.677061859
0.75000,-6.677061859
0.75050,-8.203033898
0.75100,-8.508228305
0.75150,-6.371867452
0.75200,-3.014728967
0.75250,-0.2679792975
0.75300,3.394353595
0.75350,7.361880895
0.75400,10.10863056
0.75450,12.24499142
0.75500,15.2969355
0.75550,19.5696572
0.75600,21.40082365
0.75650,18.95926839
0.75700,13.77096346
0.75750,9.803436157
0.75800,7.97226971
0.75850,7.97226971
0.75900,7.667075303
0.75950,5.225520041
0.76000,0.3424095179
0.76050,-4.235506598
0.76100,-6.982256267
0.76150,-8.813422713
0.76200,-11.86536679
0.76250,-12.47575561
0.76300,-7.592645082
0.76350,-4.540701005
0.76400,-13.39133883
0.76450,-29.87183684
0.76500,-34.75494737
0.76550,-18.27444935
0.76600,4.920325633
0.76650,13.77096346
0.76700,6.446297672
0.76750,-3.014728967
0.76800,-6.371867452
0.76850,-8.813422713
0.76900,-14.30692205
0.76950,-17.96925494
0.77000,-15.52769968
0.77050,-11.25497797
0.77100,-10.33939475
0.77150,-12.1705612
0.77200,-13.69653324
0.77250,-13.69653324
0.77300,-12.78095001
0.77350,-10.33939475
0.77400,-6.371867452
0.77450,-2.404340151
0.77500,-0.2679792975
0.77550,-0.5731737052
0.77600,-3.625117782
0.77650,-6.066673044
0.77700,-3.625117782
0.77750,3.699548003
0.77800,11.3294082
0.77850,12.85538023
0.77900,9.193047341
0.77950,6.446297672
0.78000,7.056686487
0.78050,8.887852934
0.78100,9.803436157
0.78150,11.02421379
0.78200,12.24499142
0.78250,10.71901938
0.78300,6.446297672
0.78350,4.309936818
0.78400,7.056686487
0.78450,10.71901938
0.78500,11.3294082
0.78550,11.3294082
0.78600,14.07615786
0.78650,18.04368516
0.78700,15.90732431
0.78750,5.530714449
0.78800,-6.066673044
0.78850,-11.56017238
0.78900,-10.33939475
0.78950,-8.203033898
0.79000,-9.118617121
0.79050,-9.118617121
0.79100,-5.151089821
0.79150,-0.2679792975
0.79200,1.868381556
0.79250,-0.2679792975
0.79300,-2.709534559
0.79350,-5.151089821
0.79400,-8.508228305
0.79450,-12.47575561
0.79500,-15.22250527
0.79550,-16.1380885
0.79600,-16.74847731
0.79650,-16.74847731
0.79700,-15.52769968
0.79750,-14.00172764
0.79800,-13.69653324
0.79850,-13.08614442
0.79900,-9.118617121
0.79950,-4.540701005
0.80000,-4.845895413
0.80050,-8.813422713
0.80100,-8.203033898
0.80150,-1.488756928
0.80200,3.089159187
0.80250,0.3424095179
0.80300,-5.456284228
0.80350,-6.677061859
0.80400,-3.014728967
0.80450,-0.2679792975
0.80500,-0.2679792975
0.80550,-0.2679792975
0.80600,-0.2679792975
0.80650,-0.8783681129
0.80700,-2.404340151
0.80750,-2.709534559
0.80800,-1.183562521
0.80850,0.3424095179
0.80900,0.9527983333
0.80950,0.3424095179
0.81000,-1.183562521
0.81050,-3.93031219
0.81100,-6.066673044
0.81150,-6.066673044
0.81200,-4.540701005
0.81250,-2.709534559
0.81300,-0.2679792975
0.81350,3.394353595
0.81400,5.530714449
0.81450,5.225520041
0.81500,2.478770372
0.81550,-1.183562521
0.81600,-7.592645082
0.81650,-15.52769968
0.81700,-21.63158784
0.81750,-22.85236547
0.81800,-20.41081021
0.81850,-18.57964376
0.81900,-17.96925494
0.81950,-15.52769968
0.82000,-10.94978357
0.82050,-6.371867452
0.82100,-2.709534559
0.82150,0.6476039256
0.82200,3.394353595
0.82250,1.563187149
0.82300,-4.845895413
0.82350,-10.03420034
0.82400,-8.203033898
0.82450,-3.014728967
0.82500,-1.793951336
0.82550,-6.677061859
0.82600,-12.1705612
0.82650,-14.91731087
0.82700,-14.61211646
0.82750,-10.33939475
0.82800,-2.099145744
0.82850,6.75149208
0.82900,9.803436157
0.82950,5.225520041
0.83000,-0.5731737052
0.83050,-2.099145744
0.83100,1.563187149
0.83150,6.141103264
0.83200,8.887852934
0.83250,11.93979701
0.83300,16.51771313
0.83350,21.70601806
0.83400,25.06315654
0.83450,24.75796213
0.83500,21.40082365
0.83550,17.73849076
0.83600,18.04368516
0.83650,24.14757332
0.83700,34.82937759
0.83750,46.12157067
0.83800,52.83584764
0.83850,51.0046812
0.83900,42.76443219
0.83950,35.74496081
0.84000,36.05015522
0.84050,40.01768252
0.84100,39.4072937
0.84150,29.33587825
0.84200,14.07615786
0.84250,0.3424095179
0.84300,-9.729005936
0.84350,-17.66406054
0.84400,-23.46275428
0.84450,-27.43028158
0.84500,-30.48222566
0.84550,-34.44975296
0.84600,-40.24844671
0.84650,-45.43675164
0.84700,-46.65752927
0.84750,-42.38480756
0.84800,-32.61858651
0.84850,-20.1056158
0.84900,-9.423811529
0.84950,-1.793951336
0.85000,3.089159187
0.85050,6.75149208
0.85100,6.75149208
0.85150,2.783964779
0.85200,-0.2679792975
0.85250,2.783964779
0.85300,10.41382497
0.85350,17.73849076
0.85400,23.84237891
0.85450,32.99821114
0.85500,46.73195949
0.85550,60.46570784
0.85600,69.92673447
0.85650,75.42023381
0.85700,78.16698348
0.85750,79.38776111
0.85800,81.52412197
0.85850,88.84878775
0.85900,101.3617585
0.85950,111.4331739
0.86000,112.3487571
0.86050,105.3292858
0.86100,94.6474815
0.86150,80.30334434
0.86200,61.38129106
0.86250,41.84884897
0.86300,25.97873976
0.86350,11.93979701
0.86400,-5.456284228
0.86450,-28.34586481
0.86500,-52.45622301
0.86550,-71.6834707
0.86600,-82.67046938
0.86650,-84.19644142
0.86700,-80.53410852
0.86750,-80.83930293
0.86800,-89.38474635
0.86850,-99.76135621
0.86900,-103.4236891
0.86950,-99.15096739
0.87000,-91.82630161
0.87050,-83.28085819
0.87100,-74.43022037
0.87150,-66.80036018
0.87200,-64.96919373
0.87250,-67.7159434
0.87300,-70.15749866
0.87350,-69.54710985
0.87400,-66.49516577
0.87450,-62.52763847
0.87500,-56.72894472
0.87550,-48.48869571
0.87600,-39.33286348
0.87650,-30.78742007
0.87700,-22.85236547
0.87750,-15.22250527
0.87800,-9.729005936
0.87850,-8.508228305
0.87900,-12.78095001
0.87950,-18.27444935
0.88000,-18.57964376
0.88050,-11.25497797
0.88100,-0.8783681129
0.88150,4.920325633
0.88200,5.225520041
0.88250,2.478770372
0.88300,-1.183562521
0.88350,-6.677061859
0.88400,-11.86536679
0.88450,-12.78095001
0.88500,-9.423811529
0.88550,-4.845895413
0.88600,-2.099145744
0.88650,-1.488756928
0.88700,-1.793951336
0.88750,-1.488756928
0.88800,0.03721511018
0.88850,3.394353595
0.88900,7.361880895
0.88950,10.41382497
0.89000,13.16057464
0.89050,14.68654668
0.89100,12.85538023
0.89150,8.582658526
0.89200,7.361880895
0.89250,13.46576905
0.89300,22.01121246
0.89350,25.06315654
0.89400,20.79043483
0.89450,13.77096346
0.89500,7.361880895
0.89550,0.03721511018
0.89600,-9.118617121
0.89650,-17.66406054
0.89700,-23.15755988
0.89750,-27.12508718
0.89800,-28.95625362
0.89850,-24.98872632
0.89900,-12.1705612
0.89950,4.00474241
0.90000,14.68654668
0.90050,17.12810194
0.90100,18.04368516
0.90150,23.2319901
0.90200,31.1670447
0.90250,35.134572
0.90300,33.30340555
0.90350,28.11510062
0.90400,20.79043483
0.90450,15.6021299
0.90500,17.73849076
0.90550,26.89432299
0.90600,35.4397664
0.90650,37.88132167
0.90700,40.32287693
0.90750,50.08909797
0.90800,63.51765191
0.90850,69.92673447
0.90900,67.48517921
0.90950,66.8747904
0.91000,75.42023381
0.91050,86.40723249
0.91100,88.54359334
0.91150,77.55659467
0.91200,57.71895817
0.91250,37.57612726
0.91300,24.75796213
0.91350,21.09562924
0.91400,22.01121246
0.91450,25.06315654
0.91500,33.91379437
0.91550,48.86832034
0.91600,59.55012461
0.91650,56.19298613
0.91700,42.76443219
0.91750,30.86185029
0.91800,18.65407398
0.91850,-4.845895413
0.91900,-40.24844671
0.91950,-71.07308188
0.92000,-86.02760786
0.92050,-93.04707924
0.92100,-103.7288835
0.92150,-115.9366598
0.92200,-120.2093815
0.92250,-114.7158822
0.92300,-105.2548555
0.92350,-92.43669042
0.92400,-74.43022037
0.92450,-52.45622301
0.92500,-33.22897533
0.92550,-19.80042139
0.92600,-11.56017238
0.92650,-6.371867452
0.92700,-2.404340151
0.92750,3.699548003
0.92800,13.16057464
0.92850,22.01121246
0.92900,26.28393417
0.92950,25.06315654
0.93000,22.01121246
0.93050,20.48524043
0.93100,21.70601806
0.93150,25.67354536
0.93200,30.86185029
0.93250,35.4397664
0.93300,40.32287693
0.93350,45.20598745
0.93400,46.12157067
0.93450,36.35534963
0.93500,16.82290753
0.93550,-0.8783681129
0.93600,-9.118617121
0.93650,-11.86536679
0.93700,-19.49522698
0.93750,-33.83936414
0.93800,-46.04714045
0.93850,-50.93025098
0.93900,-52.15102861
0.93950,-56.72894472
0.94000,-65.27438814
0.94050,-73.20944274
0.94100,-76.87177563
0.94150,-77.78735885
0.94200,-79.00813648
0.94250,-81.14449734
0.94300,-82.06008056
0.94350,-79.92371971
0.94400,-74.12502596
0.94450,-64.96919373
0.94500,-52.15102861
0.94550,-39.9432523
0.94600,-32.92378092
0.94650,-31.70300329
0.94700,-29.56664244
0.94750,-21.32639343
0.94800,-9.118617121
0.94850,0.3424095179
0.94900,4.309936818
0.94950,4.309936818
0.95000,2.478770372
0.95050,0.6476039256
0.95100,2.478770372
0.95150,11.3294082
0.95200,23.5371845
0.95250,32.99821114
0.95300,39.1020993
0.95350,44.29040423
0.95400,48.56312593
0.95450,47.0371539
0.95500,39.1020993
0.95550,28.11510062
0.95600,17.12810194
0.95650,6.141103264
0.95700,1.257992741
0.95750,10.10863056
0.95800,32.69301673
0.95850,56.19298613
0.95900,70.23192888
0.95950,76.33581704
0.96000,82.13451078
0.96050,87.01762131
0.96100,85.49164927
0.96150,76.03062263
0.96200,62.60206869
0.96250,47.3423483
0.96300,29.94626706
0.96350,13.77096346
0.96400,2.173575964
0.96450,-5.456284228
0.96500,-13.69653324
0.96550,-22.54717106
0.96600,-33.22897533
0.96650,-48.48869571
0.96700,-71.37827629
0.96750,-92.74188483
0.96800,-97.31980095
0.96850,-80.83930293
0.96900,-54.59258387
0.96950,-32.0081977
0.97000,-15.83289409
0.97050,-1.488756928
0.97100,11.93979701
0.97150,24.14757332
0.97200,35.4397664
0.97250,47.3423483
0.97300,56.80337494
0.97350,61.68648547
0.97400,63.2124575
0.97450,62.29687428
0.97500,56.19298613
0.97550,44.59559863
0.97600,33.60859996
0.97650,27.5047118
0.97700,21.40082365
0.97750,11.3294082
0.97800,2.478770372
0.97850,1.257992741
0.97900,4.615131226
0.97950,6.141103264
0.98000,6.141103264
0.98050,9.193047341
0.98100,12.24499142
0.98150,7.667075303
0.98200,-4.845895413
0.98250,-16.44328291
0.98300,-19.80042139
0.98350,-17.96925494
0.98400,-17.35886613
0.98450,-20.71600461
0.98500,-25.59911514
0.98550,-28.65105921
0.98600,-29.26144803
0.98650,-32.61858651
0.98700,-42.99519638
0.98750,-53.67700065
0.98800,-52.15102861
0.98850,-36.58611381
0.98900,-23.46275428
0.98950,-29.87183684
0.99000,-49.09908453
0.99050,-60.08608321
0.99100,-53.67700065
0.99150,-39.9432523
0.99200,-29.56664244
0.99250,-19.80042139
0.99300,-0.8783681129
0.99350,26.89432299
0.99400,51.92026442
0.99450,62.60206869
0.99500,60.77090224
0.99550,60.77090224
0.99600,74.809845
0.99650,100.1409808
0.99700,121.199395
0.99750,125.4721167
0.99800,115.4007012
0.99850,104.1085081
0.99900,102.5825361
0.99950,112.0435627
1.00000,125.1669223
1.00050,130.0500328
1.00100,118.1474509
1.00150,89.76437097
1.00200,53.44623646
1.00250,18.95926839
1.00300,-8.203033898
1.00350,-30.17703125
1.00400,-52.15102861
1.00450,-77.17697004
1.00500,-98.84577299
1.00550,-104.3392723
1.00600,-88.77435753
1.00650,-62.83283288
1.00700,-42.99519638
1.00750,-32.31339211
1.00800,-23.46275428
1.00850,-13.08614442
1.00900,-7.287450675
1.00950,-9.423811529
1.01000,-13.69653324
1.01050,-15.22250527
1.01100,-17.35886613
1.01150,-26.81989277
1.01200,-42.69000197
1.01250,-59.17049998
1.01300,-71.6834707
1.01350,-77.78735885
1.01400,-75.95619241
1.01450,-68.02113781
1.01500,-60.69647202
1.01550,-57.94972235
1.01600,-53.98219505
1.01650,-38.11208585
1.01700,-6.677061859
1.01750,30.25146147
1.01800,60.77090224
1.01850,77.86178907
1.01900,85.79684367
1.01950,89.45917657
1.02000,90.37475979
1.02050,87.01762131
1.02100,81.52412197
1.02150,77.86178907
1.02200,72.97867855
1.02250,58.02415257
1.02300,27.5047118
1.02350,-11.25497797
1.02400,-45.13155723
1.02450,-66.49516577
1.02500,-78.39774767
1.02550,-85.41721905
1.02600,-86.63799668
1.02650,-78.70294208
1.02700,-61.00166643
1.02750,-37.80689144
1.02800,-14.00172764
1.02850,7.667075303
1.02900,27.5047118
1.02950,44.90079304
1.03000,55.58259731
1.03050,56.19298613
1.03100,51.3098756
1.03150,49.78390357
1.03200,55.2774029
1.03250,59.85531902
1.03300,56.49818053
1.03350,48.56312593
1.03400,42.76443219
1.03450,36.96573844
1.03500,23.2319901
1.03550,2.478770372
1.03600,-16.1380885
1.03650,-29.26144803
1.03700,-41.16402993
1.03750,-53.67700065
1.03800,-59.7808888
1.03850,-56.11855591
1.03900,-50.01466775
1.03950,-49.09908453
1.04000,-52.15102861
1.04050,-51.54063979
1.04100,-44.52116841
1.04150,-32.61858651
1.04200,-16.74847731
1.04250,3.394353595
1.04300,25.36835095
1.04350,43.0696266
1.04400,52.53065323
1.04450,53.75143087
1.04500,48.25793153
1.04550,40.62807133
1.04600,35.74496081
1.04650,33.91379437
1.04700,31.1670447
1.04750,24.75796213
1.04800,16.82290753
1.04850,9.193047341
1.04900,1.257992741
1.04950,-6.982256267
1.05000,-15.52769968
1.05050,-23.76794869
1.05100,-34.14455855
1.05150,-46.04714045
1.05200,-56.72894472
1.05250,-63.13802728
1.05300,-65.27438814
1.05350,-63.13802728
1.05400,-55.20297268
1.05450,-46.04714045
1.05500,-42.38480756
1.05550,-46.35233486
1.05600,-50.93025098
1.05650,-48.18350131
1.05700,-39.33286348
1.05750,-31.70300329
1.05800,-27.12508718
1.05850,-22.54717106
1.05900,-17.66406054
1.05950,-12.78095001
1.06000,-7.287450675
1.06050,-1.183562521
1.06100,2.173575964
1.06150,0.03721511018
1.06200,-4.235506598
1.06250,-4.845895413
1.06300,-2.099145744
1.06350,-1.488756928
1.06400,-4.235506598
1.06450,-7.592645082
1.06500,-9.423811529
1.06550,-12.1705612
1.06600,-15.22250527
1.06650,-15.22250527
1.06700,-11.56017238
1.06750,-5.761478636
1.06800,0.03721511018
1.06850,6.446297672
1.06900,10.10863056
1.06950,6.75149208
1.07000,1.563187149
1.07050,4.615131226
1.07100,16.82290753
1.07150,25.06315654
1.07200,19.5696572
1.07250,4.920325633
1.07300,-3.93031219
1.07350,-2.709534559
1.07400,2.783964779
1.07450,3.699548003
1.07500,-3.319923375
1.07550,-14.00172764
1.07600,-22.24197665
1.07650,-24.68353191
1.07700,-24.98872632
1.07750,-27.73547599
1.07800,-30.17703125
1.07850,-23.76794869
1.07900,-6.982256267
1.07950,11.6346026
1.08000,26.58912858
1.08050,40.32287693
1.08100,58.32934698
1.08150,78.16698348
1.08200,89.76437097
1.08250,87.93320453
1.08300,72.06309533
1.08350,45.20598745
1.08400,15.6021299
1.08450,-4.235506598
1.08500,-8.203033898
1.08550,-3.319923375
1.08600,-2.404340151
1.08650,-6.677061859
1.08700,-9.729005936
1.08750,-9.118617121
1.08800,-10.03420034
1.08850,-10.94978357
1.08900,-4.540701005
1.08950,7.056686487
1.09000,11.6346026
1.09050,4.615131226
1.09100,-0.2679792975
1.09150,11.02421379
1.09200,33.60859996
1.09250,51.61507001
1.09300,59.55012461
1.09350,64.73842954
1.09400,71.45270651
1.09450,75.1150394
1.09500,72.06309533
1.09550,65.95920717
1.09600,60.46570784
1.09650,53.75143087
1.09700,43.0696266
1.09750,30.86185029
1.09800,19.5696572
1.09850,5.530714449
1.09900,-13.69653324
1.09950,-36.89130822
1.10000,-58.56011117
1.10050,-75.34580359
1.10100,-85.41721905
1.10150,-86.63799668
1.10200,-79.31333089
1.10250,-71.37827629
1.10300,-69.54710985
1.10350,-71.98866511
1.10400,-68.93672103
1.10450,-57.64452795
1.10500,-45.43675164
1.10550,-38.72247467
1.10600,-31.39780888
1.10650,-16.1380885
1.10700,4.920325633
1.10750,21.40082365
1.10800,27.80990621
1.10850,29.94626706
1.10900,33.30340555
1.10950,37.88132167
1.11000,40.93326574
1.11050,40.93326574
1.11100,38.18651607
1.11150,32.38782233
1.11200,26.28393417
1.11250,23.5371845
1.11300,21.40082365
1.11350,14.07615786
1.11400,2.478770372
1.11450,-4.235506598
1.11500,-2.709534559
1.11550,-0.2679792975
1.11600,-3.625117782
1.11650,-9.729005936
1.11700,-10.03420034
1.11750,-5.761478636
1.11800,-4.540701005
1.11850,-7.89783949
1.11900,-10.94978357
1.11950,-13.08614442
1.12000,-19.49522698
1.12050,-30.48222566
1.12100,-39.63805789
1.12150,-43.30039078
1.12200,-44.21597401
1.12250,-44.82636282
1.12300,-42.99519638
1.12350,-38.11208585
1.12400,-34.44975296
1.12450,-35.06014178
1.12500,-36.89130822
1.12550,-34.75494737
1.12600,-28.34586481
1.12650,-20.1056158
1.12700,-12.78095001
1.12750,-6.982256267
1.12800,-4.845895413
1.12850,-5.761478636
1.12900,-6.677061859
1.12950,-4.845895413
1.13000,-1.183562521
1.13050,-0.2679792975
1.13100,-1.183562521
1.13150,-1.793951336
1.13200,-1.183562521
1.13250,-0.8783681129
1.13300,-0.8783681129
1.13350,-0.8783681129
1.13400,-1.183562521
1.13450,-3.014728967
1.13500,-5.151089821
1.13550,-5.456284228
1.13600,-4.540701005
1.13650,-4.235506598
1.13700,-5.761478636
1.13750,-6.982256267
1.13800,-6.982256267
1.13850,-5.761478636
1.13900,-4.540701005
1.13950,-4.845895413
1.14000,-6.677061859
1.14050,-9.423811529
1.14100,-10.03420034
1.14150,-6.677061859
1.14200,-0.2679792975
1.14250,5.835908857
1.14300,7.361880895
1.14350,4.00474241
1.14400,-1.488756928
1.14450,-4.845895413
1.14500,-3.625117782
1.14550,0.3424095179
1.14600,2.173575964
1.14650,1.257992741
1.14700,0.3424095179
1.14750,2.173575964
1.14800,3.089159187
1.14850,-0.2679792975
1.14900,-5.761478636
1.14950,-7.287450675
1.15000,-4.540701005
1.15050,-2.099145744
1.15100,-2.404340151
1.15150,-2.099145744
1.15200,1.868381556
1.15250,8.582658526
1.15300,13.46576905
1.15350,13.46576905
1.15400,10.10863056
1.15450,6.141103264
1.15500,3.089159187
1.15550,0.3424095179
1.15600,-3.014728967
1.15650,-8.203033898
1.15700,-13.08614442
1.15750,-16.74847731
1.15800,-19.19003258
1.15850,-21.32639343
1.15900,-23.46275428
1.15950,-24.37833751
1.16000,-21.93678224
1.16050,-14.91731087
1.16100,-3.319923375
1.16150,7.361880895
1.16200,13.16057464
1.16250,14.99174109
1.16300,18.04368516
1.16350,25.67354536
1.16400,36.05015522
1.16450,49.17351475
1.16500,66.8747904
1.16550,83.66048282
1.16600,89.15398216
1.16650,78.47217789
1.16700,60.16051343
1.16750,46.12157067
1.16800,36.66054403
1.16850,27.5047118
1.16900,18.65407398
1.16950,16.21251872
1.17000,18.04368516
1.17050,15.2969355
1.17100,4.615131226
1.17150,-6.066673044
1.17200,-10.03420034
1.17250,-7.287450675
1.17300,-1.488756928
1.17350,5.225520041
1.17400,12.55018583
1.17450,13.77096346
1.17500,2.173575964
1.17550,-18.88483817
1.17600,-38.11208585
1.17650,-47.26791808
1.17700,-51.54063979
1.17750,-57.94972235
1.17800,-65.27438814
1.17850,-63.7484161
1.17900,-50.31986216
1.17950,-33.83936414
1.18000,-23.76794869
1.18050,-19.19003258
1.18100,-14.61211646
1.18150,-9.729005936
1.18200,-8.203033898
1.18250,-6.677061859
1.18300,-0.2679792975
1.18350,10.41382497
1.18400,15.90732431
1.18450,13.16057464
1.18500,5.835908857
1.18550,-0.2679792975
1.18600,-6.677061859
1.18650,-15.52769968
1.18700,-23.76794869
1.18750,-26.20950395
1.18800,-21.93678224
1.18850,-14.61211646
1.18900,-8.813422713
1.18950,-6.066673044
1.19000,-7.287450675
1.19050,-9.118617121
1.19100,-7.287450675
1.19150,-1.793951336
1.19200,2.478770372
1.19250,3.089159187
1.19300,2.478770372
1.19350,3.699548003
1.19400,5.835908857
1.19450,6.141103264
1.19500,4.615131226
1.19550,4.309936818
1.19600,4.920325633
1.19650,4.309936818
1.19700,2.478770372
1.19750,0.9527983333
1.19800,1.563187149
1.19850,3.394353595
1.19900,5.835908857
1.19950,8.582658526
1.20000,10.10863056
1.20050,9.193047341
1.20100,6.446297672
1.20150,4.309936818
1.20200,3.699548003
1.20250,3.089159187
1.20300,0.6476039256
1.20350,-3.319923375
1.20400,-8.203033898
1.20450,-13.69653324
1.20500,-20.1056158
1.20550,-25.90430954
1.20600,-29.87183684
1.20650,-32.61858651
1.20700,-36.28091941
1.20750,-40.85883552
1.20800,-44.21597401
1.20850,-44.21597401
1.20900,-40.24844671
1.20950,-32.92378092
1.21000,-24.0731431
1.21050,-15.52769968
1.21100,-9.118617121
1.21150,-4.235506598
1.21200,1.868381556
1.21250,10.10863056
1.21300,18.95926839
1.21350,26.58912858
1.21400,33.30340555
1.21450,39.4072937
1.21500,43.0696266
1.21550,42.76443219
1.21600,41.23846015
1.21650,40.62807133
1.21700,39.71248811
1.21750,36.05015522
1.21800,29.94626706
1.21850,23.5371845
1.21900,18.34887957
1.21950,14.68654668
1.22000,10.41382497
1.22050,2.478770372
1.22100,-10.64458916
1.22150,-25.29392073
1.22200,-30.17703125
1.22250,-19.49522698
1.22300,-2.709534559
1.22350,5.225520041
1.22400,0.3424095179
1.22450,-7.592645082
1.22500,-10.03420034
1.22550,-9.118617121
1.22600,-10.03420034
1.22650,-11.86536679
1.22700,-6.677061859
1.22750,6.141103264
1.22800,20.79043483
1.22850,30.86185029
1.22900,37.27093285
1.22950,43.68001541
1.23000,50.69948679
1.23050,52.53065323
1.23100,47.3423483
1.23150,37.27093285
1.23200,27.5047118
1.23250,20.48524043
1.23300,16.21251872
1.23350,14.07615786
1.23400,11.3294082
1.23450,6.141103264
1.23500,0.6476039256
1.23550,1.563187149
1.23600,11.02421379
1.23650,21.40082365
1.23700,24.75796213
1.23750,24.14757332
1.23800,32.38782233
1.23850,52.53065323
1.23900,70.53712329
1.23950,71.75790092
1.24000,57.71895817
1.24050,43.0696266
1.24100,36.96573844
1.24150,36.05015522
1.24200,33.60859996
1.24250,27.80990621
1.24300,19.5696572
1.24350,8.582658526
1.24400,-6.066673044
1.24450,-24.37833751
1.24500,-46.35233486
1.24550,-71.98866511
1.24600,-98.23538417
1.24650,-118.3782151
1.24700,-127.5340473
1.24750,-125.7028809
1.24800,-118.3782151
1.24850,-110.1379661
1.24900,-103.1184947
1.24950,-96.70941213
1.25000,-88.16396872
1.25050,-76.26138682
1.25100,-64.35880491
1.25150,-56.42375031
1.25200,-49.70947335
1.25250,-38.11208585
1.25300,-19.80042139
1.25350,-0.8783681129
1.25400,13.16057464
1.25450,25.67354536
1.25500,38.18651607
1.25550,45.51118186
1.25600,41.23846015
1.25650,28.72548943
1.25700,17.43329635
1.25750,13.46576905
1.25800,13.77096346
1.25850,14.07615786
1.25900,11.6346026
1.25950,6.141103264
1.26000,-1.488756928
1.26050,-6.677061859
1.26100,-5.761478636
1.26150,-0.8783681129
1.26200,1.868381556
1.26250,0.9527983333
1.26300,-1.793951336
1.26350,-5.456284228
1.26400,-9.118617121
1.26450,-11.25497797
1.26500,-9.729005936
1.26550,-6.677061859
1.26600,-7.592645082
1.26650,-11.56017238
1.26700,-12.47575561
1.26750,-7.287450675
1.26800,-0.2679792975
1.26850,5.225520041
1.26900,9.498241749
1.26950,15.2969355
1.27000,20.79043483
1.27050,25.97873976
1.27100,32.99821114
1.27150,42.45923778
1.27200,51.61507001
1.27250,58.02415257
1.27300,63.51765191
1.27350,67.1799848
1.27400,62.9072631
1.27450,47.0371539
1.27500,26.28393417
1.27550,10.10863056
1.27600,-0.2679792975
1.27650,-8.813422713
1.27700,-14.91731087
1.27750,-13.08614442
1.27800,-5.456284228
1.27850,-0.2679792975
1.27900,-1.183562521
1.27950,-3.93031219
1.28000,-4.845895413
1.28050,-6.066673044
1.28100,-8.508228305
1.28150,-8.203033898
1.28200,-1.488756928
1.28250,8.277464118
1.28300,16.82290753
1.28350,20.18004602
1.28400,19.87485161
1.28450,18.95926839
1.28500,20.18004602
1.28550,22.62160128
1.28600,22.31640687
1.28650,18.34887957
1.28700,16.82290753
1.28750,23.84237891
1.28800,35.74496081
1.28850,44.59559863
1.28900,47.3423483
1.28950,47.64754271
1.29000,50.69948679
1.29050,60.77090224
1.29100,78.7773723
1.29150,98.00461998
1.29200,105.6344802
1.29250,95.86825913
1.29300,80.91373315
1.29350,79.99814993
1.29400,94.03709268
1.29450,102.8877305
1.29500,89.76437097
1.29550,60.77090224
1.29600,32.38782233
1.29650,12.24499142
1.29700,-1.488756928
1.29750,-11.25497797
1.29800,-12.78095001
1.29850,-7.287450675
1.29900,-5.151089821
1.29950,-14.00172764
1.30000,-29.56664244
1.30050,-41.77441874
1.30100,-48.48869571
1.30150,-55.20297268
1.30200,-65.88477695
1.30250,-78.70294208
1.30300,-89.99513516
1.30350,-103.1184947
1.30400,-121.1249647
1.30450,-140.6574068
1.30500,-154.6963496
1.30550,-158.3586825
1.30600,-154.6963496
1.30650,-151.0340167
1.30700,-150.4236279
1.30750,-145.5405174
1.30800,-125.092492
1.30850,-87.24838549
1.30900,-45.43675164
1.30950,-15.22250527
1.31000,3.394353595
1.31050,23.5371845
1.31100,49.78390357
1.31150,72.97867855
1.31200,86.40723249
1.31250,95.86825913
1.31300,110.2123963
1.31350,128.5240608
1.31400,142.8681979
1.31450,149.5824749
1.31500,148.0565028
1.31550,137.3746986
1.31600,116.9266733
1.31650,90.06956538
1.31700,58.02415257
1.31750,19.5696572
1.31800,-20.41081021
1.31850,-51.23544538
1.31900,-67.7159434
1.31950,-80.53410852
1.32000,-101.2873282
1.32050,-124.7872976
1.32100,-139.1314348
1.32150,-140.9626012
1.32200,-138.521046
1.32250,-135.4691019
1.32300,-130.280797
1.32350,-124.1769088
1.32400,-119.2937983
1.32450,-112.8847157
1.32500,-95.79382891
1.32550,-67.10555458
1.32600,-35.975725
1.32650,-14.30692205
1.32700,-5.151089821
1.32750,-5.456284228
1.32800,-8.813422713
1.32850,-9.423811529
1.32900,-5.151089821
1.32950,1.563187149
1.33000,7.361880895
1.33050,10.10863056
1.33100,11.93979701
1.33150,13.16057464
1.33200,12.24499142
1.33250,10.71901938
1.33300,9.193047341
1.33350,7.667075303
1.33400,4.920325633
1.33450,3.394353595
1.33500,6.446297672
1.33550,14.38135227
1.33600,22.62160128
1.33650,26.58912858
1.33700,25.67354536
1.33750,22.62160128
1.33800,21.70601806
1.33850,25.97873976
1.33900,34.21898877
1.33950,42.45923778
1.34000,47.95273712
1.34050,50.69948679
1.34100,52.22545883
1.34150,53.75143087
1.34200,55.58259731
1.34250,56.49818053
1.34300,54.66701409
1.34350,49.17351475
1.34400,42.76443219
1.34450,38.49171048
1.34500,36.66054403
1.34550,34.52418318
1.34600,30.55665588
1.34650,24.14757332
1.34700,13.77096346
1.34750,-1.183562521
1.34800,-17.66406054
1.34850,-29.26144803
1.34900,-32.92378092
1.34950,-31.39780888
1.35000,-30.48222566
1.35050,-32.61858651
1.35100,-36.89130822
1.35150,-36.89130822
1.35200,-29.26144803
1.35250,-16.74847731
1.35300,-4.845895413
1.35350,5.530714449
1.35400,21.40082365
1.35450,43.0696266
1.35500,62.60206869
1.35550,74.50465059
1.35600,83.66048282
1.35650,98.00461998
1.35700,113.5695348
1.35750,121.199395
1.35800,119.0630341
1.35850,112.0435627
1.35900,102.8877305
1.35950,89.15398216
1.36000,73.58906737
1.36050,61.68648547
1.36100,53.44623646
1.36150,42.45923778
1.36200,25.67354536
1.36250,6.75149208
1.36300,-13.69653324
1.36350,-37.80689144
1.36400,-61.00166643
1.36450,-74.43022037
1.36500,-77.78735885
1.36550,-81.14449734
1.36600,-88.16396872
1.36650,-89.68994075
1.36700,-78.09255326
1.36750,-61.00166643
1.36800,-50.01466775
1.36850,-45.74194605
1.36900,-41.46922434
1.36950,-36.89130822
1.37000,-36.89130822
1.37050,-42.38480756
1.37100,-47.57311249
1.37150,-50.93025098
1.37200,-53.37180624
1.37250,-53.98219505
1.37300,-49.09908453
1.37350,-36.89130822
1.37400,-19.80042139
1.37450,-2.099145744
1.37500,11.3294082
1.37550,16.82290753
1.37600,15.2969355
1.37650,16.21251872
1.37700,27.1995174
1.37750,43.98520982
1.37800,54.36181968
1.37850,52.83584764
1.37900,46.42676508
1.37950,42.45923778
1.38000,41.54365456
1.38050,38.18651607
1.38100,30.86185029
1.38150,22.31640687
1.38200,13.77096346
1.38250,1.868381556
1.38300,-15.52769968
1.38350,-32.92378092
1.38400,-40.24844671
1.38450,-35.67053059
1.38500,-26.51469836
1.38550,-21.32639343
1.38600,-19.80042139
1.38650,-17.96925494
1.38700,-16.1380885
1.38750,-18.27444935
1.38800,-23.15755988
1.38850,-25.90430954
1.38900,-24.68353191
1.38950,-21.93678224
1.39000,-17.35886613
1.39050,-6.677061859
1.39100,8.582658526
1.39150,17.43329635
1.39200,10.41382497
1.39250,-8.813422713
1.39300,-26.81989277
1.39350,-33.53416974
1.39400,-29.87183684
1.39450,-21.93678224
1.39500,-13.08614442
1.39550,-3.93031219
1.39600,4.615131226
1.39650,11.93979701
1.39700,17.73849076
1.39750,23.5371845
1.39800,29.03068384
1.39850,30.86185029
1.39900,27.5047118
1.39950,22.92679569
1.40000,23.2319901
1.40050,29.03068384
1.40100,36.66054403
1.40150,41.54365456
1.40200,43.98520982
1.40250,43.98520982
1.40300,40.62807133
1.40350,35.74496081
1.40400,33.30340555
1.40450,35.134572
1.40500,37.57612726
1.40550,36.35534963
1.40600,31.1670447
1.40650,25.67354536
1.40700,22.62160128
1.40750,21.70601806
1.40800,21.09562924
1.40850,16.21251872
1.40900,6.141103264
1.40950,-5.151089821
1.41000,-12.47575561
1.41050,-16.1380885
1.41100,-24.98872632
1.41150,-44.21597401
1.41200,-68.02113781
1.41250,-86.02760786
1.41300,-93.65746805
1.41350,-94.57305128
1.41400,-91.21591279
1.41450,-82.67046938
1.41500,-67.41074899
1.41550,-48.79389012
1.41600,-31.09261448
1.41650,-17.35886613
1.41700,-8.508228305
1.41750,-1.488756928
1.41800,7.361880895
1.41850,17.43329635
1.41900,22.31640687
1.41950,18.95926839
1.42000,10.71901938
1.42050,4.615131226
1.42100,2.783964779
1.42150,3.699548003
1.42200,5.835908857
1.42250,8.277464118
1.42300,8.277464118
1.42350,4.00474241
1.42400,0.3424095179
1.42450,3.699548003
1.42500,13.77096346
1.42550,21.70601806
1.42600,21.40082365
1.42650,14.99174109
1.42700,7.97226971
1.42750,1.563187149
1.42800,-6.371867452
1.42850,-15.22250527
1.42900,-19.49522698
1.42950,-17.05367172
1.43000,-12.1705612
1.43050,-10.33939475
1.43100,-11.25497797
1.43150,-10.03420034
1.43200,-3.625117782
1.43250,1.563187149
1.43300,1.257992741
1.43350,-2.709534559
1.43400,-3.625117782
1.43450,-0.2679792975
1.43500,4.615131226
1.43550,11.02421379
1.43600,24.45276773
1.43650,44.90079304
1.43700,64.43323514
1.43750,76.94620585
1.43800,85.18645486
1.43850,93.42670387
1.43900,100.4461752
1.43950,102.5825361
1.44000,100.4461752
1.44050,97.69942557
1.44100,92.81631505
1.44150,84.88126045
1.44200,74.19945618
1.44250,59.55012461
1.44300,35.4397664
1.44350,-0.2679792975
1.44400,-39.02766908
1.44450,-71.37827629
1.44500,-97.93018976
1.44550,-126.9236585
1.44600,-159.2742657
1.44650,-185.2157904
1.44700,-196.5079834
1.44750,-192.5404561
1.44800,-179.4170966
1.44850,-165.3781539
1.44900,-156.527516
1.44950,-150.7288223
1.45000,-135.7742963
1.45050,-104.6444667
1.45100,-64.96919373
1.45150,-31.39780888
1.45200,-7.287450675
1.45250,15.2969355
1.45300,38.18651607
1.45350,53.75143087
1.45400,58.9397358
1.45450,60.77090224
1.45500,67.1799848
1.45550,76.03062263
1.45600,79.69295552
1.45650,75.72542822
1.45700,67.48517921
1.45750,56.49818053
1.45800,43.98520982
1.45850,32.38782233
1.45900,24.75796213
1.45950,20.79043483
1.46000,16.21251872
1.46050,7.97226971
1.46100,-0.8783681129
1.46150,-5.151089821
1.46200,-3.014728967
1.46250,-1.183562521
1.46300,-6.982256267
1.46350,-19.49522698
1.46400,-29.26144803
1.46450,-30.78742007
1.46500,-26.51469836
1.46550,-21.63158784
1.46600,-17.05367172
1.46650,-12.1705612
1.46700,-8.813422713
1.46750,-7.592645082
1.46800,-6.066673044
1.46850,-3.014728967
1.46900,-2.709534559
1.46950,-6.066673044
1.47000,-7.89783949
1.47050,-2.404340151
1.47100,7.97226971
1.47150,18.04368516
1.47200,24.14757332
1.47250,26.58912858
1.47300,24.75796213
1.47350,19.2644628
1.47400,15.2969355
1.47450,17.12810194
1.47500,23.5371845
1.47550,28.42029503
1.47600,30.55665588
1.47650,31.77743351
1.47700,33.60859996
1.47750,34.82937759
1.47800,35.134572
1.47850,34.52418318
1.47900,31.77743351
1.47950,27.80990621
1.48000,25.67354536
1.48050,28.42029503
1.48100,32.99821114
1.48150,34.82937759
1.48200,33.91379437
1.48250,35.4397664
1.48300,40.93326574
1.48350,49.17351475
1.48400,58.63454139
1.48450,68.09556803
1.48500,73.58906737
1.48550,71.75790092
1.48600,64.73842954
1.48650,59.55012461
1.48700,60.46570784
1.48750,64.73842954
1.48800,64.12804073
1.48850,50.39429238
1.48900,21.09562924
1.48950,-12.78095001
1.49000,-35.975725
1.49050,-45.13155723
1.49100,-53.67700065
1.49150,-70.15749866
1.49200,-83.5860526
1.49250,-80.53410852
1.49300,-68.63152662
1.49350,-67.41074899
1.49400,-80.22891412
1.49450,-91.5211072
1.49500,-92.43669042
1.49550,-90.30032957
1.49600,-91.82630161
1.49650,-89.68994075
1.49700,-78.70294208
1.49750,-66.49516577
1.49800,-62.22244406
1.49850,-59.7808888
1.49900,-50.62505657
1.49950,-37.80689144
1.50000,-32.0081977
1.50050,-34.44975296
1.50100,-35.36533618
1.50150,-28.95625362
1.50200,-19.80042139
1.50250,-14.30692205
1.50300,-9.729005936
1.50350,-0.8783681129
1.50400,12.24499142
1.50450,24.45276773
1.50500,31.4722391
1.50550,34.52418318
1.50600,36.05015522
1.50650,37.27093285
1.50700,36.05015522
1.50750,32.69301673
1.50800,29.94626706
1.50850,31.77743351
1.50900,38.18651607
1.50950,45.20598745
1.51000,48.25793153
1.51050,45.81637627
1.51100,39.71248811
1.51150,32.69301673
1.51200,26.28393417
1.51250,20.48524043
1.51300,15.90732431
1.51350,13.16057464
1.51400,12.85538023
1.51450,13.46576905
1.51500,12.55018583
1.51550,9.193047341
1.51600,4.00474241
1.51650,0.03721511018
1.51700,-0.2679792975
1.51750,4.00474241
1.51800,10.41382497
1.51850,12.85538023
1.51900,9.803436157
1.51950,4.920325633
1.52000,2.783964779
1.52050,2.173575964
1.52100,0.9527983333
1.52150,-0.2679792975
1.52200,0.3424095179
1.52250,1.257992741
1.52300,-1.183562521
1.52350,-6.677061859
1.52400,-8.203033898
1.52450,-3.93031219
1.52500,2.173575964
1.52550,6.75149208
1.52600,8.277464118
1.52650,7.361880895
1.52700,4.00474241
1.52750,0.3424095179
1.52800,-0.8783681129
1.52850,-0.2679792975
1.52900,-0.2679792975
1.52950,0.3424095179
1.53000,1.868381556
1.53050,3.089159187
1.53100,1.257992741
1.53150,-3.93031219
1.53200,-13.39133883
1.53250,-25.90430954
1.53300,-38.11208585
1.53350,-44.21597401
1.53400,-41.46922434
1.53450,-34.75494737
1.53500,-29.56664244
1.53550,-25.90430954
1.53600,-19.80042139
1.53650,-10.64458916
1.53700,-2.404340151
1.53750,2.173575964
1.53800,3.699548003
1.53850,2.173575964
1.53900,0.9527983333
1.53950,5.835908857
1.54000,17.12810194
1.54050,27.5047118
1.54100,29.64107266
1.54150,25.67354536
1.54200,22.62160128
1.54250,20.79043483
1.54300,15.6021299
1.54350,6.446297672
1.54400,-0.2679792975
1.54450,-1.793951336
1.54500,-1.183562521
1.54550,-1.488756928
1.54600,-2.404340151
1.54650,-4.235506598
1.54700,-6.982256267
1.54750,-10.03420034
1.54800,-10.94978357
1.54850,-10.03420034
1.54900,-9.423811529
1.54950,-10.33939475
1.55000,-10.33939475
1.55050,-8.203033898
1.55100,-5.456284228
1.55150,-5.456284228
1.55200,-7.89783949
1.55250,-10.94978357
1.55300,-13.39133883
1.55350,-15.52769968
1.55400,-18.57964376
1.55450,-21.63158784
1.55500,-18.88483817
1.55550,-5.456284228
1.55600,12.55018583
1.55650,24.45276773
1.55700,22.31640687
1.55750,12.24499142
1.55800,6.141103264
1.55850,9.193047341
1.55900,18.34887957
1.55950,28.42029503
1.56000,37.27093285
1.56050,44.90079304
1.56100,50.08909797
1.56150,51.3098756
1.56200,47.0371539
1.56250,39.4072937
1.56300,31.77743351
1.56350,29.03068384
1.56400,29.94626706
1.56450,29.64107266
1.56500,23.2319901
1.56550,13.16057464
1.56600,2.478770372
1.56650,-8.203033898
1.56700,-21.32639343
1.56750,-35.06014178
1.56800,-45.74194605
1.56850,-52.76141742
1.56900,-58.56011117
1.56950,-65.88477695
1.57000,-72.59905392
1.57050,-74.73541478
1.57100,-70.15749866
1.57150,-60.69647202
1.57200,-51.23544538
1.57250,-46.65752927
1.57300,-46.96272368
1.57350,-45.13155723
1.57400,-33.83936414
1.57450,-11.86536679
1.57500,12.85538023
1.57550,31.1670447
1.57600,39.71248811
1.57650,43.68001541
1.57700,47.3423483
1.57750,50.69948679
1.57800,51.0046812
1.57850,48.86832034
1.57900,45.20598745
1.57950,40.01768252
1.58000,32.38782233
1.58050,25.36835095
1.58100,22.31640687
1.58150,20.18004602
1.58200,10.10863056
1.58250,-9.423811529
1.58300,-29.26144803
1.58350,-37.19650263
1.58400,-33.83936414
1.58450,-28.65105921
1.58500,-26.81989277
1.58550,-24.68353191
1.58600,-21.32639343
1.58650,-20.71600461
1.58700,-25.29392073
1.58750,-30.78742007
1.58800,-32.61858651
1.58850,-32.61858651
1.58900,-32.61858651
1.58950,-29.87183684
1.59000,-19.80042139
1.59050,-6.066673044
1.59100,2.783964779
1.59150,3.394353595
1.59200,0.6476039256
1.59250,-0.2679792975
1.59300,0.03721511018
1.59350,-1.488756928
1.59400,-5.456284228
1.59450,-7.89783949
1.59500,-5.761478636
1.59550,-2.404340151
1.59600,-3.319923375
1.59650,-10.03420034
1.59700,-16.74847731
1.59750,-16.1380885
1.59800,-8.203033898
1.59850,0.9527983333
1.59900,4.615131226
1.59950,4.00474241
1.60000,5.835908857
1.60050,14.99174109
1.60100,29.03068384
1.60150,41.23846015
1.60200,46.42676508
1.60250,46.12157067
1.60300,47.0371539
1.60350,52.83584764
1.60400,61.99167987
1.60450,70.23192888
1.60500,75.42023381
1.60550,78.47217789
1.60600,79.69295552
1.60650,76.03062263
1.60700,64.73842954
1.60750,47.0371539
1.60800,28.72548943
1.60850,15.90732431
1.60900,8.277464118
1.60950,-0.2679792975
1.61000,-15.22250527
1.61050,-33.83936414
1.61100,-48.79389012
1.61150,-56.72894472
1.61200,-61.00166643
1.61250,-64.35880491
1.61300,-66.80036018
1.61350,-66.80036018
1.61400,-63.7484161
1.61450,-57.03413913
1.61500,-46.04714045
1.61550,-35.975725
1.61600,-34.14455855
1.61650,-41.16402993
1.61700,-49.09908453
1.61750,-49.09908453
1.61800,-40.55364111
1.61850,-30.78742007
1.61900,-23.76794869
1.61950,-19.49522698
1.62000,-13.69653324
1.62050,-3.625117782
1.62100,8.887852934
1.62150,16.51771313
1.62200,11.93979701
1.62250,-0.8783681129
1.62300,-12.78095001
1.62350,-18.88483817
1.62400,-23.76794869
1.62450,-29.87183684
1.62500,-33.83936414
1.62550,-34.75494737
1.62600,-37.50169704
1.62650,-44.21597401
1.62700,-49.40427894
1.62750,-47.57311249
1.62800,-42.69000197
1.62850,-39.9432523
1.62900,-38.72247467
1.62950,-34.14455855
1.63000,-27.73547599
1.63050,-22.85236547
1.63100,-20.1056158
1.63150,-15.83289409
1.63200,-9.729005936
1.63250,-3.93031219
1.63300,0.3424095179
1.63350,6.141103264
1.63400,15.2969355
1.63450,25.97873976
1.63500,36.35534963
1.63550,44.59559863
1.63600,49.78390357
1.63650,50.39429238
1.63700,47.0371539
1.63750,41.54365456
1.63800,37.88132167
1.63850,37.88132167
1.63900,41.54365456
1.63950,44.90079304
1.64000,44.59559863
1.64050,40.01768252
1.64100,34.21898877
1.64150,30.86185029
1.64200,31.1670447
1.64250,33.30340555
1.64300,34.21898877
1.64350,31.4722391
1.64400,23.2319901
1.64450,10.71901938
1.64500,-2.404340151
1.64550,-13.08614442
1.64600,-21.63158784
1.64650,-29.56664244
1.64700,-36.89130822
1.64750,-39.9432523
1.64800,-36.89130822
1.64850,-28.95625362
1.64900,-20.1056158
1.64950,-12.47575561
1.65000,-5.151089821
1.65050,3.699548003
1.65100,16.21251872
1.65150,29.94626706
1.65200,41.54365456
1.65250,48.25793153
1.65300,51.61507001
1.65350,55.58259731
1.65400,61.07609665
1.65450,64.43323514
1.65500,62.29687428
1.65550,56.80337494
1.65600,53.75143087
1.65650,54.66701409
1.65700,57.10856935
1.65750,58.32934698
1.65800,57.71895817
1.65850,55.58259731
1.65900,48.56312593
1.65950,34.82937759
1.66000,17.43329635
1.66050,1.868381556
1.66100,-9.423811529
1.66150,-17.96925494
1.66200,-22.85236547
1.66250,-24.98872632
1.66300,-26.51469836
1.66350,-30.78742007
1.66400,-35.67053059
1.66450,-38.11208585
1.66500,-38.11208585
1.66550,-38.72247467
1.66600,-39.33286348
1.66650,-34.75494737
1.66700,-24.68353191
1.66750,-14.91731087
1.66800,-7.89783949
1.66850,-1.488756928
1.66900,5.530714449
1.66950,9.193047341
1.67000,7.97226971
1.67050,7.667075303
1.67100,11.6346026
1.67150,13.46576905
1.67200,5.530714449
1.67250,-6.371867452
1.67300,-11.86536679
1.67350,-10.94978357
1.67400,-12.78095001
1.67450,-18.88483817
1.67500,-20.1056158
1.67550,-14.30692205
1.67600,-12.47575561
1.67650,-21.02119902
1.67700,-31.70300329
1.67750,-33.22897533
1.67800,-28.34586481
1.67850,-25.59911514
1.67900,-24.68353191
1.67950,-19.49522698
1.68000,-9.423811529
1.68050,-0.5731737052
1.68100,2.783964779
1.68150,4.615131226
1.68200,6.75149208
1.68250,7.97226971
1.68300,6.75149208
1.68350,5.225520041
1.68400,3.394353595
1.68450,1.257992741
1.68500,-1.183562521
1.68550,-3.319923375
1.68600,-3.625117782
1.68650,-1.488756928
1.68700,0.9527983333
1.68750,0.03721511018
1.68800,-8.508228305
1.68850,-21.63158784
1.68900,-29.87183684
1.68950,-29.87183684
1.69000,-27.12508718
1.69050,-28.0406704
1.69100,-30.78742007
1.69150,-32.31339211
1.69200,-34.75494737
1.69250,-40.24844671
1.69300,-43.60558519
1.69350,-39.02766908
1.69400,-31.09261448
1.69450,-28.65105921
1.69500,-30.17703125
1.69550,-26.81989277
1.69600,-16.44328291
1.69650,-6.066673044
1.69700,1.257992741
1.69750,9.193047341
1.69800,18.04368516
1.69850,22.92679569
1.69900,22.62160128
1.69950,22.92679569
1.70000,26.28393417
1.70050,26.89432299
1.70100,21.09562924
1.70150,14.99174109
1.70200,13.16057464
1.70250,13.46576905
1.70300,12.24499142
1.70350,12.85538023
1.70400,17.43329635
1.70450,21.70601806
1.70500,21.40082365
1.70550,19.2644628
1.70600,20.18004602
1.70650,22.92679569
1.70700,23.84237891
1.70750,22.31640687
1.70800,22.01121246
1.70850,22.62160128
1.70900,23.5371845
1.70950,25.97873976
1.71000,27.80990621
1.71050,24.14757332
1.71100,14.07615786
1.71150,7.056686487
1.71200,10.10863056
1.71250,18.34887957
1.71300,22.62160128
1.71350,22.92679569
1.71400,25.36835095
1.71450,29.33587825
1.71500,27.1995174
1.71550,16.82290753
1.71600,4.309936818
1.71650,-4.540701005
1.71700,-9.729005936
1.71750,-10.03420034
1.71800,-3.014728967
1.71850,7.667075303
1.71900,14.07615786
1.71950,12.55018583
1.72000,7.97226971
1.72050,6.75149208
1.72100,7.97226971
1.72150,8.582658526
1.72200,9.193047341
1.72250,11.6346026
1.72300,13.77096346
1.72350,13.16057464
1.72400,10.10863056
1.72450,7.97226971
1.72500,5.835908857
1.72550,0.03721511018
1.72600,-7.592645082
1.72650,-10.03420034
1.72700,-2.404340151
1.72750,7.97226971
1.72800,10.71901938
1.72850,3.699548003
1.72900,-3.319923375
1.72950,-4.235506598
1.73000,-2.709534559
1.73050,-6.371867452
1.73100,-14.91731087
1.73150,-21.93678224
1.73200,-23.76794869
1.73250,-21.32639343
1.73300,-15.22250527
1.73350,-6.371867452
1.73400,1.563187149
1.73450,5.835908857
1.73500,8.887852934
1.73550,14.99174109
1.73600,21.40082365
1.73650,20.79043483
1.73700,12.55018583
1.73750,4.615131226
1.73800,1.868381556
1.73850,0.3424095179
1.73900,-5.151089821
1.73950,-13.39133883
1.74000,-19.80042139
1.74050,-25.29392073
1.74100,-33.83936414
1.74150,-44.82636282
1.74200,-53.37180624
1.74250,-56.42375031
1.74300,-55.50816709
1.74350,-53.67700065
1.74400,-52.76141742
1.74450,-53.06661183
1.74500,-53.67700065
1.74550,-52.45622301
1.74600,-48.48869571
1.74650,-43.60558519
1.74700,-38.72247467
1.74750,-34.44975296
1.74800,-30.17703125
1.74850,-28.34586481
1.74900,-28.95625362
1.74950,-28.0406704
1.75000,-21.02119902
1.75050,-8.813422713
1.75100,2.783964779
1.75150,9.803436157
1.75200,14.38135227
1.75250,19.2644628
1.75300,24.45276773
1.75350,27.80990621
1.75400,29.94626706
1.75450,33.30340555
1.75500,37.27093285
1.75550,39.1020993
1.75600,39.1020993
1.75650,40.62807133
1.75700,43.374821
1.75750,43.374821
1.75800,39.1020993
1.75850,34.52418318
1.75900,33.91379437
1.75950,34.21898877
1.76000,31.77743351
1.76050,26.58912858
1.76100,22.62160128
1.76150,21.09562924
1.76200,20.79043483
1.76250,21.40082365
1.76300,22.01121246
1.76350,20.18004602
1.76400,14.07615786
1.76450,6.141103264
1.76500,0.03721511018
1.76550,-3.625117782
1.76600,-8.203033898
1.76650,-13.69653324
1.76700,-19.19003258
1.76750,-25.29392073
1.76800,-32.61858651
1.76850,-39.02766908
1.76900,-42.99519638
1.76950,-45.43675164
1.77000,-49.40427894
1.77050,-52.76141742
1.77100,-51.23544538
1.77150,-44.52116841
1.77200,-37.50169704
1.77250,-33.53416974
1.77300,-29.87183684
1.77350,-22.54717106
1.77400,-12.47575561
1.77450,-2.709534559
1.77500,4.920325633
1.77550,10.41382497
1.77600,15.2969355
1.77650,22.92679569
1.77700,33.91379437
1.77750,44.90079304
1.77800,51.0046812
1.77850,51.61507001
1.77900,51.3098756
1.77950,53.14104205
1.78000,54.9722085
1.78050,55.88779172
1.78100,55.88779172
1.78150,55.58259731
1.78200,52.83584764
1.78250,46.12157067
1.78300,38.18651607
1.78350,31.1670447
1.78400,25.06315654
1.78450,20.18004602
1.78500,16.51771313
1.78550,13.46576905
1.78600,8.277464118
1.78650,-0.5731737052
1.78700,-12.47575561
1.78750,-23.76794869
1.78800,-32.92378092
1.78850,-38.72247467
1.78900,-40.85883552
1.78950,-42.07961315
1.79000,-45.13155723
1.79050,-48.79389012
1.79100,-48.48869571
1.79150,-44.52116841
1.79200,-40.55364111
1.79250,-39.9432523
1.79300,-38.72247467
1.79350,-32.31339211
1.79400,-21.93678224
1.79450,-11.86536679
1.79500,-4.540701005
1.79550,-0.5731737052
1.79600,0.9527983333
1.79650,2.478770372
1.79700,5.225520041
1.79750,7.97226971
1.79800,8.887852934
1.79850,9.498241749
1.79900,14.99174109
1.79950,25.36835095
1.80000,32.69301673
1.80050,30.25146147
1.80100,19.87485161
1.80150,9.193047341
1.80200,1.563187149
1.80250,-5.151089821
1.80300,-14.00172764
1.80350,-23.46275428
1.80400,-31.09261448
1.80450,-35.06014178
1.80500,-35.06014178
1.80550,-32.92378092
1.80600,-30.48222566
1.80650,-29.26144803
1.80700,-27.43028158
1.80750,-23.76794869
1.80800,-18.57964376
1.80850,-13.69653324
1.80900,-10.03420034
1.80950,-6.982256267
1.81000,-3.319923375
1.81050,1.868381556
1.81100,9.498241749
1.81150,16.51771313
1.81200,21.09562924
1.81250,23.5371845
1.81300,24.75796213
1.81350,23.2319901
1.81400,18.65407398
1.81450,14.68654668
1.81500,16.21251872
1.81550,22.01121246
1.81600,25.06315654
1.81650,22.62160128
1.81700,19.2644628
1.81750,18.34887957
1.81800,16.51771313
1.81850,8.582658526
1.81900,-3.625117782
1.81950,-14.61211646
1.82000,-21.63158784
1.82050,-25.29392073
1.82100,-24.68353191
1.82150,-19.80042139
1.82200,-15.83289409
1.82250,-17.96925494
1.82300,-22.54717106
1.82350,-20.41081021
1.82400,-8.508228305
1.82450,2.783964779
1.82500,7.97226971
1.82550,10.41382497
1.82600,17.12810194
1.82650,27.1995174
1.82700,36.66054403
1.82750,46.12157067
1.82800,56.49818053
1.82850,59.85531902
1.82900,46.73195949
1.82950,19.2644628
1.83000,-8.203033898
1.83050,-28.0406704
1.83100,-41.46922434
1.83150,-52.76141742
1.83200,-59.47569439
1.83250,-61.91724965
1.83300,-64.35880491
1.83350,-69.24191544
1.83400,-71.6834707
1.83450,-69.24191544
1.83500,-66.18997136
1.83550,-63.13802728
1.83600,-53.37180624
1.83650,-32.61858651
1.83700,-8.508228305
1.83750,6.75149208
1.83800,11.93979701
1.83850,15.6021299
1.83900,23.84237891
1.83950,33.91379437
1.84000,42.45923778
1.84050,50.08909797
1.84100,56.80337494
1.84150,58.9397358
1.84200,54.05662527
1.84250,47.0371539
1.84300,46.12157067
1.84350,51.61507001
1.84400,54.05662527
1.84450,44.90079304
1.84500,24.45276773
1.84550,4.615131226
1.84600,-4.235506598
1.84650,-4.235506598
1.84700,-4.235506598
1.84750,-9.118617121
1.84800,-13.08614442
1.84850,-11.25497797
1.84900,-6.371867452
1.84950,-4.540701005
1.85000,-8.508228305
1.85050,-16.1380885
1.85100,-26.51469836
1.85150,-37.80689144
1.85200,-46.04714045
1.85250,-48.79389012
1.85300,-49.40427894
1.85350,-51.23544538
1.85400,-47.8783069
1.85450,-32.0081977
1.85500,-7.89783949
1.85550,8.277464118
1.85600,11.6346026
1.85650,11.3294082
1.85700,14.68654668
1.85750,18.95926839
1.85800,17.12810194
1.85850,12.55018583
1.85900,11.93979701
1.85950,14.38135227
1.86000,14.07615786
1.86050,9.498241749
1.86100,4.00474241
1.86150,0.03721511018
1.86200,-3.014728967
1.86250,-6.982256267
1.86300,-12.78095001
1.86350,-21.02119902
1.86400,-28.0406704
1.86450,-30.48222566
1.86500,-28.65105921
1.86550,-26.51469836
1.86600,-24.98872632
1.86650,-20.41081021
1.86700,-14.00172764
1.86750,-11.25497797
1.86800,-11.56017238
1.86850,-7.592645082
1.86900,2.173575964
1.86950,10.10863056
1.87000,11.6346026
1.87050,13.46576905
1.87100,21.70601806
1.87150,32.38782233
1.87200,37.57612726
1.87250,38.18651607
1.87300,38.79690489
1.87350,40.62807133
1.87400,42.45923778
1.87450,47.3423483
1.87500,56.49818053
1.87550,65.04362395
1.87600,69.62154007
1.87650,72.97867855
1.87700,74.19945618
1.87750,66.56959599
1.87800,49.47870916
1.87850,35.134572
1.87900,30.86185029
1.87950,28.72548943
1.88000,16.51771313
1.88050,-1.183562521
1.88100,-13.08614442
1.88150,-19.80042139
1.88200,-30.17703125
1.88250,-44.21597401
1.88300,-52.76141742
1.88350,-54.28738946
1.88400,-54.89777828
1.88450,-54.59258387
1.88500,-50.01466775
1.88550,-44.82636282
1.88600,-49.40427894
1.88650,-62.52763847
1.88700,-72.90424833
1.88750,-75.34580359
1.88800,-74.43022037
1.88850,-71.37827629
1.88900,-57.94972235
1.88950,-33.83936414
1.89000,-12.78095001
1.89050,-7.287450675
1.89100,-12.47575561
1.89150,-16.74847731
1.89200,-17.66406054
1.89250,-18.57964376
1.89300,-19.49522698
1.89350,-17.05367172
1.89400,-12.78095001
1.89450,-9.729005936
1.89500,-7.592645082
1.89550,-4.540701005
1.89600,-2.709534559
1.89650,-2.099145744
1.89700,0.9527983333
1.89750,11.3294082
1.89800,22.92679569
1.89850,27.80990621
1.89900,25.97873976
1.89950,25.97873976
1.90000,31.4722391
1.90050,39.4072937
1.90100,45.51118186
1.90150,49.17351475
1.90200,52.22545883
1.90250,53.44623646
1.90300,53.75143087
1.90350,54.05662527
1.90400,55.2774029
1.90450,56.49818053
1.90500,57.71895817
1.90550,60.77090224
1.90600,63.51765191
1.90650,61.07609665
1.90700,50.69948679
1.90750,37.27093285
1.90800,26.28393417
1.90850,19.87485161
1.90900,15.2969355
1.90950,10.41382497
1.91000,4.615131226
1.91050,-3.625117782
1.91100,-16.44328291
1.91150,-29.56664244
1.91200,-36.89130822
1.91250,-35.975725
1.91300,-32.0081977
1.91350,-32.0081977
1.91400,-37.19650263
1.91450,-43.30039078
1.91500,-46.96272368
1.91550,-49.09908453
1.91600,-50.93025098
1.91650,-53.06661183
1.91700,-53.98219505
1.91750,-53.98219505
1.91800,-52.76141742
1.91850,-49.09908453
1.91900,-42.38480756
1.91950,-35.06014178
1.92000,-29.56664244
1.92050,-26.20950395
1.92100,-23.46275428
1.92150,-20.1056158
1.92200,-17.05367172
1.92250,-14.00172764
1.92300,-8.813422713
1.92350,-2.404340151
1.92400,2.478770372
1.92450,4.920325633
1.92500,4.920325633
1.92550,4.309936818
1.92600,5.225520041
1.92650,7.97226971
1.92700,11.3294082
1.92750,13.46576905
1.92800,13.16057464
1.92850,12.85538023
1.92900,17.43329635
1.92950,26.28393417
1.93000,33.30340555
1.93050,33.30340555
1.93100,27.5047118
1.93150,21.40082365
1.93200,17.73849076
1.93250,13.77096346
1.93300,7.667075303
1.93350,1.868381556
1.93400,0.9527983333
1.93450,5.835908857
1.93500,12.55018583
1.93550,17.73849076
1.93600,21.09562924
1.93650,23.5371845
1.93700,26.28393417
1.93750,29.03068384
1.93800,30.86185029
1.93850,30.86185029
1.93900,29.64107266
1.93950,29.33587825
1.94000,30.25146147
1.94050,31.4722391
1.94100,32.08262792
1.94150,31.4722391
1.94200,30.25146147
1.94250,29.33587825
1.94300,29.03068384
1.94350,28.42029503
1.94400,25.06315654
1.94450,17.43329635
1.94500,9.193047341
1.94550,7.056686487
1.94600,11.6346026
1.94650,15.90732431
1.94700,14.07615786
1.94750,12.24499142
1.94800,21.09562924
1.94850,40.32287693
1.94900,58.63454139
1.94950,66.56959599
1.95000,67.1799848
1.95050,65.95920717
1.95100,63.2124575
1.95150,57.10856935
1.95200,48.25793153
1.95250,37.57612726
1.95300,22.31640687
1.95350,1.563187149
1.95400,-20.41081021
1.95450,-37.80689144
1.95500,-52.15102861
1.95550,-69.85230425
1.95600,-93.04707924
1.95650,-113.800299
1.95700,-123.8717144
1.95750,-121.4301592
1.95800,-114.1054934
1.95850,-110.1379661
1.95900,-109.8327717
1.95950,-106.4756332
1.96000,-95.4886345
1.96050,-79.6185253
1.96100,-66.18997136
1.96150,-57.94972235
1.96200,-51.54063979
1.96250,-43.9107796
1.96300,-35.06014178
1.96350,-27.43028158
1.96400,-19.80042139
1.96450,-10.64458916
1.96500,-1.793951336
1.96550,1.257992741
1.96600,-1.793951336
1.96650,-7.287450675
1.96700,-9.729005936
1.96750,-9.118617121
1.96800,-9.423811529
1.96850,-13.39133883
1.96900,-19.19003258
1.96950,-22.24197665
1.97000,-19.19003258
1.97050,-11.56017238
1.97100,-4.540701005
1.97150,-0.8783681129
1.97200,0.6476039256
1.97250,6.75149208
1.97300,21.70601806
1.97350,44.29040423
1.97400,67.79037362
1.97450,87.93320453
1.97500,102.5825361
1.97550,111.1279795
1.97600,112.6539516
1.97650,108.3812298
1.97700,103.4981193
1.97750,102.2773417
1.97800,104.718897
1.97850,106.8552578
1.97900,105.6344802
1.97950,100.1409808
1.98000,88.54359334
1.98050,71.1475121
1.98100,51.92026442
1.98150,37.57612726
1.98200,28.11510062
1.98250,16.82290753
1.98300,-2.099145744
1.98350,-26.20950395
1.98400,-48.48869571
1.98450,-67.41074899
1.98500,-85.11202464
1.98550,-101.8977171
1.98600,-113.4951046
1.98650,-117.7678263
1.98700,-115.6314654
1.98750,-109.5275773
1.98800,-101.8977171
1.98850,-94.26785687
1.98900,-86.63799668
1.98950,-77.78735885
1.99000,-67.7159434
1.99050,-58.56011117
1.99100,-52.15102861
1.99150,-47.57311249
1.99200,-42.99519638
1.99250,-37.19650263
1.99300,-30.17703125
1.99350,-21.32639343
1.99400,-12.47575561
1.99450,-5.151089821
1.99500,-0.8783681129
1.99550,1.868381556
1.99600,4.615131226
1.99650,4.00474241
1.99700,-0.8783681129
1.99750,-6.066673044
1.99800,-4.235506598
1.99850,5.225520041
1.99900,18.34887957
1.99950,27.80990621
2.00000,29.94626706
2.00050,25.36835095
2.00100,18.34887957
2.00150,14.07615786
2.00200,13.46576905
2.00250,11.93979701
2.00300,6.141103264
2.00350,-2.709534559
2.00400,-11.25497797
2.00450,-17.96925494
2.00500,-20.41081021
2.00550,-14.91731087
2.00600,-1.793951336
2.00650,11.02421379
2.00700,15.2969355
2.00750,11.93979701
2.00800,9.193047341
2.00850,12.24499142
2.00900,18.65407398
2.00950,25.67354536
2.01000,33.60859996
2.01050,45.51118186
2.01100,60.46570784
2.01150,73.89426177
2.01200,79.0825667
2.01250,72.36828974
2.01300,58.02415257
2.01350,45.81637627
2.01400,42.15404337
2.01450,43.68001541
2.01500,43.0696266
2.01550,36.35534963
2.01600,25.36835095
2.01650,11.02421379
2.01700,-8.508228305
2.01750,-32.0081977
2.01800,-52.15102861
2.01850,-61.00166643
2.01900,-56.42375031
2.01950,-43.9107796
2.02000,-30.78742007
2.02050,-22.54717106
2.02100,-18.57964376
2.02150,-16.74847731
2.02200,-16.74847731
2.02250,-20.71600461
2.02300,-27.73547599
2.02350,-32.92378092
2.02400,-32.92378092
2.02450,-29.87183684
2.02500,-26.81989277
2.02550,-22.85236547
2.02600,-14.61211646
2.02650,-3.319923375
2.02700,5.225520041
2.02750,8.582658526
2.02800,8.582658526
2.02850,9.803436157
2.02900,11.6346026
2.02950,12.85538023
2.03000,13.77096346
2.03050,14.07615786
2.03100,12.55018583
2.03150,8.582658526
2.03200,4.309936818
2.03250,1.257992741
2.03300,-2.099145744
2.03350,-9.729005936
2.03400,-19.80042139
2.03450,-25.90430954
2.03500,-27.73547599
2.03550,-28.95625362
2.03600,-33.53416974
2.03650,-39.9432523
2.03700,-44.82636282
2.03750,-46.35233486
2.03800,-43.9107796
2.03850,-36.89130822
2.03900,-25.90430954
2.03950,-15.83289409
2.04000,-9.729005936
2.04050,-6.982256267
2.04100,-4.540701005
2.04150,-0.8783681129
2.04200,3.394353595
2.04250,9.193047341
2.04300,16.82290753
2.04350,23.5371845
2.04400,27.1995174
2.04450,27.80990621
2.04500,28.72548943
2.04550,32.08262792
2.04600,36.66054403
2.04650,41.54365456
2.04700,47.0371539
2.04750,53.75143087
2.04800,59.55012461
2.04850,62.29687428
2.04900,61.07609665
2.04950,58.02415257
2.05000,54.9722085
2.05050,52.22545883
2.05100,47.95273712
2.05150,40.62807133
2.05200,31.1670447
2.05250,20.48524043
2.05300,9.498241749
2.05350,-2.404340151
2.05400,-14.91731087
2.05450,-25.59911514
2.05500,-33.83936414
2.05550,-42.99519638
2.05600,-53.37180624
2.05650,-59.7808888
2.05700,-56.42375031
2.05750,-45.74194605
2.05800,-36.28091941
2.05850,-32.31339211
2.05900,-29.56664244
2.05950,-24.0731431
2.06000,-18.88483817
2.06050,-17.05367172
2.06100,-14.61211646
2.06150,-6.982256267
2.06200,3.394353595
2.06250,10.71901938
2.06300,13.77096346
2.06350,18.34887957
2.06400,25.67354536
2.06450,31.1670447
2.06500,30.86185029
2.06550,27.80990621
2.06600,25.97873976
2.06650,26.28393417
2.06700,24.75796213
2.06750,21.09562924
2.06800,16.51771313
2.06850,13.46576905
2.06900,11.02421379
2.06950,6.446297672
2.07000,-0.8783681129
2.07050,-9.118617121
2.07100,-13.39133883
2.07150,-11.56017238
2.07200,-6.371867452
2.07250,-0.5731737052
2.07300,2.783964779
2.07350,2.478770372
2.07400,-4.540701005
2.07450,-17.66406054
2.07500,-29.87183684
2.07550,-32.61858651
2.07600,-23.15755988
2.07650,-6.371867452
2.07700,10.71901938
2.07750,24.75796213
2.07800,34.82937759
2.07850,43.374821
2.07900,54.05662527
2.07950,66.26440158
2.08000,77.25140026
2.08050,83.35528841
2.08100,84.88126045
2.08150,83.96567723
2.08200,81.82931637
2.08250,75.72542822
2.08300,63.2124575
2.08350,43.98520982
2.08400,22.31640687
2.08450,6.446297672
2.08500,1.257992741
2.08550,3.699548003
2.08600,3.394353595
2.08650,-7.287450675
2.08700,-27.12508718
2.08750,-47.26791808
2.08800,-61.91724965
2.08850,-69.24191544
2.08900,-67.7159434
2.08950,-56.11855591
2.09000,-38.72247467
2.09050,-23.76794869
2.09100,-19.80042139
2.09150,-26.51469836
2.09200,-34.75494737
2.09250,-34.14455855
2.09300,-25.90430954
2.09350,-20.41081021
2.09400,-23.46275428
2.09450,-31.39780888
2.09500,-36.28091941
2.09550,-38.11208585
2.09600,-42.38480756
2.09650,-49.09908453
2.09700,-53.98219505
2.09750,-57.03413913
2.09800,-61.91724965
2.09850,-67.10555458
2.09900,-64.66399932
2.09950,-54.59258387
2.10000,-44.82636282
2.10050,-40.24844671
2.10100,-34.75494737
2.10150,-23.15755988
2.10200,-8.203033898
2.10250,4.615131226
2.10300,14.68654668
2.10350,23.5371845
2.10400,29.03068384
2.10450,29.94626706
2.10500,28.72548943
2.10550,29.33587825
2.10600,30.25146147
2.10650,27.5047118
2.10700,20.48524043
2.10750,12.24499142
2.10800,5.225520041
2.10850,1.563187149
2.10900,1.868381556
2.10950,2.783964779
2.11000,-0.2679792975
2.11050,-8.508228305
2.11100,-17.05367172
2.11150,-21.02119902
2.11200,-22.54717106
2.11250,-26.81989277
2.11300,-33.53416974
2.11350,-37.19650263
2.11400,-35.975725
2.11450,-33.53416974
2.11500,-32.31339211
2.11550,-29.56664244
2.11600,-22.85236547
2.11650,-14.00172764
2.11700,-6.982256267
2.11750,-2.099145744
2.11800,2.478770372
2.11850,7.361880895
2.11900,11.02421379
2.11950,14.38135227
2.12000,18.65407398
2.12050,22.31640687
2.12100,22.62160128
2.12150,19.5696572
2.12200,17.43329635
2.12250,19.2644628
2.12300,22.31640687
2.12350,24.14757332
2.12400,25.67354536
2.12450,26.89432299
2.12500,25.67354536
2.12550,20.48524043
2.12600,14.07615786
2.12650,10.71901938
2.12700,12.55018583
2.12750,17.73849076
2.12800,24.45276773
2.12850,29.64107266
2.12900,30.25146147
2.12950,25.06315654
2.13000,18.04368516
2.13050,12.85538023
2.13100,8.887852934
2.13150,2.478770372
2.13200,-5.761478636
2.13250,-12.47575561
2.13300,-16.1380885
2.13350,-18.88483817
2.13400,-22.24197665
2.13450,-25.90430954
2.13500,-30.17703125
2.13550,-35.67053059
2.13600,-38.11208585
2.13650,-31.70300329
2.13700,-14.61211646
2.13750,6.141103264
2.13800,22.62160128
2.13850,31.4722391
2.13900,34.82937759
2.13950,35.134572
2.14000,33.60859996
2.14050,31.4722391
2.14100,29.94626706
2.14150,29.94626706
2.14200,29.94626706
2.14250,29.64107266
2.14300,29.94626706
2.14350,31.4722391
2.14400,32.99821114
2.14450,32.38782233
2.14500,29.64107266
2.14550,26.58912858
2.14600,23.84237891
2.14650,18.04368516
2.14700,8.277464118
2.14750,-1.488756928
2.14800,-5.456284228
2.14850,-3.93031219
2.14900,-3.93031219
2.14950,-10.64458916
2.15000,-21.02119902
2.15050,-29.87183684
2.15100,-34.44975296
2.15150,-34.44975296
2.15200,-30.17703125
2.15250,-23.15755988
2.15300,-16.74847731
2.15350,-12.78095001
2.15400,-10.33939475
2.15450,-9.423811529
2.15500,-11.86536679
2.15550,-15.83289409
2.15600,-15.22250527
2.15650,-6.982256267
2.15700,5.225520041
2.15750,15.2969355
2.15800,21.09562924
2.15850,23.84237891
2.15900,25.06315654
2.15950,24.45276773
2.16000,24.14757332
2.16050,25.97873976
2.16100,29.03068384
2.16150,32.08262792
2.16200,36.35534963
2.16250,42.45923778
2.16300,47.3423483
2.16350,47.0371539
2.16400,43.374821
2.16450,40.62807133
2.16500,39.4072937
2.16550,38.49171048
2.16600,37.57612726
2.16650,37.27093285
2.16700,35.4397664
2.16750,29.33587825
2.16800,18.95926839
2.16850,8.887852934
2.16900,2.173575964
2.16950,-0.2679792975
2.17000,-0.8783681129
2.17050,0.3424095179
2.17100,3.089159187
2.17150,4.309936818
2.17200,1.868381556
2.17250,-4.235506598
2.17300,-10.33939475
2.17350,-12.1705612
2.17400,-9.729005936
2.17450,-7.89783949
2.17500,-11.86536679
2.17550,-20.71600461
2.17600,-29.26144803
2.17650,-34.14455855
2.17700,-36.58611381
2.17750,-39.02766908
2.17800,-40.85883552
2.17850,-39.9432523
2.17900,-38.72247467
2.17950,-39.9432523
2.18000,-43.30039078
2.18050,-44.82636282
2.18100,-40.55364111
2.18150,-32.92378092
2.18200,-27.12508718
2.18250,-24.98872632
2.18300,-21.63158784
2.18350,-10.94978357
2.18400,3.699548003
2.18450,12.24499142
2.18500,9.498241749
2.18550,1.868381556
2.18600,-1.793951336
2.18650,-2.404340151
2.18700,-6.066673044
2.18750,-11.25497797
2.18800,-11.56017238
2.18850,-7.287450675
2.18900,-5.456284228
2.18950,-8.508228305
2.19000,-9.423811529
2.19050,-1.793951336
2.19100,7.361880895
2.19150,7.97226971
2.19200,-0.5731737052
2.19250,-9.729005936
2.19300,-11.25497797
2.19350,-6.066673044
2.19400,-0.2679792975
2.19450,1.563187149
2.19500,-2.404340151
2.19550,-7.89783949
2.19600,-9.729005936
2.19650,-7.287450675
2.19700,-6.066673044
2.19750,-9.423811529
2.19800,-13.08614442
2.19850,-13.08614442
2.19900,-11.56017238
2.19950,-11.56017238
2.20000,-10.94978357
2.20050,-5.761478636
2.20100,0.03721511018
2.20150,-0.5731737052
2.20200,-7.89783949
2.20250,-14.00172764
2.20300,-14.61211646
2.20350,-11.56017238
2.20400,-7.592645082
2.20450,-0.8783681129
2.20500,7.056686487
2.20550,11.93979701
2.20600,11.02421379
2.20650,6.446297672
2.20700,1.868381556
2.20750,0.03721511018
2.20800,3.394353595
2.20850,12.85538023
2.20900,22.01121246
2.20950,22.62160128
2.21000,13.46576905
2.21050,3.699548003
2.21100,-0.2679792975
2.21150,-1.488756928
2.21200,-3.93031219
2.21250,-8.508228305
2.21300,-11.25497797
2.21350,-11.86536679
2.21400,-12.1705612
2.21450,-12.78095001
2.21500,-14.30692205
2.21550,-18.57964376
2.21600,-25.29392073
2.21650,-30.17703125
2.21700,-26.81989277
2.21750,-16.44328291
2.21800,-7.592645082
2.21850,-6.677061859
2.21900,-12.78095001
2.21950,-17.35886613
2.22000,-16.1380885
2.22050,-10.64458916
2.22100,-5.761478636
2.22150,-3.93031219
2.22200,-3.014728967
2.22250,-1.183562521
2.22300,0.9527983333
2.22350,3.394353595
2.22400,4.309936818
2.22450,4.309936818
2.22500,4.309936818
2.22550,6.141103264
2.22600,9.498241749
2.22650,13.16057464
2.22700,14.07615786
2.22750,11.6346026
2.22800,5.835908857
2.22850,0.03721511018
2.22900,-1.793951336
2.22950,-0.8783681129
2.23000,0.03721511018
2.23050,-0.8783681129
2.23100,-3.625117782
2.23150,-5.761478636
2.23200,-6.677061859
2.23250,-6.677061859
2.23300,-4.845895413
2.23350,-0.5731737052
2.23400,3.089159187
2.23450,3.394353595
2.23500,0.6476039256
2.23550,-0.5731737052
2.23600,0.9527983333
2.23650,6.75149208
2.23700,14.99174109
2.23750,24.14757332
2.23800,30.86185029
2.23850,35.4397664
2.23900,40.93326574
2.23950,46.73195949
2.24000,49.47870916
2.24050,48.56312593
2.24100,47.64754271
2.24150,51.0046812
2.24200,54.05662527
2.24250,52.83584764
2.24300,46.73195949
2.24350,38.79690489
2.24400,28.11510062
2.24450,15.6021299
2.24500,4.920325633
2.24550,-0.5731737052
2.24600,-6.677061859
2.24650,-18.27444935
2.24700,-32.31339211
2.24750,-40.55364111
2.24800,-42.38480756
2.24850,-43.60558519
2.24900,-46.04714045
2.24950,-46.65752927
2.25000,-45.74194605
2.25050,-46.65752927
2.25100,-48.48869571
2.25150,-47.8783069
2.25200,-44.52116841
2.25250,-41.77441874
2.25300,-41.46922434
2.25350,-40.55364111
2.25400,-38.41728026
2.25450,-37.80689144
2.25500,-39.02766908
2.25550,-37.19650263
2.25600,-29.26144803
2.25650,-18.27444935
2.25700,-9.423811529
2.25750,-3.014728967
2.25800,3.089159187
2.25850,10.10863056
2.25900,16.51771313
2.25950,19.5696572
2.26000,18.34887957
2.26050,14.99174109
2.26100,13.46576905
2.26150,15.6021299
2.26200,19.5696572
2.26250,22.62160128
2.26300,23.84237891
2.26350,24.14757332
2.26400,20.79043483
2.26450,12.85538023
2.26500,4.00474241
2.26550,-0.2679792975
2.26600,-0.5731737052
2.26650,-3.625117782
2.26700,-12.78095001
2.26750,-22.24197665
2.26800,-26.51469836
2.26850,-24.0731431
2.26900,-18.88483817
2.26950,-13.08614442
2.27000,-9.423811529
2.27050,-11.56017238
2.27100,-17.96925494
2.27150,-19.49522698
2.27200,-8.203033898
2.27250,9.803436157
2.27300,21.09562924
2.27350,19.5696572
2.27400,13.46576905
2.27450,13.46576905
2.27500,19.87485161
2.27550,25.36835095
2.27600,26.28393417
2.27650,24.75796213
2.27700,21.09562924
2.27750,14.38135227
2.27800,5.225520041
2.27850,-4.235506598
2.27900,-14.00172764
2.27950,-22.85236547
2.28000,-28.0406704
2.28050,-28.95625362
2.28100,-27.73547599
2.28150,-27.43028158
2.28200,-24.98872632
2.28250,-19.19003258
2.28300,-14.91731087
2.28350,-17.66406054
2.28400,-23.76794869
2.28450,-23.76794869
2.28500,-16.44328291
2.28550,-11.86536679
2.28600,-15.83289409
2.28650,-21.93678224
2.28700,-22.85236547
2.28750,-19.80042139
2.28800,-17.35886613
2.28850,-14.30692205
2.28900,-4.235506598
2.28950,11.02421379
2.29000,22.01121246
2.29050,21.09562924
2.29100,11.93979701
2.29150,2.173575964
2.29200,-1.793951336
2.29250,-0.2679792975
2.29300,6.446297672
2.29350,17.12810194
2.29400,28.72548943
2.29450,37.88132167
2.29500,44.29040423
2.29550,49.17351475
2.29600,53.75143087
2.29650,54.05662527
2.29700,48.86832034
2.29750,41.23846015
2.29800,36.96573844
2.29850,36.96573844
2.29900,33.30340555
2.29950,20.79043483
2.30000,2.783964779
2.30050,-11.56017238
2.30100,-17.96925494
2.30150,-17.66406054
2.30200,-15.52769968
2.30250,-15.52769968
2.30300,-18.88483817
2.30350,-23.76794869
2.30400,-27.12508718
2.30450,-28.34586481
2.30500,-27.43028158
2.30550,-24.68353191
2.30600,-17.35886613
2.30650,-6.066673044
2.30700,3.699548003
2.30750,6.446297672
2.30800,3.394353595
2.30850,0.03721511018
2.30900,-0.8783681129
2.30950,-0.5731737052
2.31000,0.3424095179
2.31050,2.173575964
2.31100,2.783964779
2.31150,0.9527983333
2.31200,1.563187149
2.31250,11.02421379
2.31300,28.11510062
2.31350,42.45923778
2.31400,46.42676508
2.31450,42.45923778
2.31500,37.88132167
2.31550,34.52418318
2.31600,29.64107266
2.31650,22.62160128
2.31700,16.82290753
2.31750,13.46576905
2.31800,9.803436157
2.31850,4.00474241
2.31900,-0.8783681129
2.31950,-0.2679792975
2.32000,2.478770372
2.32050,-0.8783681129
2.32100,-13.69653324
2.32150,-25.59911514
2.32200,-24.37833751
2.32250,-12.47575561
2.32300,-4.235506598
2.32350,-4.845895413
2.32400,-5.761478636
2.32450,1.868381556
2.32500,12.55018583
2.32550,13.46576905
2.32600,2.478770372
2.32650,-10.03420034
2.32700,-17.66406054
2.32750,-22.85236547
2.32800,-29.87183684
2.32850,-37.19650263
2.32900,-40.85883552
2.32950,-42.38480756
2.33000,-46.96272368
2.33050,-55.8133615
2.33100,-65.27438814
2.33150,-68.32633221
2.33200,-61.61205525
2.33250,-48.48869571
2.33300,-35.67053059
2.33350,-25.59911514
2.33400,-16.74847731
2.33450,-7.592645082
2.33500,-0.2679792975
2.33550,1.563187149
2.33600,0.6476039256
2.33650,-0.8783681129
2.33700,-4.235506598
2.33750,-10.03420034
2.33800,-14.61211646
2.33850,-13.69653324
2.33900,-8.813422713
2.33950,-5.761478636
2.34000,-8.203033898
2.34050,-13.39133883
2.34100,-18.57964376
2.34150,-22.24197665
2.34200,-23.76794869
2.34250,-22.54717106
2.34300,-19.80042139
2.34350,-16.74847731
2.34400,-13.69653324
2.34450,-11.25497797
2.34500,-12.47575561
2.34550,-17.35886613
2.34600,-17.35886613
2.34650,-6.982256267
2.34700,8.582658526
2.34750,17.43329635
2.34800,17.12810194
2.34850,16.51771313
2.34900,21.40082365
2.34950,27.80990621
2.35000,29.94626706
2.35050,29.64107266
2.35100,30.55665588
2.35150,31.4722391
2.35200,28.11510062
2.35250,23.84237891
2.35300,26.28393417
2.35350,35.74496081
2.35400,45.20598745
2.35450,47.95273712
2.35500,44.90079304
2.35550,41.54365456
2.35600,41.54365456
2.35650,43.98520982
2.35700,43.374821
2.35750,36.96573844
2.35800,25.97873976
2.35850,14.99174109
2.35900,6.75149208
2.35950,0.6476039256
2.36000,-2.099145744
2.36050,-0.2679792975
2.36100,5.835908857
2.36150,14.38135227
2.36200,22.62160128
2.36250,29.03068384
2.36300,31.77743351
2.36350,29.64107266
2.36400,23.5371845
2.36450,15.90732431
2.36500,8.277464118
2.36550,0.3424095179
2.36600,-6.982256267
2.36650,-10.64458916
2.36700,-9.729005936
2.36750,-9.423811529
2.36800,-13.69653324
2.36850,-19.80042139
2.36900,-23.46275428
2.36950,-24.0731431
2.37000,-23.15755988
2.37050,-20.41081021
2.37100,-14.91731087
2.37150,-9.729005936
2.37200,-9.118617121
2.37250,-13.39133883
2.37300,-16.1380885
2.37350,-12.1705612
2.37400,-3.014728967
2.37450,5.225520041
2.37500,10.41382497
2.37550,13.46576905
2.37600,16.21251872
2.37650,18.34887957
2.37700,18.65407398
2.37750,17.12810194
2.37800,14.07615786
2.37850,9.193047341
2.37900,3.394353595
2.37950,-0.2679792975
2.38000,-0.2679792975
2.38050,1.868381556
2.38100,2.783964779
2.38150,2.783964779
2.38200,4.615131226
2.38250,10.10863056
2.38300,17.73849076
2.38350,26.28393417
2.38400,33.30340555
2.38450,34.52418318
2.38500,26.28393417
2.38550,11.6346026
2.38600,-0.8783681129
2.38650,-7.592645082
2.38700,-10.03420034
2.38750,-12.47575561
2.38800,-16.44328291
2.38850,-22.85236547
2.38900,-32.0081977
2.38950,-41.77441874
2.39000,-49.09908453
2.39050,-54.28738946
2.39100,-57.03413913
2.39150,-56.42375031
2.39200,-52.45622301
2.39250,-50.62505657
2.39300,-55.8133615
2.39350,-61.61205525
2.39400,-56.72894472
2.39450,-41.77441874
2.39500,-29.56664244
2.39550,-28.65105921
2.39600,-32.92378092
2.39650,-32.92378092
2.39700,-25.59911514
2.39750,-13.69653324
2.39800,0.9527983333
2.39850,12.85538023
2.39900,11.3294082
2.39950,-5.151089821
2.40000,-22.24197665
2.40050,-20.41081021
2.40100,1.868381556
2.40150,29.03068384
2.40200,44.90079304
2.40250,47.95273712
2.40300,47.0371539
2.40350,49.17351475
2.40400,55.2774029
2.40450,59.2449302
2.40500,56.80337494
2.40550,50.39429238
2.40600,46.42676508
2.40650,47.3423483
2.40700,47.95273712
2.40750,44.29040423
2.40800,38.18651607
2.40850,34.21898877
2.40900,28.11510062
2.40950,15.2969355
2.41000,-0.5731737052
2.41050,-8.508228305
2.41100,-5.456284228
2.41150,-0.5731737052
2.41200,-3.319923375
2.41250,-9.423811529
2.41300,-6.371867452
2.41350,10.10863056
2.41400,30.86185029
2.41450,44.29040423
2.41500,51.92026442
2.41550,63.51765191
2.41600,84.57606604
2.41650,107.770841
2.41700,119.3682285
2.41750,111.7383683
2.41800,88.23839894
2.41850,58.02415257
2.41900,31.4722391
2.41950,13.46576905
2.42000,0.3424095179
2.42050,-15.22250527
2.42100,-37.80689144
2.42150,-61.91724965
2.42200,-80.53410852
2.42250,-92.13149602
2.42300,-99.76135621
2.42350,-103.7288835
2.42400,-99.4561618
2.42450,-85.72241345
2.42500,-66.80036018
2.42550,-48.48869571
2.42600,-33.22897533
2.42650,-18.88483817
2.42700,-3.014728967
2.42750,16.51771313
2.42800,41.23846015
2.42850,66.8747904
2.42900,85.18645486
2.42950,90.98514861
2.43000,85.18645486
2.43050,73.89426177
2.43100,63.51765191
2.43150,56.19298613
2.43200,49.47870916
2.43250,38.49171048
2.43300,21.40082365
2.43350,3.394353595
2.43400,-9.729005936
2.43450,-19.80042139
2.43500,-32.92378092
2.43550,-50.01466775
2.43600,-61.00166643
2.43650,-57.64452795
2.43700,-44.52116841
2.43750,-32.31339211
2.43800,-24.37833751
2.43850,-14.61211646
2.43900,-2.099145744
2.43950,4.615131226
2.44000,-1.793951336
2.44050,-18.27444935
2.44100,-34.44975296
2.44150,-46.96272368
2.44200,-59.17049998
2.44250,-70.46269307
2.44300,-75.04060918
2.44350,-74.12502596
2.44400,-77.17697004
2.44450,-89.99513516
2.44500,-103.4236891
2.44550,-102.8133003
2.44600,-82.97566378
2.44650,-50.31986216
2.44700,-13.69653324
2.44750,19.5696572
2.44800,43.68001541
2.44850,56.80337494
2.44900,67.79037362
2.44950,85.79684367
2.45000,105.3292858
2.45050,111.4331739
2.45100,98.00461998
2.45150,75.42023381
2.45200,54.05662527
2.45250,34.21898877
2.45300,13.16057464
2.45350,-4.540701005
2.45400,-11.25497797
2.45450,-6.066673044
2.45500,3.699548003
2.45550,11.93979701
2.45600,16.51771313
2.45650,16.21251872
2.45700,9.193047341
2.45750,-3.625117782
2.45800,-17.05367172
2.45850,-23.15755988
2.45900,-20.41081021
2.45950,-14.91731087
2.46000,-14.00172764
2.46050,-20.1056158
2.46100,-26.81989277
2.46150,-26.51469836
2.46200,-19.19003258
2.46250,-11.25497797
2.46300,-7.592645082
2.46350,-6.371867452
2.46400,-1.793951336
2.46450,8.277464118
2.46500,23.2319901
2.46550,39.71248811
2.46600,54.66701409
2.46650,62.9072631
2.46700,61.68648547
2.46750,51.61507001
2.46800,39.1020993
2.46850,29.03068384
2.46900,18.95926839
2.46950,4.00474241
2.47000,-14.00172764
2.47050,-29.26144803
2.47100,-38.72247467
2.47150,-43.60558519
2.47200,-44.82636282
2.47250,-40.24844671
2.47300,-32.0081977
2.47350,-28.95625362
2.47400,-35.67053059
2.47450,-45.13155723
2.47500,-48.79389012
2.47550,-47.57311249
2.47600,-50.31986216
2.47650,-59.17049998
2.47700,-68.02113781
2.47750,-72.29385952
2.47800,-70.15749866
2.47850,-61.61205525
2.47900,-46.35233486
2.47950,-28.34586481
2.48000,-15.52769968
2.48050,-11.56017238
2.48100,-14.00172764
2.48150,-15.22250527
2.48200,-4.845895413
2.48250,21.70601806
2.48300,57.71895817
2.48350,83.66048282
2.48400,86.10203808
2.48450,71.75790092
2.48500,59.55012461
2.48550,59.85531902
2.48600,68.70595684
2.48650,81.21892756
2.48700,94.6474815
2.48750,102.2773417
2.48800,93.73189827
2.48850,66.56959599
2.48900,33.30340555
2.48950,9.193047341
2.49000,-4.235506598
2.49050,-15.22250527
2.49100,-26.51469836
2.49150,-35.06014178
2.49200,-39.33286348
2.49250,-42.07961315
2.49300,-44.21597401
2.49350,-41.16402993
2.49400,-27.12508718
2.49450,-3.625117782
2.49500,21.40082365
2.49550,40.01768252
2.49600,47.3423483
2.49650,43.68001541
2.49700,33.30340555
2.49750,21.70601806
2.49800,14.07615786
2.49850,10.71901938
2.49900,10.71901938
2.49950,13.16057464
2.50000,16.51771313
2.50050,17.73849076
2.50100,16.82290753
2.50150,18.95926839
2.50200,29.03068384
2.50250,42.76443219
2.50300,48.56312593
2.50350,43.0696266
2.50400,40.01768252
2.50450,52.22545883
2.50500,73.89426177
2.50550,89.15398216
2.50600,90.06956538
2.50650,82.13451078
2.50700,71.1475121
2.50750,54.9722085
2.50800,31.1670447
2.50850,5.835908857
2.50900,-14.00172764
2.50950,-28.34586481
2.51000,-39.9432523
2.51050,-50.93025098
2.51100,-62.52763847
2.51150,-76.26138682
2.51200,-88.16396872
2.51250,-93.35227365
2.51300,-91.82630161
2.51350,-91.21591279
2.51400,-95.4886345
2.51450,-98.84577299
2.51500,-96.70941213
2.51550,-93.96266246
2.51600,-94.87824568
2.51650,-95.18344009
2.51700,-89.38474635
2.51750,-83.5860526
2.51800,-88.16396872
2.51850,-99.4561618
2.51900,-99.4561618
2.51950,-80.22891412
2.52000,-54.89777828
2.52050,-41.16402993
2.52100,-41.16402993
2.52150,-42.99519638
2.52200,-39.63805789
2.52250,-34.75494737
2.52300,-33.53416974
2.52350,-35.67053059
2.52400,-36.89130822
2.52450,-37.19650263
2.52500,-39.33286348
2.52550,-44.21597401
2.52600,-47.26791808
2.52650,-42.38480756
2.52700,-29.87183684
2.52750,-16.74847731
2.52800,-8.203033898
2.52850,-3.319923375
2.52900,3.394353595
2.52950,13.77096346
2.53000,25.67354536
2.53050,37.88132167
2.53100,52.53065323
2.53150,68.09556803
2.53200,80.91373315
2.53250,88.54359334
2.53300,93.73189827
2.53350,99.53059202
2.53400,103.8033137
2.53450,103.4981193
2.53500,97.08903676
2.53550,84.57606604
2.53600,67.1799848
2.53650,47.64754271
2.53700,29.03068384
2.53750,12.85538023
2.53800,-3.625117782
2.53850,-21.02119902
2.53900,-36.58611381
2.53950,-48.79389012
2.54000,-58.86530558
2.54050,-68.93672103
2.54100,-75.95619241
2.54150,-76.56658122
2.54200,-70.76788748
2.54250,-59.17049998
2.54300,-42.99519638
2.54350,-26.20950395
2.54400,-16.74847731
2.54450,-20.71600461
2.54500,-33.53416974
2.54550,-43.30039078
2.54600,-42.07961315
2.54650,-33.22897533
2.54700,-27.12508718
2.54750,-27.12508718
2.54800,-25.29392073
2.54850,-9.729005936
2.54900,17.12810194
2.54950,41.54365456
2.55000,54.66701409
2.55050,64.43323514
2.55100,79.69295552
2.55150,94.95267591
2.55200,99.22539761
2.55250,96.17345354
2.55300,102.2773417
2.55350,123.0305614
2.55400,144.39417
2.55450,152.9396134
2.55500,147.446114
2.55550,133.7123657
2.55600,116.6214789
2.55650,106.5500634
2.55700,115.4007012
2.55750,140.7318371
2.55800,159.9590847
2.55850,156.6019463
2.55900,137.3746986
2.55950,120.8942006
2.56000,113.2643404
2.56050,108.0760354
2.56100,99.83578643
2.56150,89.76437097
2.56200,78.16698348
2.56250,64.73842954
2.56300,54.36181968
2.56350,52.53065323
2.56400,54.66701409
2.56450,47.0371539
2.56500,20.79043483
2.56550,-22.24197665
2.56600,-72.90424833
2.56650,-123.56652
2.56700,-171.1768476
2.56750,-217.5663976
2.56800,-262.1247811
2.56850,-297.222138
2.56900,-317.9753577
2.56950,-329.8779396
2.57000,-344.8324656
2.57050,-361.3129636
2.57100,-362.8389356
2.57150,-339.6441607
2.57200,-302.7156373
2.57250,-271.2806133
2.57300,-245.9494775
2.57350,-213.2936759
2.57400,-168.4300979
2.57450,-122.9561312
2.57500,-89.99513516
2.57550,-68.02113781
2.57600,-48.18350131
2.57650,-28.65105921
2.57700,-15.22250527
2.57750,-8.203033898
2.57800,-1.183562521
2.57850,10.10863056
2.57900,20.79043483
2.57950,23.2319901
2.58000,21.40082365
2.58050,28.42029503
2.58100,52.22545883
2.58150,85.18645486
2.58200,112.6539516
2.58250,128.2188663
2.58300,138.9006706
2.58350,152.3292246
2.58400,165.4525841
2.58450,171.2512778
2.58500,171.8616666
2.58550,176.1343884
2.58600,185.2902206
2.58650,183.1538597
2.58700,155.9915574
2.58750,111.1279795
2.58800,70.53712329
2.58850,46.12157067
2.58900,29.94626706
2.58950,9.803436157
2.59000,-11.56017238
2.59050,-24.68353191
2.59100,-27.12508718
2.59150,-28.65105921
2.59200,-34.14455855
2.59250,-39.02766908
2.59300,-36.89130822
2.59350,-30.48222566
2.59400,-27.73547599
2.59450,-30.17703125
2.59500,-29.87183684
2.59550,-18.88483817
2.59600,1.257992741
2.59650,23.84237891
2.59700,43.68001541
2.59750,59.85531902
2.59800,71.75790092
2.59850,78.16698348
2.59900,84.88126045
2.59950,101.3617585
2.60000,128.2188663
2.60050,153.2448078
2.60100,166.0629729
2.60150,170.9460834
2.60200,176.4395828
2.60250,177.355166
2.60300,159.9590847
2.60350,120.2838117
2.60400,71.1475121
2.60450,28.72548943
2.60500,0.3424095179
2.60550,-15.83289409
2.60600,-26.81989277
2.60650,-39.63805789
2.60700,-56.11855591
2.60750,-72.29385952
2.60800,-86.33280227
2.60850,-103.7288835
2.60900,-126.0080753
2.60950,-140.3522124
2.61000,-133.6379355
2.61050,-113.1899101
2.61100,-100.9821338
2.61150,-105.2548555
2.61200,-113.1899101
2.61250,-112.8847157
2.61300,-106.7808276
2.61350,-98.54057858
2.61400,-82.97566378
2.61450,-56.42375031
2.61500,-26.81989277
2.61550,0.9527983333
2.61600,33.30340555
2.61650,73.89426177
2.61700,108.9916187
2.61750,123.3357558
2.61800,122.4201726
2.61850,123.0305614
2.61900,125.7773111
2.61950,115.7058956
2.62000,87.93320453
2.62050,58.63454139
2.62100,42.45923778
2.62150,34.82937759
2.62200,23.5371845
2.62250,8.277464118
2.62300,-2.404340151
2.62350,-8.508228305
2.62400,-14.91731087
2.62450,-21.93678224
2.62500,-22.24197665
2.62550,-17.35886613
2.62600,-22.24197665
2.62650,-45.13155723
2.62700,-74.12502596
2.62750,-88.77435753
2.62800,-83.89124701
2.62850,-73.81983155
2.62900,-73.20944274
2.62950,-78.70294208
2.63000,-78.39774767
2.63050,-71.07308188
2.63100,-68.63152662
2.63150,-77.17697004
2.63200,-85.41721905
2.63250,-78.39774767
2.63300,-58.86530558
2.63350,-44.21597401
2.63400,-42.69000197
2.63450,-45.74194605
2.63500,-43.30039078
2.63550,-37.80689144
2.63600,-38.72247467
2.63650,-46.04714045
2.63700,-50.93025098
2.63750,-45.74194605
2.63800,-31.09261448
2.63850,-11.25497797
2.63900,9.193047341
2.63950,25.36835095
2.64000,34.52418318
2.64050,39.4072937
2.64100,42.76443219
2.64150,40.01768252
2.64200,29.03068384
2.64250,18.95926839
2.64300,20.79043483
2.64350,31.77743351
2.64400,37.27093285
2.64450,31.77743351
2.64500,23.2319901
2.64550,19.5696572
2.64600,18.34887957
2.64650,16.82290753
2.64700,16.82290753
2.64750,18.34887957
2.64800,14.07615786
2.64850,3.699548003
2.64900,-1.183562521
2.64950,7.361880895
2.65000,22.62160128
2.65050,30.86185029
2.65100,29.94626706
2.65150,29.33587825
2.65200,31.77743351
2.65250,32.08262792
2.65300,29.03068384
2.65350,29.94626706
2.65400,36.66054403
2.65450,42.45923778
2.65500,42.76443219
2.65550,41.23846015
2.65600,40.93326574
2.65650,36.66054403
2.65700,23.84237891
2.65750,8.582658526
2.65800,-0.5731737052
2.65850,-8.203033898
2.65900,-22.85236547
2.65950,-42.99519638
2.66000,-57.33933354
2.66050,-62.52763847
2.66100,-64.05361051
2.66150,-63.13802728
2.66200,-48.18350131
2.66250,-10.64458916
2.66300,38.49171048
2.66350,79.0825667
2.66400,98.6150088
2.66450,101.6669529
2.66500,100.1409808
2.66550,102.5825361
2.66600,109.9072019
2.66650,120.2838117
2.66700,131.8811992
2.66750,142.2578091
2.66800,141.6474203
2.66850,119.6734229
2.66900,79.69295552
2.66950,40.62807133
2.67000,15.2969355
2.67050,-5.151089821
2.67100,-34.75494737
2.67150,-68.93672103
2.67200,-91.21591279
2.67250,-98.84577299
2.67300,-104.0340779
2.67350,-107.6964108
2.67400,-94.26785687
2.67450,-56.42375031
2.67500,-10.03420034
2.67550,26.58912858
2.67600,53.75143087
2.67650,81.82931637
2.67700,113.2643404
2.67750,145.3097532
2.67800,172.7772499
2.67850,188.9525535
2.67900,184.6798318
2.67950,159.3486959
2.68000,126.0825055
2.68050,95.86825913
2.68100,68.09556803
2.68150,37.57612726
2.68200,7.361880895
2.68250,-18.27444935
2.68300,-43.9107796
2.68350,-77.17697004
2.68400,-115.9366598
2.68450,-148.287267
2.68500,-164.4625706
2.68550,-169.3456812
2.68600,-175.4495693
2.68650,-188.2677344
2.68700,-201.6962884
2.68750,-206.8845933
2.68800,-203.2222604
2.68850,-196.5079834
2.68900,-184.3002071
2.68950,-158.6638769
2.69000,-121.7353536
2.69050,-88.16396872
2.69100,-68.32633221
2.69150,-53.67700065
2.69200,-31.39780888
2.69250,-2.404340151
2.69300,22.92679569
2.69350,40.32287693
2.69400,50.39429238
2.69450,50.08909797
2.69500,35.4397664
2.69550,18.04368516
2.69600,17.12810194
2.69650,34.21898877
2.69700,49.47870916
2.69750,45.20598745
2.69800,25.67354536
2.69850,8.887852934
2.69900,3.089159187
2.69950,2.173575964
2.70000,-1.183562521
2.70050,-9.118617121
2.70100,-21.63158784
2.70150,-37.50169704
2.70200,-51.8458342
2.70250,-57.94972235
2.70300,-56.11855591
2.70350,-51.8458342
2.70400,-48.18350131
2.70450,-42.38480756
2.70500,-34.75494737
2.70550,-32.92378092
2.70600,-43.60558519
2.70650,-61.91724965
2.70700,-77.48216445
2.70750,-84.19644142
2.70800,-83.28085819
2.70850,-76.56658122
2.70900,-64.66399932
2.70950,-49.70947335
2.71000,-35.36533618
2.71050,-23.46275428
2.71100,-13.39133883
2.71150,-4.235506598
2.71200,4.00474241
2.71250,10.41382497
2.71300,10.10863056
2.71350,0.3424095179
2.71400,-13.08614442
2.71450,-22.54717106
2.71500,-28.34586481
2.71550,-38.41728026
2.71600,-52.76141742
2.71650,-64.96919373
2.71700,-74.43022037
2.71750,-87.85877431
2.71800,-98.84577299
2.71850,-85.11202464
2.71900,-35.975725
2.71950,24.14757332
2.72000,63.82284632
2.72050,76.94620585
2.72100,79.69295552
2.72150,83.35528841
2.72200,88.23839894
2.72250,100.1409808
2.72300,125.7773111
2.72350,157.5175295
2.72400,178.5759436
2.72450,184.069443
2.72500,181.6278877
2.72550,172.1668611
2.72600,148.9720861
2.72650,115.0955068
2.72700,83.96567723
2.72750,62.9072631
2.72800,46.12157067
2.72850,31.77743351
2.72900,24.75796213
2.72950,26.58912858
2.73000,28.42029503
2.73050,25.36835095
2.73100,21.70601806
2.73150,18.65407398
2.73200,11.02421379
2.73250,-5.151089821
2.73300,-24.68353191
2.73350,-40.85883552
2.73400,-51.54063979
2.73450,-53.67700065
2.73500,-43.30039078
2.73550,-21.93678224
2.73600,0.9527983333
2.73650,19.5696572
2.73700,32.38782233
2.73750,40.62807133
2.73800,44.59559863
2.73850,48.56312593
2.73900,57.71895817
2.73950,67.1799848
2.74000,66.8747904
2.74050,54.36181968
2.74100,39.4072937
2.74150,28.72548943
2.74200,18.34887957
2.74250,5.225520041
2.74300,-2.099145744
2.74350,5.225520041
2.74400,24.14757332
2.74450,38.49171048
2.74500,39.1020993
2.74550,28.42029503
2.74600,13.77096346
2.74650,0.6476039256
2.74700,-9.423811529
2.74750,-19.49522698
2.74800,-33.53416974
2.74850,-50.62505657
2.74900,-60.69647202
2.74950,-54.89777828
2.75000,-42.38480756
2.75050,-41.77441874
2.75100,-58.56011117
2.75150,-76.87177563
2.75200,-80.22891412
2.75250,-70.76788748
2.75300,-63.13802728
2.75350,-63.44322169
2.75400,-66.80036018
2.75450,-70.15749866
2.75500,-71.98866511
2.75550,-66.80036018
2.75600,-50.01466775
2.75650,-30.78742007
2.75700,-25.90430954
2.75750,-40.55364111
2.75800,-59.7808888
2.75850,-65.57958255
2.75900,-56.42375031
2.75950,-42.69000197
2.76000,-28.95625362
2.76050,-12.78095001
2.76100,5.530714449
2.76150,21.09562924
2.76200,26.58912858
2.76250,19.5696572
2.76300,4.00474241
2.76350,-12.78095001
2.76400,-24.98872632
2.76450,-30.17703125
2.76500,-32.92378092
2.76550,-39.33286348
2.76600,-49.70947335
2.76650,-59.47569439
2.76700,-61.00166643
2.76750,-51.8458342
2.76800,-36.28091941
2.76850,-24.0731431
2.76900,-21.93678224
2.76950,-26.51469836
2.77000,-26.81989277
2.77050,-11.86536679
2.77100,17.12810194
2.77150,49.78390357
2.77200,71.1475121
2.77250,72.36828974
2.77300,56.80337494
2.77350,38.79690489
2.77400,35.134572
2.77450,52.83584764
2.77500,81.21892756
2.77550,99.22539761
2.77600,94.95267591
2.77650,78.16698348
2.77700,70.53712329
2.77750,76.94620585
2.77800,81.21892756
2.77850,66.26440158
2.77900,36.66054403
2.77950,15.2969355
2.78000,14.38135227
2.78050,26.89432299
2.78100,39.4072937
2.78150,47.0371539
2.78200,48.56312593
2.78250,40.62807133
2.78300,22.62160128
2.78350,4.309936818
2.78400,-0.5731737052
2.78450,9.193047341
2.78500,27.1995174
2.78550,43.0696266
2.78600,52.83584764
2.78650,54.05662527
2.78700,45.81637627
2.78750,31.77743351
2.78800,15.90732431
2.78850,-5.456284228
2.78900,-40.85883552
2.78950,-87.85877431
2.79000,-125.7028809
2.79050,-130.5859914
2.79100,-99.4561618
2.79150,-57.03413913
2.79200,-29.87183684
2.79250,-25.29392073
2.79300,-32.92378092
2.79350,-42.07961315
2.79400,-49.70947335
2.79450,-53.98219505
2.79500,-53.67700065
2.79550,-48.48869571
2.79600,-40.55364111
2.79650,-28.65105921
2.79700,-12.47575561
2.79750,2.478770372
2.79800,11.3294082
2.79850,12.85538023
2.79900,9.498241749
2.79950,0.9527983333
2.80000,-9.729005936
2.80050,-10.33939475
2.80100,7.361880895
2.80150,33.60859996
2.80200,49.17351475
2.80250,52.53065323
2.80300,58.32934698
2.80350,69.92673447
2.80400,73.28387296
2.80450,62.9072631
2.80500,51.61507001
2.80550,49.47870916
2.80600,47.0371539
2.80650,36.35534963
2.80700,24.14757332
2.80750,17.73849076
2.80800,6.141103264
2.80850,-24.0731431
2.80900,-69.24191544
2.80950,-116.2418542
2.81000,-158.9690713
2.81050,-194.3716226
2.81100,-213.9040647
2.81150,-212.0728982
2.81200,-197.1183723
2.81250,-176.6703469
2.81300,-148.8976558
2.81350,-112.5795213
2.81400,-75.650998
2.81450,-45.43675164
2.81500,-19.49522698
2.81550,-0.2679792975
2.81600,5.225520041
2.81650,1.563187149
2.81700,7.361880895
2.81750,25.36835095
2.81800,32.99821114
2.81850,15.90732431
2.81900,-6.371867452
2.81950,-13.69653324
2.82000,-16.74847731
2.82050,-34.14455855
2.82100,-50.93025098
2.82150,-35.67053059
2.82200,11.3294082
2.82250,57.71895817
2.82300,85.79684367
2.82350,108.0760354
2.82400,134.3227545
2.82450,152.634419
2.82500,148.0565028
2.82550,125.1669223
2.82600,98.6150088
2.82650,78.16698348
2.82700,68.40076244
2.82750,69.62154007
2.82800,77.25140026
2.82850,81.82931637
2.82900,79.0825667
2.82950,71.1475121
2.83000,64.12804073
2.83050,64.43323514
2.83100,74.809845
2.83150,86.10203808
2.83200,80.91373315
2.83250,55.58259731
2.83300,29.03068384
2.83350,22.01121246
2.83400,31.4722391
2.83450,39.71248811
2.83500,40.01768252
2.83550,39.71248811
2.83600,40.62807133
2.83650,36.66054403
2.83700,26.89432299
2.83750,19.2644628
2.83800,13.77096346
2.83850,-2.404340151
2.83900,-36.58611381
2.83950,-76.87177563
2.84000,-104.6444667
2.84050,-116.2418542
2.84100,-119.5989927
2.84150,-116.5470486
2.84200,-100.6769394
2.84250,-72.90424833
2.84300,-48.18350131
2.84350,-38.11208585
2.84400,-38.72247467
2.84450,-33.83936414
2.84500,-18.57964376
2.84550,-4.235506598
2.84600,-1.183562521
2.84650,-7.89783949
2.84700,-15.83289409
2.84750,-21.02119902
2.84800,-25.29392073
2.84850,-29.56664244
2.84900,-35.36533618
2.84950,-48.48869571
2.85000,-70.76788748
2.85050,-88.77435753
2.85100,-83.5860526
2.85150,-54.28738946
2.85200,-20.1056158
2.85250,0.6476039256
2.85300,9.498241749
2.85350,17.43329635
2.85400,30.86185029
2.85450,46.12157067
2.85500,60.46570784
2.85550,71.1475121
2.85600,75.72542822
2.85650,72.36828974
2.85700,65.65401277
2.85750,58.9397358
2.85800,45.20598745
2.85850,18.04368516
2.85900,-14.30692205
2.85950,-32.31339211
2.86000,-25.90430954
2.86050,-7.287450675
2.86100,6.75149208
2.86150,14.38135227
2.86200,22.31640687
2.86250,28.72548943
2.86300,25.36835095
2.86350,8.887852934
2.86400,-12.78095001
2.86450,-34.44975296
2.86500,-57.33933354
2.86550,-82.97566378
2.86600,-108.9171884
2.86650,-130.8911858
2.86700,-147.6768782
2.86750,-159.5794601
2.86800,-166.2937371
2.86850,-168.7352923
2.86900,-165.3781539
2.86950,-151.3392111
2.87000,-123.8717144
2.87050,-91.21591279
2.87100,-65.27438814
2.87150,-43.9107796
2.87200,-16.44328291
2.87250,20.18004602
2.87300,52.83584764
2.87350,72.36828974
2.87400,83.96567723
2.87450,98.30981439
2.87500,113.8747292
2.87550,122.725367
2.87600,123.6409502
2.87650,118.1474509
2.87700,104.4137025
2.87750,80.30334434
2.87800,54.36181968
2.87850,38.18651607
2.87900,29.94626706
2.87950,17.73849076
2.88000,-0.2679792975
2.88050,-12.47575561
2.88100,-9.729005936
2.88150,0.03721511018
2.88200,2.478770372
2.88250,-4.845895413
2.88300,-9.423811529
2.88350,0.9527983333
2.88400,23.2319901
2.88450,43.68001541
2.88500,52.83584764
2.88550,54.36181968
2.88600,54.9722085
2.88650,54.66701409
2.88700,50.69948679
2.88750,45.51118186
2.88800,43.98520982
2.88850,46.12157067
2.88900,47.0371539
2.88950,45.20598745
2.89000,43.68001541
2.89050,45.20598745
2.89100,48.86832034
2.89150,53.44623646
2.89200,58.02415257
2.89250,61.38129106
2.89300,64.12804073
2.89350,69.31634566
2.89400,76.33581704
2.89450,76.03062263
2.89500,60.46570784
2.89550,37.27093285
2.89600,24.45276773
2.89650,28.11510062
2.89700,34.82937759
2.89750,29.64107266
2.89800,13.77096346
2.89850,-0.2679792975
2.89900,-5.151089821
2.89950,-3.93031219
2.90000,1.563187149
2.90050,12.24499142
2.90100,24.14757332
2.90150,30.55665588
2.90200,31.1670447
2.90250,33.30340555
2.90300,43.98520982
2.90350,61.68648547
2.90400,78.47217789
2.90450,86.7124269
2.90500,83.050094
2.90550,72.06309533
2.90600,64.43323514
2.90650,68.40076244
2.90700,77.86178907
2.90750,78.7773723
2.90800,65.34881836
2.90850,47.0371539
2.90900,34.21898877
2.90950,23.2319901
2.91000,3.089159187
2.91050,-22.85236547
2.91100,-39.63805789
2.91150,-37.50169704
2.91200,-22.85236547
2.91250,-6.677061859
2.91300,8.582658526
2.91350,23.84237891
2.91400,32.38782233
2.91450,25.97873976
2.91500,8.277464118
2.91550,-7.592645082
2.91600,-14.30692205
2.91650,-18.27444935
2.91700,-28.0406704
2.91750,-42.99519638
2.91800,-53.98219505
2.91850,-56.42375031
2.91900,-53.67700065
2.91950,-49.70947335
2.92000,-47.57311249
2.92050,-50.93025098
2.92100,-63.13802728
2.92150,-78.70294208
2.92200,-84.80683023
2.92250,-75.04060918
2.92300,-62.52763847
