type,name,time_units,begin_time,frequency,count,units
signal,"Noraxon MyoMotion-Segments-Upper arm RT-Roll","s",0.0000,200,5728,"deg"

time,value
0.0000,-2.366499185
0.0050,-2.369449326
0.0100,-2.372399656
0.0150,-2.375350174
0.0200,-2.378493262
0.0250,-2.381795904
0.0300,-2.385219582
0.0350,-2.388722331
0.0400,-2.39226057
0.0450,-2.395791215
0.0500,-2.399273795
0.0550,-2.402672105
0.0600,-2.40595552
0.0650,-2.409099955
0.0700,-2.412088597
0.0750,-2.414912303
0.0800,-2.41756916
0.0850,-2.420063431
0.0900,-2.422404171
0.0950,-2.424603403
0.1000,-2.426674222
0.1050,-2.428629205
0.1100,-2.430478957
0.1150,-2.432231039
0.1200,-2.433889833
0.1250,-2.435456857
0.1300,-2.436930997
0.1350,-2.438309049
0.1400,-2.439586595
0.1450,-2.44075896
0.1500,-2.441822451
0.1550,-2.446380958
0.1600,-2.450919716
0.1650,-2.455294564
0.1700,-2.459592352
0.1750,-2.463680521
0.1800,-2.467756651
0.1850,-2.471855339
0.1900,-2.475761226
0.1950,-2.479690392
0.2000,-2.483683875
0.2050,-2.487713065
0.2100,-2.49183578
0.2150,-2.496018015
0.2200,-2.500280895
0.2250,-2.504714618
0.2300,-2.509191771
0.2350,-2.513700657
0.2400,-2.518196134
0.2450,-2.522744232
0.2500,-2.527300399
0.2550,-2.531998921
0.2600,-2.536641986
0.2650,-2.541306314
0.2700,-2.545914114
0.2750,-2.550635742
0.2800,-2.555291545
0.2850,-2.559952337
0.2900,-2.564547208
0.2950,-2.569008129
0.3000,-2.573412024
0.3050,-2.577766087
0.3100,-2.582072427
0.3150,-2.586257129
0.3200,-2.590419959
0.3250,-2.59449882
0.3300,-2.598498954
0.3350,-2.602505459
0.3400,-2.606439809
0.3450,-2.610205056
0.3500,-2.613929191
0.3550,-2.617651963
0.3600,-2.62133284
0.3650,-2.624739155
0.3700,-2.627937775
0.3750,-2.631031403
0.3800,-2.633946957
0.3850,-2.636618333
0.3900,-2.639249767
0.3950,-2.641766224
0.4000,-2.644130446
0.4050,-2.646393616
0.4100,-2.648742583
0.4150,-2.650989875
0.4200,-2.653139907
0.4250,-2.655173369
0.4300,-2.65704278
0.4350,-2.658936134
0.4400,-2.660691564
0.4450,-2.662351391
0.4500,-2.664200265
0.4550,-2.666011328
0.4600,-2.667903752
0.4650,-2.669728305
0.4700,-2.671665527
0.4750,-2.673587989
0.4800,-2.675564334
0.4850,-2.67743058
0.4900,-2.679551905
0.4950,-2.681699107
0.5000,-2.683899217
0.5050,-2.686212063
0.5100,-2.688571383
0.5150,-2.691068099
0.5200,-2.69362706
0.5250,-2.696237506
0.5300,-2.698882325
0.5350,-2.701580424
0.5400,-2.704457091
0.5450,-2.707381726
0.5500,-2.710269746
0.5550,-2.713003215
0.5600,-2.715691648
0.5650,-2.718325807
0.5700,-2.720676482
0.5750,-2.722783451
0.5800,-2.724641614
0.5850,-2.72604052
0.5900,-2.727117765
0.5950,-2.727873581
0.6000,-2.728152133
0.6050,-2.7279355
0.6100,-2.72725721
0.6150,-2.726106425
0.6200,-2.724394098
0.6250,-2.722181605
0.6300,-2.719423114
0.6350,-2.716098778
0.6400,-2.712347287
0.6450,-2.70815048
0.6500,-2.703445275
0.6550,-2.698231881
0.6600,-2.692720535
0.6650,-2.686800774
0.6700,-2.680623721
0.6750,-2.674130348
0.6800,-2.667313943
0.6850,-2.66028733
0.6900,-2.652848519
0.6950,-2.645196091
0.7000,-2.637273595
0.7050,-2.629168378
0.7100,-2.620664523
0.7150,-2.611936242
0.7200,-2.603022309
0.7250,-2.593942894
0.7300,-2.584717132
0.7350,-2.575266609
0.7400,-2.565705859
0.7450,-2.556047566
0.7500,-2.546286735
0.7550,-2.536450561
0.7600,-2.526650776
0.7650,-2.517158974
0.7700,-2.507750648
0.7750,-2.498553815
0.7800,-2.489659444
0.7850,-2.481252404
0.7900,-2.473265665
0.7950,-2.465666406
0.8000,-2.458604884
0.8050,-2.452081174
0.8100,-2.445987034
0.8150,-2.440474368
0.8200,-2.435434042
0.8250,-2.430853647
0.8300,-2.426813393
0.8350,-2.423097393
0.8400,-2.41978048
0.8450,-2.41659673
0.8500,-2.413605341
0.8550,-2.410624904
0.8600,-2.407809889
0.8650,-2.404912992
0.8700,-2.401953549
0.8750,-2.398990341
0.8800,-2.395830958
0.8850,-2.392822523
0.8900,-2.389773208
0.8950,-2.38670137
0.9000,-2.383796001
0.9050,-2.381046049
0.9100,-2.378397298
0.9150,-2.375936979
0.9200,-2.373762345
0.9250,-2.371715296
0.9300,-2.36993243
0.9350,-2.36833986
0.9400,-2.36691598
0.9450,-2.365699559
0.9500,-2.364777697
0.9550,-2.363905006
0.9600,-2.362901056
0.9650,-2.362036676
0.9700,-2.360885552
0.9750,-2.359585087
0.9800,-2.358141046
0.9850,-2.356392903
0.9900,-2.354431119
0.9950,-2.352179802
1.0000,-2.349852182
1.0050,-2.347331802
1.0100,-2.344806748
1.0150,-2.342086836
1.0200,-2.339186738
1.0250,-2.336186094
1.0300,-2.333199302
1.0350,-2.330160476
1.0400,-2.327047189
1.0450,-2.323986128
1.0500,-2.320828144
1.0550,-2.317824274
1.0600,-2.314826046
1.0650,-2.31182078
1.0700,-2.308933412
1.0750,-2.306274427
1.0800,-2.303629689
1.0850,-2.30108045
1.0900,-2.298621237
1.0950,-2.296313847
1.1000,-2.294165953
1.1050,-2.292005228
1.1100,-2.290103839
1.1150,-2.288170529
1.1200,-2.286389268
1.1250,-2.284636288
1.1300,-2.283022613
1.1350,-2.281592069
1.1400,-2.279982402
1.1450,-2.278618887
1.1500,-2.277324091
1.1550,-2.276186078
1.1600,-2.27505139
1.1650,-2.273890829
1.1700,-2.272942912
1.1750,-2.272007593
1.1800,-2.271169321
1.1850,-2.270326132
1.1900,-2.269561777
1.1950,-2.268755549
1.2000,-2.268001554
1.2050,-2.267137294
1.2100,-2.266391593
1.2150,-2.26574074
1.2200,-2.265094128
1.2250,-2.264677211
1.2300,-2.264409688
1.2350,-2.264269923
1.2400,-2.264391772
1.2450,-2.264714522
1.2500,-2.265061978
1.2550,-2.26569001
1.2600,-2.266598854
1.2650,-2.267538566
1.2700,-2.268841935
1.2750,-2.270238704
1.2800,-2.271718221
1.2850,-2.27333473
1.2900,-2.275081423
1.2950,-2.276884604
1.3000,-2.278605509
1.3050,-2.280228022
1.3100,-2.281578415
1.3150,-2.282896614
1.3200,-2.28416999
1.3250,-2.285363298
1.3300,-2.286251069
1.3350,-2.286937772
1.3400,-2.287497177
1.3450,-2.287912263
1.3500,-2.288191689
1.3550,-2.288249285
1.3600,-2.288094541
1.3650,-2.287687875
1.3700,-2.286987707
1.3750,-2.286124024
1.3800,-2.284995645
1.3850,-2.283627273
1.3900,-2.281841949
1.3950,-2.279823334
1.4000,-2.277322295
1.4050,-2.274390381
1.4100,-2.270995781
1.4150,-2.267159542
1.4200,-2.262850574
1.4250,-2.258128846
1.4300,-2.252929041
1.4350,-2.247288231
1.4400,-2.241426185
1.4450,-2.235142455
1.4500,-2.228526221
1.4550,-2.221788733
1.4600,-2.214667657
1.4650,-2.207465675
1.4700,-2.199867834
1.4750,-2.192156249
1.4800,-2.184266561
1.4850,-2.176280227
1.4900,-2.168249967
1.4950,-2.160103283
1.5000,-2.15203753
1.5050,-2.144064343
1.5100,-2.136100033
1.5150,-2.128153017
1.5200,-2.120424552
1.5250,-2.112690029
1.5300,-2.104949535
1.5350,-2.097477422
1.5400,-2.08992236
1.5450,-2.082429879
1.5500,-2.074921031
1.5550,-2.067421055
1.5600,-2.059853573
1.5650,-2.052339212
1.5700,-2.044843353
1.5750,-2.037233677
1.5800,-2.029787356
1.5850,-2.02239571
1.5900,-2.014964035
1.5950,-2.007628642
1.6000,-2.00030598
1.6050,-1.993026779
1.6100,-1.985934992
1.6150,-1.978855996
1.6200,-1.971850243
1.6250,-1.964887709
1.6300,-1.958066651
1.6350,-1.951374957
1.6400,-1.944623333
1.6450,-1.93801955
1.6500,-1.931366398
1.6550,-1.924678789
1.6600,-1.917999207
1.6650,-1.911337734
1.6700,-1.904596045
1.6750,-1.897400116
1.6800,-1.890125868
1.6850,-1.882535633
1.6900,-1.874751532
1.6950,-1.866607443
1.7000,-1.858395912
1.7050,-1.850096816
1.7100,-1.841577293
1.7150,-1.832937464
1.7200,-1.824200566
1.7250,-1.815430024
1.7300,-1.806479929
1.7350,-1.797438378
1.7400,-1.788313895
1.7450,-1.779081055
1.7500,-1.769724519
1.7550,-1.760028952
1.7600,-1.750150001
1.7650,-1.739971144
1.7700,-1.729674547
1.7750,-1.71908484
1.7800,-1.708328033
1.7850,-1.697100075
1.7900,-1.68545985
1.7950,-1.673467665
1.8000,-1.660843959
1.8050,-1.647638562
1.8100,-1.633673134
1.8150,-1.618967688
1.8200,-1.603413313
1.8250,-1.587080277
1.8300,-1.569969398
1.8350,-1.551885454
1.8400,-1.533183861
1.8450,-1.513566477
1.8500,-1.493405061
1.8550,-1.472484152
1.8600,-1.451023038
1.8650,-1.42909578
1.8700,-1.406581966
1.8750,-1.38375449
1.8800,-1.360362821
1.8850,-1.336540706
1.8900,-1.312262993
1.8950,-1.287409845
1.9000,-1.262017749
1.9050,-1.236053154
1.9100,-1.209392623
1.9150,-1.182049093
1.9200,-1.154053881
1.9250,-1.12544135
1.9300,-1.096142002
1.9350,-1.066058058
1.9400,-1.035315099
1.9450,-1.003479234
1.9500,-0.9709049306
1.9550,-0.9376173291
1.9600,-0.9036129307
1.9650,-0.8689512373
1.9700,-0.8339093957
1.9750,-0.7986152833
1.9800,-0.7631171274
1.9850,-0.727484486
1.9900,-0.6917110716
1.9950,-0.6559078432
2.0000,-0.619957163
2.0050,-0.583926108
2.0100,-0.547905505
2.0150,-0.511786554
2.0200,-0.4753549072
2.0250,-0.4386214519
2.0300,-0.4015571421
2.0350,-0.3640520086
2.0400,-0.3258585844
2.0450,-0.2869190476
2.0500,-0.2471002639
2.0550,-0.2062562697
2.0600,-0.1644133884
2.0650,-0.1216144646
2.0700,-0.07776940608
2.0750,-0.03281572129
2.0800,0.01311779906
2.0850,0.05982013211
2.0900,0.1071919563
2.0950,0.1551319752
2.1000,0.2031870504
2.1050,0.2513533897
2.1100,0.2992511785
2.1150,0.3467293127
2.1200,0.3938091995
2.1250,0.4402979676
2.1300,0.4862657459
2.1350,0.5316513665
2.1400,0.5765430653
2.1450,0.6208895647
2.1500,0.664858271
2.1550,0.7083154482
2.1600,0.7512222422
2.1650,0.7935711559
2.1700,0.8352765658
2.1750,0.8763219407
2.1800,0.9166320811
2.1850,0.9561426509
2.1900,0.9946906718
2.1950,1.032250326
2.2000,1.068825209
2.2050,1.104393906
2.2100,1.138924752
2.2150,1.172369345
2.2200,1.204826323
2.2250,1.236380642
2.2300,1.2670705
2.2350,1.296959276
2.2400,1.326135971
2.2450,1.354615746
2.2500,1.382460698
2.2550,1.409965623
2.2600,1.437166299
2.2650,1.464104325
2.2700,1.491064687
2.2750,1.517947266
2.2800,1.544925949
2.2850,1.571682988
2.2900,1.598271299
2.2950,1.624636128
2.3000,1.650785721
2.3050,1.676636844
2.3100,1.70218164
2.3150,1.727318317
2.3200,1.751928161
2.3250,1.776072695
2.3300,1.799839963
2.3350,1.823201293
2.3400,1.84603997
2.3450,1.868409371
2.3500,1.890328282
2.3550,1.911834849
2.3600,1.933052191
2.3650,1.954216379
2.3700,1.975357515
2.3750,1.996416691
2.3800,2.017644148
2.3850,2.038892236
2.3900,2.060202319
2.3950,2.081434175
2.4000,2.102898091
2.4050,2.124236381
2.4100,2.145448334
2.4150,2.166431494
2.4200,2.186804688
2.4250,2.206617296
2.4300,2.225559759
2.4350,2.243576679
2.4400,2.260858029
2.4450,2.276999987
2.4500,2.292063087
2.4550,2.306330848
2.4600,2.319950567
2.4650,2.332915865
2.4700,2.345414518
2.4750,2.35755877
2.4800,2.36946207
2.4850,2.381263437
2.4900,2.393001678
2.4950,2.404623274
2.5000,2.41602546
2.5050,2.427085931
2.5100,2.437736883
2.5150,2.447747997
2.5200,2.456960647
2.5250,2.465373097
2.5300,2.472754866
2.5350,2.479081549
2.5400,2.484173534
2.5450,2.488078296
2.5500,2.4910372
2.5550,2.492710332
2.5600,2.493383285
2.5650,2.493282408
2.5700,2.492467024
2.5750,2.491045896
2.5800,2.489398237
2.5850,2.487674937
2.5900,2.486001794
2.5950,2.484482169
2.6000,2.48323021
2.6050,2.482359196
2.6100,2.481948786
2.6150,2.482137115
2.6200,2.482859125
2.6250,2.484222927
2.6300,2.486049724
2.6350,2.488384229
2.6400,2.491146652
2.6450,2.494393054
2.6500,2.497901111
2.6550,2.50153643
2.6600,2.50505442
2.6650,2.508385978
2.6700,2.511545306
2.6750,2.514420351
2.6800,2.517058735
2.6850,2.51935539
2.6900,2.521245624
2.6950,2.522672675
2.7000,2.523593517
2.7050,2.524159228
2.7100,2.52424829
2.7150,2.523943359
2.7200,2.523367142
2.7250,2.522271567
2.7300,2.520686864
2.7350,2.518603898
2.7400,2.515601381
2.7450,2.511866961
2.7500,2.507049154
2.7550,2.500940103
2.7600,2.493374482
2.7650,2.48435565
2.7700,2.473680026
2.7750,2.461182326
2.7800,2.446853696
2.7850,2.430464933
2.7900,2.41198309
2.7950,2.39146008
2.8000,2.368839135
2.8050,2.344369441
2.8100,2.317950553
2.8150,2.289850972
2.8200,2.260239315
2.8250,2.22896375
2.8300,2.196137081
2.8350,2.16171552
2.8400,2.125920668
2.8450,2.088678971
2.8500,2.049808004
2.8550,2.009616745
2.8600,1.96806267
2.8650,1.925228297
2.8700,1.881167639
2.8750,1.835977627
2.8800,1.789468343
2.8850,1.741877745
2.8900,1.693066022
2.8950,1.643097028
2.9000,1.591763501
2.9050,1.538961856
2.9100,1.484446871
2.9150,1.42802129
2.9200,1.369781623
2.9250,1.309711325
2.9300,1.247740315
2.9350,1.18390337
2.9400,1.118527578
2.9450,1.051699565
2.9500,0.9836878265
2.9550,0.9145242294
2.9600,0.8443770869
2.9650,0.7732487739
2.9700,0.7010181339
2.9750,0.6278686906
2.9800,0.5536549697
2.9850,0.4786461857
2.9900,0.4027842354
2.9950,0.326232022
3.0000,0.2491736334
3.0050,0.1715403568
3.0100,0.09343743771
3.0150,0.01479612145
3.0200,-0.06448190811
3.0250,-0.1443896291
3.0300,-0.2249804019
3.0350,-0.3063129508
3.0400,-0.3883341899
3.0450,-0.4711048779
3.0500,-0.5543412717
3.0550,-0.637925629
3.0600,-0.7215453099
3.0650,-0.8048734972
3.0700,-0.8874593754
3.0750,-0.9689054058
3.0800,-1.049108383
3.0850,-1.127541907
3.0900,-1.203889529
3.0950,-1.277989951
3.1000,-1.349616002
3.1050,-1.418682714
3.1100,-1.484958113
3.1150,-1.548273205
3.1200,-1.608612795
3.1250,-1.665879479
3.1300,-1.719909496
3.1350,-1.770701924
3.1400,-1.818309149
3.1450,-1.862849673
3.1500,-1.904282774
3.1550,-1.942980858
3.1600,-1.978969194
3.1650,-2.012666372
3.1700,-2.044147418
3.1750,-2.073765621
3.1800,-2.101393542
3.1850,-2.127417542
3.1900,-2.151875126
3.1950,-2.175067289
3.2000,-2.196893679
3.2050,-2.217530545
3.2100,-2.236890294
3.2150,-2.255037467
3.2200,-2.27210375
3.2250,-2.288316513
3.2300,-2.303716119
3.2350,-2.318469401
3.2400,-2.332968683
3.2450,-2.34750481
3.2500,-2.362406666
3.2550,-2.377970611
3.2600,-2.394422772
3.2650,-2.411998385
3.2700,-2.430890695
3.2750,-2.451357661
3.2800,-2.473473692
3.2850,-2.497413912
3.2900,-2.523282328
3.2950,-2.551116071
3.3000,-2.581319786
3.3050,-2.613910065
3.3100,-2.64893614
3.3150,-2.686623721
3.3200,-2.726741227
3.3250,-2.769327328
3.3300,-2.814134691
3.3350,-2.861026095
3.3400,-2.909969355
3.3450,-2.960768414
3.3500,-3.013194318
3.3550,-3.067378093
3.3600,-3.123115809
3.3650,-3.180518755
3.3700,-3.239470248
3.3750,-3.30020911
3.3800,-3.362794486
3.3850,-3.427333981
3.3900,-3.494069765
3.3950,-3.56302554
3.4000,-3.6341312
3.4050,-3.707360452
3.4100,-3.782570849
3.4150,-3.859752822
3.4200,-3.93871936
3.4250,-4.019215182
3.4300,-4.101231565
3.4350,-4.184774039
3.4400,-4.269965619
3.4450,-4.356732522
3.4500,-4.445173245
3.4550,-4.535129473
3.4600,-4.626908853
3.4650,-4.720335576
3.4700,-4.815664661
3.4750,-4.912763942
3.4800,-5.011817187
3.4850,-5.112911785
3.4900,-5.216221225
3.4950,-5.321639514
3.5000,-5.42933707
3.5050,-5.539288006
3.5100,-5.65174912
3.5150,-5.766545586
3.5200,-5.883637596
3.5250,-6.003119473
3.5300,-6.124708573
3.5350,-6.248286346
3.5400,-6.373615815
3.5450,-6.500450842
3.5500,-6.62839903
3.5550,-6.757227223
3.5600,-6.886696642
3.5650,-7.016785158
3.5700,-7.147061898
3.5750,-7.277475503
3.5800,-7.407954997
3.5850,-7.538500893
3.5900,-7.668821179
3.5950,-7.799060217
3.6000,-7.92890397
3.6050,-8.058258086
3.6100,-8.187086817
3.6150,-8.315207864
3.6200,-8.442856506
3.6250,-8.569825952
3.6300,-8.696282361
3.6350,-8.822230037
3.6400,-8.947696539
3.6450,-9.072456693
3.6500,-9.196738117
3.6550,-9.320307889
3.6600,-9.443213134
3.6650,-9.565176058
3.6700,-9.68665594
3.6750,-9.807166369
3.6800,-9.926439896
3.6850,-10.04434856
3.6900,-10.16064829
3.6950,-10.27551638
3.7000,-10.38877926
3.7050,-10.50074743
3.7100,-10.61141925
3.7150,-10.7209497
3.7200,-10.82948459
3.7250,-10.9372663
3.7300,-11.04407043
3.7350,-11.14992713
3.7400,-11.25464608
3.7450,-11.3583272
3.7500,-11.46099042
3.7550,-11.562628
3.7600,-11.66317419
3.7650,-11.76289303
3.7700,-11.8618281
3.7750,-11.9601636
3.7800,-12.05804082
3.7850,-12.15549958
3.7900,-12.25257768
3.7950,-12.34928393
3.8000,-12.44572769
3.8050,-12.5417728
3.8100,-12.6374487
3.8150,-12.73285356
3.8200,-12.82820815
3.8250,-12.92339295
3.8300,-13.01882635
3.8350,-13.11449817
3.8400,-13.21060561
3.8450,-13.30698884
3.8500,-13.40367217
3.8550,-13.50025969
3.8600,-13.59658049
3.8650,-13.69222834
3.8700,-13.78692948
3.8750,-13.88042797
3.8800,-13.97261162
3.8850,-14.06305953
3.8900,-14.15179467
3.8950,-14.23856556
3.9000,-14.32331906
3.9050,-14.40620713
3.9100,-14.48715403
3.9150,-14.56613267
3.9200,-14.64286804
3.9250,-14.71755345
3.9300,-14.78999782
3.9350,-14.86014508
3.9400,-14.92770789
3.9450,-14.99315952
3.9500,-15.05611505
3.9550,-15.11661784
3.9600,-15.17505503
3.9650,-15.23127853
3.9700,-15.28538137
3.9750,-15.3377218
3.9800,-15.38847285
3.9850,-15.43774252
3.9900,-15.48559759
3.9950,-15.53187495
4.0000,-15.57660661
4.0050,-15.61965528
4.0100,-15.66088057
4.0150,-15.70035074
4.0200,-15.73808212
4.0250,-15.77420088
4.0300,-15.80898557
4.0350,-15.84279142
4.0400,-15.87593831
4.0450,-15.90859144
4.0500,-15.94095886
4.0550,-15.97342914
4.0600,-16.00617268
4.0650,-16.03923616
4.0700,-16.07288434
4.0750,-16.10710655
4.0800,-16.14211723
4.0850,-16.178051
4.0900,-16.21504632
4.0950,-16.25332241
4.1000,-16.29302765
4.1050,-16.3343398
4.1100,-16.37735756
4.1150,-16.42202864
4.1200,-16.46849798
4.1250,-16.51669264
4.1300,-16.56646191
4.1350,-16.61761343
4.1400,-16.66997716
4.1450,-16.72342185
4.1500,-16.77785268
4.1550,-16.83342367
4.1600,-16.88995614
4.1650,-16.94728636
4.1700,-17.00564577
4.1750,-17.06487279
4.1800,-17.12495742
4.1850,-17.18585877
4.1900,-17.24747479
4.1950,-17.30976626
4.2000,-17.37260932
4.2050,-17.43578878
4.2100,-17.49905053
4.2150,-17.5620455
4.2200,-17.62481953
4.2250,-17.68722189
4.2300,-17.74920798
4.2350,-17.81078056
4.2400,-17.87185005
4.2450,-17.93201967
4.2500,-17.99135473
4.2550,-18.04968533
4.2600,-18.10674591
4.2650,-18.16287931
4.2700,-18.21773969
4.2750,-18.27119937
4.2800,-18.32322231
4.2850,-18.37385644
4.2900,-18.42294097
4.2950,-18.47056009
4.3000,-18.51667081
4.3050,-18.5614644
4.3100,-18.60509044
4.3150,-18.64758118
4.3200,-18.6888458
4.3250,-18.72893254
4.3300,-18.76779464
4.3350,-18.80524944
4.3400,-18.84115147
4.3450,-18.87551195
4.3500,-18.90802868
4.3550,-18.93878516
4.3600,-18.96762184
4.3650,-18.99463361
4.3700,-19.01965996
4.3750,-19.04286178
4.3800,-19.06412744
4.3850,-19.08341382
4.3900,-19.10084546
4.3950,-19.11632926
4.4000,-19.12998819
4.4050,-19.14198168
4.4100,-19.15219434
4.4150,-19.16091824
4.4200,-19.16804129
4.4250,-19.17373838
4.4300,-19.17788987
4.4350,-19.18080281
4.4400,-19.18233571
4.4450,-19.18289926
4.4500,-19.18255218
4.4550,-19.18135821
4.4600,-19.17963266
4.4650,-19.17756503
4.4700,-19.17518265
4.4750,-19.17262063
4.4800,-19.16976458
4.4850,-19.16688504
4.4900,-19.16383219
4.4950,-19.16061645
4.5000,-19.15729793
4.5050,-19.15383732
4.5100,-19.15036481
4.5150,-19.14682791
4.5200,-19.14318637
4.5250,-19.13924762
4.5300,-19.13517824
4.5350,-19.13084273
4.5400,-19.1265601
4.5450,-19.1225007
4.5500,-19.11889106
4.5550,-19.11590346
4.5600,-19.11346423
4.5650,-19.11146242
4.5700,-19.11019621
4.5750,-19.10949108
4.5800,-19.10933315
4.5850,-19.10972332
4.5900,-19.11071962
4.5950,-19.11231161
4.6000,-19.11477784
4.6050,-19.1177502
4.6100,-19.12148582
4.6150,-19.12585678
4.6200,-19.13112403
4.6250,-19.1370355
4.6300,-19.14385692
4.6350,-19.15144741
4.6400,-19.15993734
4.6450,-19.16902019
4.6500,-19.17902603
4.6550,-19.18951079
4.6600,-19.20074179
4.6650,-19.21254832
4.6700,-19.22480442
4.6750,-19.23744629
4.6800,-19.25052695
4.6850,-19.26377391
4.6900,-19.27716915
4.6950,-19.29088787
4.7000,-19.30470798
4.7050,-19.31848002
4.7100,-19.33218384
4.7150,-19.34572422
4.7200,-19.35901076
4.7250,-19.37190702
4.7300,-19.38453668
4.7350,-19.39654306
4.7400,-19.40807918
4.7450,-19.41886005
4.7500,-19.428864
4.7550,-19.43799363
4.7600,-19.44605162
4.7650,-19.45305743
4.7700,-19.45878559
4.7750,-19.46328209
4.7800,-19.46658386
4.7850,-19.46861486
4.7900,-19.46966026
4.7950,-19.46973262
4.8000,-19.46883411
4.8050,-19.46696604
4.8100,-19.46413732
4.8150,-19.46058095
4.8200,-19.45610392
4.8250,-19.45100547
4.8300,-19.44516183
4.8350,-19.43879487
4.8400,-19.43183313
4.8450,-19.42424942
4.8500,-19.41594793
4.8550,-19.4069996
4.8600,-19.39757212
4.8650,-19.38771934
4.8700,-19.37741882
4.8750,-19.3666812
4.8800,-19.35567567
4.8850,-19.34441149
4.8900,-19.33299015
4.8950,-19.32140074
4.9000,-19.30976974
4.9050,-19.29817797
4.9100,-19.28670771
4.9150,-19.27544574
4.9200,-19.26424602
4.9250,-19.253315
4.9300,-19.24254198
4.9350,-19.23203703
4.9400,-19.22162563
4.9450,-19.21184023
4.9500,-19.20227545
4.9550,-19.19318582
4.9600,-19.18460135
4.9650,-19.17653851
4.9700,-19.16918283
4.9750,-19.16257345
4.9800,-19.15656313
4.9850,-19.15142789
4.9900,-19.14698168
4.9950,-19.14315874
5.0000,-19.1398695
5.0050,-19.13709282
5.0100,-19.13482616
