type,name,time_units,begin_time,frequency,count,units
signal_3d,"Noraxon MyoMotion-Trajectories-Radial styloid process RT","s",0.0000,200,5728,"mm"

time,x,y,z
0.0000,-119.300338,160.9104415,903.2121176
0.0050,-119.2713453,160.9047034,903.2064212
0.0100,-119.242351,160.8989826,903.2007301
0.0150,-119.2133551,160.893279,903.1950443
0.0200,-119.1823686,160.8867593,903.1890062
0.0250,-119.1496179,160.8793815,903.1826694
0.0300,-119.1153623,160.8711046,903.176095
0.0350,-119.0798863,160.861891,903.1693495
0.0400,-119.0434933,160.8517102,903.1625031
0.0450,-119.0065025,160.8405446,903.1556279
0.0500,-118.9692474,160.8283986,903.148796
0.0550,-118.9320748,160.8153057,903.142078
0.0600,-118.8953444,160.8013302,903.135542
0.0650,-118.859429,160.7865646,903.1292542
0.0700,-118.8247145,160.7711247,903.1232784
0.0750,-118.7915986,160.7551445,903.1176764
0.0800,-118.7604814,160.7387724,903.1125065
0.0850,-118.7317538,160.7221675,903.1078221
0.0900,-118.7057875,160.7054931,903.1036712
0.0950,-118.6829262,160.6889066,903.1000962
0.1000,-118.6634738,160.6725502,903.0971341
0.1050,-118.6476842,160.6565429,903.094816
0.1100,-118.6357531,160.6409748,903.093167
0.1150,-118.6278131,160.6259009,903.0922063
0.1200,-118.6239309,160.6113385,903.0919467
0.1250,-118.6241097,160.5972702,903.0923939
0.1300,-118.6282914,160.5836523,903.093546
0.1350,-118.6363564,160.5704229,903.0953922
0.1400,-118.6481249,160.5575081,903.0979121
0.1450,-118.6633607,160.5448256,903.1010756
0.1500,-118.6817788,160.5322895,903.1048435
0.1550,-118.7134296,160.498252,903.1114418
0.1600,-118.749246,160.463839,903.1188388
0.1650,-118.7882934,160.4288183,903.1270011
0.1700,-118.8299622,160.3935983,903.1356471
0.1750,-118.8736935,160.3583026,903.1447419
0.1800,-118.9200638,160.3223134,903.1543269
0.1850,-118.9683826,160.2865879,903.164248
0.1900,-119.0176844,160.2503088,903.1744338
0.1950,-119.068421,160.2134496,903.1849345
0.2000,-119.1207509,160.1759514,903.1957768
0.2050,-119.1734615,160.1390277,903.206624
0.2100,-119.2267234,160.1027039,903.2174523
0.2150,-119.2798672,160.0665728,903.2282628
0.2200,-119.3326009,160.0318939,903.2388924
0.2250,-119.3859093,159.9975887,903.2495667
0.2300,-119.4391414,159.964422,903.2600966
0.2350,-119.4919606,159.9316738,903.270545
0.2400,-119.5429405,159.9006597,903.2805252
0.2450,-119.593599,159.8702066,903.2903673
0.2500,-119.6429679,159.8409754,903.2998647
0.2550,-119.6917089,159.813576,903.3090634
0.2600,-119.7389232,159.7870752,903.3178637
0.2650,-119.7854014,159.76236,903.3263907
0.2700,-119.8298847,159.7391084,903.3344644
0.2750,-119.8733296,159.7162981,903.342267
0.2800,-119.9150545,159.6951081,903.3496268
0.2850,-119.955258,159.6745308,903.356631
0.2900,-119.9936789,159.6536752,903.363349
0.2950,-120.0297339,159.6333678,903.3695183
0.3000,-120.063762,159.6127496,903.3753369
0.3050,-120.0962535,159.5917569,903.3808816
0.3100,-120.1266976,159.5719882,903.3859216
0.3150,-120.1541188,159.5520808,903.3904049
0.3200,-120.1793489,159.5323174,903.3945034
0.3250,-120.2022867,159.5119112,903.39814
0.3300,-120.2223242,159.492416,903.4011961
0.3350,-120.2403901,159.4733944,903.4037824
0.3400,-120.2564471,159.4546232,903.4059928
0.3450,-120.2696445,159.4346432,903.407834
0.3500,-120.2806819,159.4157449,903.4092082
0.3550,-120.2898458,159.3978259,903.4102032
0.3600,-120.2967752,159.3799011,903.4108512
0.3650,-120.3007856,159.3616408,903.4111654
0.3700,-120.301783,159.3439244,903.4110021
0.3750,-120.3003348,159.3253411,903.4105282
0.3800,-120.2962994,159.3065623,903.4097153
0.3850,-120.2896141,159.2876166,903.4085332
0.3900,-120.281057,159.268329,903.4071136
0.3950,-120.270235,159.2481128,903.4054644
0.4000,-120.2581261,159.2275804,903.4037035
0.4050,-120.2447368,159.2070868,903.4018423
0.4100,-120.2314239,159.1862948,903.4000216
0.4150,-120.2174234,159.164483,903.3982561
0.4200,-120.2027127,159.141281,903.3966069
0.4250,-120.187367,159.1167813,903.3950055
0.4300,-120.171513,159.0928937,903.3933558
0.4350,-120.1563926,159.067607,903.3920638
0.4400,-120.1415177,159.0419014,903.3909263
0.4450,-120.1276215,159.0164731,903.3900416
0.4500,-120.1159469,158.9909191,903.3895829
0.4550,-120.1058723,158.9661854,903.3894274
0.4600,-120.0985433,158.9423108,903.3897542
0.4650,-120.0929554,158.9196836,903.3903662
0.4700,-120.0912405,158.8972165,903.3917069
0.4750,-120.0918355,158.8759746,903.3934546
0.4800,-120.0957159,158.8563565,903.3957802
0.4850,-120.1017049,158.8389488,903.3984144
0.4900,-120.1121961,158.8233638,903.4017083
0.4950,-120.1257467,158.8103197,903.4054195
0.5000,-120.1426239,158.7998636,903.4095327
0.5050,-120.1630128,158.7912748,903.4141245
0.5100,-120.1862058,158.785218,903.41905
0.5150,-120.21334,158.7807417,903.4245349
0.5200,-120.2435065,158.7773296,903.4304748
0.5250,-120.2759865,158.7758278,903.4365976
0.5300,-120.3106757,158.7748036,903.4430999
0.5350,-120.3467308,158.776299,903.4495665
0.5400,-120.3853651,158.777872,903.4563728
0.5450,-120.4248903,158.7813853,903.4631552
0.5500,-120.4656007,158.7860643,903.4699351
0.5550,-120.5052701,158.7916915,903.4764827
0.5600,-120.5445792,158.7996368,903.482713
0.5650,-120.5833001,158.8085854,903.4887523
0.5700,-120.6191841,158.8189322,903.4941898
0.5750,-120.6524654,158.8314351,903.4989604
0.5800,-120.6824238,158.8453836,903.5030183
0.5850,-120.7078031,158.8614777,903.506182
0.5900,-120.7282083,158.8812619,903.5081352
0.5950,-120.7436906,158.9036729,903.5090097
0.6000,-120.7529948,158.9284078,903.5086115
0.6050,-120.7546978,158.9569928,903.5065391
0.6100,-120.7496768,158.9882193,903.5029601
0.6150,-120.7377301,159.0217986,903.497976
0.6200,-120.7176361,159.0578297,903.4912785
0.6250,-120.6893023,159.0971583,903.4828581
0.6300,-120.6533147,159.1395519,903.4727867
0.6350,-120.6094657,159.1843516,903.4611472
0.6400,-120.5584751,159.2318408,903.4479756
0.6450,-120.5005926,159.2841945,903.4330949
0.6500,-120.4363514,159.3387952,903.4168862
0.6550,-120.3652915,159.3957522,903.3991907
0.6600,-120.290123,159.4560605,903.3803631
0.6650,-120.210208,159.5199807,903.3603132
0.6700,-120.1273578,159.5866092,903.3394579
0.6750,-120.0421201,159.6561572,903.317858
0.6800,-119.9545785,159.7273456,903.2956732
0.6850,-119.8662109,159.8011583,903.2730921
0.6900,-119.7775231,159.8765681,903.2503226
0.6950,-119.6903647,159.9537925,903.2276316
0.7000,-119.6044053,160.0316502,903.205128
0.7050,-119.5215239,160.1096798,903.1830857
0.7100,-119.4413729,160.1869277,903.161664
0.7150,-119.3648757,160.2639864,903.1409276
0.7200,-119.2924083,160.3409307,903.120971
0.7250,-119.2250791,160.4163686,903.1020552
0.7300,-119.1620433,160.4902856,903.0841293
0.7350,-119.1033113,160.5629143,903.0671726
0.7400,-119.0496863,160.633236,903.0513399
0.7450,-119.0009365,160.6995617,903.036765
0.7500,-118.956869,160.7617293,903.0234723
0.7550,-118.9173064,160.8201671,903.0113529
0.7600,-118.8817481,160.8748262,903.0003655
0.7650,-118.8514408,160.9258371,902.9906042
0.7700,-118.8246275,160.972915,902.9819436
0.7750,-118.8021164,161.0159715,902.9744063
0.7800,-118.7834258,161.0546677,902.9678942
0.7850,-118.7697689,161.0869909,902.962813
0.7900,-118.7588538,161.1149413,902.9585674
0.7950,-118.7504803,161.1377012,902.9552073
0.8000,-118.7448289,161.1543961,902.9529099
0.8050,-118.7418907,161.1654441,902.9515861
0.8100,-118.7409891,161.1703868,902.9511794
0.8150,-118.7415442,161.1695681,902.9515029
0.8200,-118.744109,161.1633394,902.9526862
0.8250,-118.7476081,161.150374,902.9547095
0.8300,-118.7519518,161.130928,902.9575593
0.8350,-118.7565895,161.1037957,902.961251
0.8400,-118.7614314,161.071008,902.9656235
0.8450,-118.7647809,161.0308838,902.9706499
0.8500,-118.766515,160.9834229,902.9763044
0.8550,-118.7661997,160.929054,902.9824566
0.8600,-118.7635918,160.8670979,902.9891844
0.8650,-118.7576555,160.7979269,902.9962652
0.8700,-118.7484108,160.7217795,903.0037645
0.8750,-118.7357798,160.6375611,903.0116901
0.8800,-118.7193333,160.5463419,903.0199858
0.8850,-118.6998715,160.4493419,903.0285719
0.8900,-118.6772812,160.345877,903.0375121
0.8950,-118.6508674,160.2371504,903.046642
0.9000,-118.6219874,160.1236262,903.056105
0.9050,-118.5911845,160.0062423,903.0659044
0.9100,-118.5575954,159.8842604,903.0760101
0.9150,-118.5224269,159.7593965,903.0862969
0.9200,-118.486534,159.6324035,903.0968774
0.9250,-118.4490025,159.5028722,903.1076906
0.9300,-118.411775,159.3702304,903.1189912
0.9350,-118.3736419,159.2359269,903.1304569
0.9400,-118.3352081,159.1006718,903.1420832
0.9450,-118.2972995,158.9632352,903.1541437
0.9500,-118.2598475,158.8250532,903.1663548
0.9550,-118.2229646,158.6860053,903.1788272
0.9600,-118.1845985,158.5462643,903.1912816
0.9650,-118.1468309,158.4051449,903.2039681
0.9700,-118.106121,158.2633305,903.2163568
0.9750,-118.0648931,158.1213464,903.2287261
0.9800,-118.0221369,157.9804735,903.2407536
0.9850,-117.9772254,157.8393394,903.2524665
0.9900,-117.9300306,157.6995948,903.2636366
0.9950,-117.8797699,157.5611611,903.2741822
1.0000,-117.8273402,157.4248668,903.2840296
1.0050,-117.7721796,157.2914272,903.2929977
1.0100,-117.7140032,157.1601908,903.3011085
1.0150,-117.6524688,157.0316507,903.3082504
1.0200,-117.586828,156.9057876,903.3142365
1.0250,-117.5179743,156.7834604,903.3192091
1.0300,-117.4464543,156.6633406,903.3232567
1.0350,-117.3721084,156.5457552,903.3263292
1.0400,-117.2946134,156.4310201,903.328392
1.0450,-117.2153283,156.3196499,903.3295543
1.0500,-117.133573,156.211527,903.3297434
1.0550,-117.0508908,156.1069803,903.3291995
1.0600,-116.9673549,156.0056143,903.327983
1.0650,-116.8834573,155.9066072,903.3262479
1.0700,-116.8001531,155.8115798,903.3239616
1.0750,-116.718688,155.719802,903.3214198
1.0800,-116.6383168,155.6309638,903.3186349
1.0850,-116.5604028,155.5465031,903.3155984
1.0900,-116.4856259,155.4651556,903.3126751
1.0950,-116.4146306,155.3866618,903.3099189
1.1000,-116.3483334,155.3120309,903.3072963
1.1050,-116.2864885,155.2400129,903.3049989
1.1100,-116.2304872,155.1709259,903.3031726
1.1150,-116.1788643,155.1046756,903.301653
1.1200,-116.1324105,155.0400771,903.3006169
1.1250,-116.0918301,154.9760468,903.3003063
1.1300,-116.0564297,154.91406,903.3004269
1.1350,-116.026847,154.8537024,903.301159
1.1400,-116.0009546,154.793784,903.302388
1.1450,-115.9810983,154.7346178,903.3042712
1.1500,-115.9659182,154.6754264,903.3068007
1.1550,-115.9554289,154.6155505,903.3100478
1.1600,-115.9492446,154.5560146,903.3138193
1.1650,-115.9457194,154.4973536,903.3178742
1.1700,-115.9469313,154.438337,903.3225135
1.1750,-115.9499509,154.3811482,903.3272516
1.1800,-115.955688,154.3244993,903.3322259
1.1850,-115.9632434,154.2679957,903.3374128
1.1900,-115.972178,154.2119048,903.3427256
1.1950,-115.9818707,154.1566962,903.3480459
1.2000,-115.9919806,154.1031615,903.3532187
1.2050,-116.0014138,154.0485895,903.3583701
1.2100,-116.011557,153.994788,903.3634698
1.2150,-116.0215973,153.9426282,903.3684172
1.2200,-116.0311798,153.8908053,903.3732271
1.2250,-116.0418096,153.8407549,903.3779415
1.2300,-116.0522387,153.792245,903.3824351
1.2350,-116.0635206,153.7446377,903.3869085
1.2400,-116.075531,153.697204,903.3914221
1.2450,-116.0876888,153.6503704,903.3957842
1.2500,-116.0999959,153.6041632,903.4001202
1.2550,-116.1135188,153.5575203,903.4046502
1.2600,-116.1288782,153.5108911,903.4093885
1.2650,-116.1449808,153.4632895,903.4143303
1.2700,-116.1644437,153.4154105,903.4197734
1.2750,-116.1848951,153.3659771,903.4255654
1.2800,-116.2068603,153.3154952,903.4317101
1.2850,-116.230862,153.2643864,903.4382695
1.2900,-116.2573258,153.2109903,903.4454863
1.2950,-116.2859267,153.1564327,903.4532197
1.3000,-116.3161177,153.0998171,903.4614987
1.3050,-116.3471516,153.0401237,903.4703783
1.3100,-116.3785794,152.9793044,903.4795512
1.3150,-116.4115867,152.9158609,903.4893723
1.3200,-116.446665,152.8503017,903.49979
1.3250,-116.4820515,152.7817897,903.5107066
1.3300,-116.517653,152.7115189,903.5220442
1.3350,-116.5529726,152.6381415,903.5337956
1.3400,-116.588865,152.5629291,903.5459594
1.3450,-116.6243416,152.4850003,903.558519
1.3500,-116.6594674,152.4043552,903.5714422
1.3550,-116.693357,152.320358,903.5846707
1.3600,-116.7259604,152.233485,903.5980769
1.3650,-116.7569129,152.1444532,903.6115936
1.3700,-116.7854596,152.0519406,903.625266
1.3750,-116.8118687,151.9565251,903.6390653
1.3800,-116.8362594,151.8574457,903.6530264
1.3850,-116.8574483,151.754991,903.6669888
1.3900,-116.8749706,151.6488893,903.6809096
1.3950,-116.8894616,151.5401564,903.6947777
1.4000,-116.8991099,151.4288938,903.7084215
1.4050,-116.9034912,151.315256,903.7216605
1.4100,-116.903063,151.1979854,903.7347341
1.4150,-116.8983399,151.0779636,903.7476498
1.4200,-116.8886149,150.9558964,903.7602371
1.4250,-116.8732438,150.8325874,903.7722778
1.4300,-116.8531587,150.7074029,903.7839419
1.4350,-116.8283038,150.5803998,903.7952826
1.4400,-116.7999179,150.4515954,903.8063469
1.4450,-116.7666352,150.320753,903.8170264
1.4500,-116.7285459,150.189439,903.8271938
1.4550,-116.6879474,150.0572434,903.8371418
1.4600,-116.6431529,149.923499,903.8467659
1.4650,-116.5958174,149.7875196,903.8563242
1.4700,-116.5448648,149.650177,903.8657058
1.4750,-116.4924524,149.5110972,903.8751221
1.4800,-116.4376619,149.3713426,903.8843429
1.4850,-116.3815477,149.230545,903.8935428
1.4900,-116.3243428,149.0897045,903.9026449
1.4950,-116.2667355,148.9484318,903.9117511
1.5000,-116.2093782,148.8068207,903.9209239
1.5050,-116.1525569,148.666771,903.9299837
1.5100,-116.0965571,148.5269929,903.9391307
1.5150,-116.0416432,148.3876828,903.9483735
1.5200,-115.9880297,148.2499422,903.9575998
1.5250,-115.9356579,148.1124053,903.9669354
1.5300,-115.8845413,147.9762229,903.9762445
1.5350,-115.8353603,147.8413804,903.9856347
1.5400,-115.787319,147.7083273,903.9950074
1.5450,-115.7416203,147.5764611,904.0045675
1.5500,-115.6972752,147.4454914,904.0142049
1.5550,-115.6540664,147.3156271,904.0239005
1.5600,-115.6121738,147.1854794,904.0338464
1.5650,-115.5723416,147.0569601,904.0439586
1.5700,-115.5343248,146.9279334,904.0544037
1.5750,-115.4972178,146.799171,904.0649816
1.5800,-115.4633938,146.6696029,904.0761954
1.5850,-115.431575,146.5390779,904.0879159
1.5900,-115.4011552,146.407837,904.0999849
1.5950,-115.3729847,146.2766567,904.1124228
1.6000,-115.346573,146.1450108,904.1252354
1.6050,-115.3221945,146.0137741,904.1383682
1.6100,-115.3013072,145.8813879,904.1522315
1.6150,-115.2822307,145.7483772,904.1664469
1.6200,-115.265235,145.6149573,904.1811333
1.6250,-115.2510556,145.4812745,904.1963072
1.6300,-115.2399844,145.3463465,904.2121511
1.6350,-115.2318434,145.2116015,904.2284864
1.6400,-115.2262285,145.0749938,904.2455251
1.6450,-115.2244312,144.937421,904.2632745
1.6500,-115.225256,144.7976502,904.2817881
1.6550,-115.228913,144.6564542,904.3010271
1.6600,-115.235878,144.5129654,904.3211741
1.6650,-115.2465423,144.3670948,904.3423116
1.6700,-115.2602792,144.2190913,904.3642901
1.6750,-115.2755706,144.0683421,904.3870388
1.6800,-115.2936884,143.9157538,904.4106681
1.6850,-115.3136126,143.7609953,904.4350528
1.6900,-115.3358685,143.6034684,904.4603647
1.6950,-115.3591142,143.4428636,904.4864766
1.7000,-115.3854462,143.2789819,904.5136106
1.7050,-115.4149703,143.1129099,904.541755
1.7100,-115.4462699,142.9456271,904.5706089
1.7150,-115.4797833,142.7760658,904.600354
1.7200,-115.5158214,142.605218,904.630857
1.7250,-115.5544831,142.4334515,904.6621413
1.7300,-115.5951718,142.2600412,904.6942394
1.7350,-115.6385943,142.0863881,904.7270146
1.7400,-115.6846378,141.9121467,904.7605286
1.7450,-115.7328537,141.7380396,904.7946241
1.7500,-115.7841965,141.563971,904.8293505
1.7550,-115.8364372,141.3889417,904.8646246
1.7600,-115.8906795,141.2135521,904.9004883
1.7650,-115.9464644,141.0379304,904.9368357
1.7700,-116.0054894,140.8620369,904.9739133
1.7750,-116.0664197,140.6853637,905.0116541
1.7800,-116.1302755,140.5085789,905.0501273
1.7850,-116.1957927,140.3308679,905.0893101
1.7900,-116.2634984,140.1518308,905.1292724
1.7950,-116.3333478,139.9726437,905.169865
1.8000,-116.4045727,139.7922749,905.2112004
1.8050,-116.4771889,139.609896,905.2533608
1.8100,-116.5495966,139.4271296,905.295991
1.8150,-116.6225631,139.2433969,905.3391795
1.8200,-116.6961754,139.0587232,905.382989
1.8250,-116.7698741,138.8726257,905.4274429
1.8300,-116.8428705,138.6855705,905.4723495
1.8350,-116.9151674,138.4992148,905.5175423
1.8400,-116.9884521,138.3123479,905.563291
1.8450,-117.06075,138.1262217,905.6092408
1.8500,-117.1338212,137.9402767,905.6557256
1.8550,-117.2074017,137.7549074,905.7026043
1.8600,-117.2816738,137.5706539,905.7498241
1.8650,-117.3569728,137.3875605,905.7974479
1.8700,-117.4330381,137.2056251,905.8454799
1.8750,-117.5120265,137.0246705,905.8941656
1.8800,-117.5917909,136.8445637,905.9433259
1.8850,-117.6742267,136.6654297,905.9931481
1.8900,-117.7594224,136.4862164,906.0439332
1.8950,-117.8464116,136.3063833,906.0956027
1.9000,-117.9356202,136.1249116,906.148391
1.9050,-118.0275681,135.9411033,906.202487
1.9100,-118.1212738,135.754828,906.2578588
1.9150,-118.217362,135.5657651,906.3147784
1.9200,-118.3165199,135.3733322,906.3733774
1.9250,-118.4191331,135.1769429,906.4338105
1.9300,-118.5243207,134.9770422,906.4959613
1.9350,-118.6322696,134.7738547,906.5598614
1.9400,-118.7420342,134.5682375,906.6252975
1.9450,-118.8511052,134.3589879,906.6921941
1.9500,-118.9613187,134.1476685,906.7605403
1.9550,-119.0728628,133.933322,906.8303987
1.9600,-119.1857887,133.7172058,906.9017252
1.9650,-119.299249,133.4985445,906.9743963
1.9700,-119.4144003,133.2783195,907.0484523
1.9750,-119.5316551,133.0564396,907.1240156
1.9800,-119.6510589,132.8340187,907.2008592
1.9850,-119.7738621,132.6100871,907.2793892
1.9900,-119.8987119,132.3863687,907.3590529
1.9950,-120.0271463,132.1630992,907.4400815
2.0000,-120.157871,131.9396325,907.522416
2.0050,-120.2917152,131.7160993,907.6061813
2.0100,-120.4295061,131.4917476,907.6915931
2.0150,-120.5715924,131.2672109,907.7787094
2.0200,-120.71717,131.040629,907.867775
2.0250,-120.8674091,130.8117056,907.9590974
2.0300,-121.0219054,130.581721,908.0526031
2.0350,-121.1818213,130.3479165,908.1489442
2.0400,-121.3457907,130.1111303,908.2479708
2.0450,-121.5146991,129.871337,908.3499802
2.0500,-121.6884556,129.6280899,908.4551829
2.0550,-121.867439,129.3804996,908.5639152
2.0600,-122.0522041,129.1291599,908.6762746
2.0650,-122.244122,128.8743182,908.7925975
2.0700,-122.4412673,128.6157276,908.9125677
2.0750,-122.6446953,128.3548517,909.0363431
2.0800,-122.8540902,128.0907091,909.1638981
2.0850,-123.0706456,127.8249659,909.2951368
2.0900,-123.2945314,127.5575145,909.4302317
2.0950,-123.5255055,127.2876298,909.5691217
2.1000,-123.7656518,127.0166811,909.7117981
2.1050,-124.0147072,126.7455314,909.8580594
2.1100,-124.2744237,126.4751175,910.0079222
2.1150,-124.5452561,126.2050158,910.1615196
2.1200,-124.8263817,125.9359869,910.3186191
2.1250,-125.1181228,125.6686005,910.4790827
2.1300,-125.4206068,125.4040097,910.6428924
2.1350,-125.7332716,125.1395605,910.8100477
2.1400,-126.0547318,124.8766369,910.9802047
2.1450,-126.3854982,124.6132787,911.1536521
2.1500,-126.7232934,124.3499713,911.3298872
2.1550,-127.0684734,124.0871921,911.5088244
2.1600,-127.4207806,123.8243037,911.690434
2.1650,-127.7805636,123.5599047,911.8750296
2.1700,-128.1479808,123.2950065,912.0624124
2.1750,-128.5230252,123.0309807,912.2524941
2.1800,-128.9061898,122.7657644,912.4455185
2.1850,-129.2960743,122.5010127,912.6410777
2.1900,-129.6939585,122.2371407,912.8391656
2.1950,-130.1008363,121.9747144,913.0400354
2.2000,-130.5166201,121.7147356,913.2436171
2.2050,-130.9408848,121.457076,913.449843
2.2100,-131.3741467,121.201778,913.6586393
2.2150,-131.816905,120.9494166,913.8701224
2.2200,-132.2678563,120.6990953,914.0842698
2.2250,-132.7264689,120.4514621,914.3008053
2.2300,-133.194297,120.2057889,914.5203238
2.2350,-133.6698277,119.9606922,914.742843
2.2400,-134.153329,119.7172502,914.9682562
2.2450,-134.645386,119.4760696,915.1968487
2.2500,-135.1458567,119.2363769,915.4288709
2.2550,-135.6537918,118.9991032,915.6644023
2.2600,-136.1687379,118.7648686,915.9033382
2.2650,-136.6910423,118.5347129,916.1457149
