type,name,time_units,begin_time,frequency,count,units
signal,"Noraxon MyoMotion-Segments-Upper arm RT-Course","s",0.0000,200,5328,"deg"

time,value
0.0000,-161.7476783
0.0050,-161.7507051
0.0100,-161.7537317
0.0150,-161.7567581
0.0200,-161.759913
0.0250,-161.763167
0.0300,-161.7664963
0.0350,-161.7698862
0.0400,-161.7733332
0.0450,-161.7768454
0.0500,-161.7804437
0.0550,-161.7841604
0.0600,-161.7880383
0.0650,-161.7921273
0.0700,-161.7964816
0.0750,-161.8011548
0.0800,-161.8061965
0.0850,-161.8116495
0.0900,-161.8175466
0.0950,-161.8239098
0.1000,-161.8307486
0.1050,-161.8380617
0.1100,-161.8458363
0.1150,-161.8540487
0.1200,-161.8626637
0.1250,-161.8716355
0.1300,-161.8809094
0.1350,-161.8904233
0.1400,-161.900111
0.1450,-161.909905
0.1500,-161.9197388
0.1550,-161.9389538
0.1600,-161.9579559
0.1650,-161.9766939
0.1700,-161.9951692
0.1750,-162.0132044
0.1800,-162.0307406
0.1850,-162.0479513
0.1900,-162.064605
0.1950,-162.080576
0.2000,-162.0959417
0.2050,-162.1107292
0.2100,-162.1249654
0.2150,-162.1387598
0.2200,-162.15193
0.2250,-162.1646523
0.2300,-162.1768217
0.2350,-162.1884091
0.2400,-162.199485
0.2450,-162.2100794
0.2500,-162.2199907
0.2550,-162.2292694
0.2600,-162.2381027
0.2650,-162.2464811
0.2700,-162.2542038
0.2750,-162.2615375
0.2800,-162.2682371
0.2850,-162.2743744
0.2900,-162.2798675
0.2950,-162.2849157
0.3000,-162.2895277
0.3050,-162.293692
0.3100,-162.2974066
0.3150,-162.3007201
0.3200,-162.3037608
0.3250,-162.3064339
0.3300,-162.3088303
0.3350,-162.3109639
0.3400,-162.3128839
0.3450,-162.3146057
0.3500,-162.3160783
0.3550,-162.3174942
0.3600,-162.3186749
0.3650,-162.3198653
0.3700,-162.3210026
0.3750,-162.3220578
0.3800,-162.3229207
0.3850,-162.3237995
0.3900,-162.324453
0.3950,-162.3251091
0.4000,-162.3255974
0.4050,-162.3260552
0.4100,-162.3264305
0.4150,-162.326807
0.4200,-162.3272017
0.4250,-162.327603
0.4300,-162.3281228
0.4350,-162.3287327
0.4400,-162.3294432
0.4450,-162.3303512
0.4500,-162.3314843
0.4550,-162.3327572
0.4600,-162.3343286
0.4650,-162.3361356
0.4700,-162.3382855
0.4750,-162.3407766
0.4800,-162.3435712
0.4850,-162.3465765
0.4900,-162.3499727
0.4950,-162.3536787
0.5000,-162.3576173
0.5050,-162.3617472
0.5100,-162.365947
0.5150,-162.3701101
0.5200,-162.3743378
0.5250,-162.3784353
0.5300,-162.3823237
0.5350,-162.3860021
0.5400,-162.3893913
0.5450,-162.3922881
0.5500,-162.3949041
0.5550,-162.3971636
0.5600,-162.3989382
0.5650,-162.400301
0.5700,-162.4014045
0.5750,-162.4021096
0.5800,-162.4025003
0.5850,-162.4028209
0.5900,-162.4029935
0.5950,-162.403178
0.6000,-162.4034779
0.6050,-162.4039822
0.6100,-162.4046975
0.6150,-162.4056763
0.6200,-162.4068053
0.6250,-162.4081875
0.6300,-162.4097487
0.6350,-162.4113971
0.6400,-162.4130974
0.6450,-162.414526
0.6500,-162.4158976
0.6550,-162.4169826
0.6600,-162.417864
0.6650,-162.4185521
0.6700,-162.4192402
0.6750,-162.4199113
0.6800,-162.4206986
0.6850,-162.4215993
0.6900,-162.4227492
0.6950,-162.4240884
0.7000,-162.4256515
0.7050,-162.4274903
0.7100,-162.4295194
0.7150,-162.4318065
0.7200,-162.4340886
0.7250,-162.436422
0.7300,-162.4388164
0.7350,-162.4410236
0.7400,-162.4429702
0.7450,-162.4444527
0.7500,-162.4454305
0.7550,-162.4459502
0.7600,-162.4456261
0.7650,-162.4445109
0.7700,-162.4423654
0.7750,-162.4391842
0.7800,-162.4348734
0.7850,-162.4293163
0.7900,-162.4224343
0.7950,-162.414273
0.8000,-162.4047669
0.8050,-162.393841
0.8100,-162.3814381
0.8150,-162.3675934
0.8200,-162.352321
0.8250,-162.3357109
0.8300,-162.3178251
0.8350,-162.2988449
0.8400,-162.2787596
0.8450,-162.2578097
0.8500,-162.236011
0.8550,-162.2135648
0.8600,-162.1907083
0.8650,-162.1674663
0.8700,-162.1440384
0.8750,-162.120682
0.8800,-162.097571
0.8850,-162.074806
0.8900,-162.0526284
0.8950,-162.0312305
0.9000,-162.0105104
0.9050,-161.9905642
0.9100,-161.9715669
0.9150,-161.9535023
0.9200,-161.9366584
0.9250,-161.9209339
0.9300,-161.9064606
0.9350,-161.8933963
0.9400,-161.8817403
0.9450,-161.8716523
0.9500,-161.8629835
0.9550,-161.8559306
0.9600,-161.8503934
0.9650,-161.8461902
0.9700,-161.8433868
0.9750,-161.8418687
0.9800,-161.8415916
0.9850,-161.8424367
0.9900,-161.8444451
0.9950,-161.8475056
1.0000,-161.8515663
1.0050,-161.8566412
1.0100,-161.8627898
1.0150,-161.8697775
1.0200,-161.877763
1.0250,-161.8866529
1.0300,-161.8963909
1.0350,-161.906967
1.0400,-161.9184272
1.0450,-161.9306156
1.0500,-161.9434518
1.0550,-161.9568351
1.0600,-161.9708092
1.0650,-161.9852884
1.0700,-162.0002365
1.0750,-162.0155074
1.0800,-162.0309208
1.0850,-162.0466698
1.0900,-162.06266
1.0950,-162.0787838
1.1000,-162.0949493
1.1050,-162.1113218
1.1100,-162.127901
1.1150,-162.1446983
1.1200,-162.1616813
1.1250,-162.1786519
1.1300,-162.1956413
1.1350,-162.2124009
1.1400,-162.2289798
1.1450,-162.2452867
1.1500,-162.2611507
1.1550,-162.2764542
1.1600,-162.2910603
1.1650,-162.3050433
1.1700,-162.3181242
1.1750,-162.3303939
1.1800,-162.34178
1.1850,-162.3522999
1.1900,-162.3618511
1.1950,-162.3703174
1.2000,-162.3778099
1.2050,-162.3845671
1.2100,-162.3905485
1.2150,-162.3957203
1.2200,-162.3999937
1.2250,-162.4036619
1.2300,-162.4065568
1.2350,-162.4085999
1.2400,-162.4099029
1.2450,-162.4106428
1.2500,-162.4108736
1.2550,-162.4104562
1.2600,-162.4094715
1.2650,-162.4079588
1.2700,-162.4059887
1.2750,-162.4034745
1.2800,-162.4005476
1.2850,-162.3971555
1.2900,-162.3932747
1.2950,-162.388994
1.3000,-162.3844859
1.3050,-162.3796552
1.3100,-162.3745801
1.3150,-162.3692832
1.3200,-162.363875
1.3250,-162.3582443
1.3300,-162.3525453
1.3350,-162.3467789
1.3400,-162.3408756
1.3450,-162.3348836
1.3500,-162.3287047
1.3550,-162.3223732
1.3600,-162.3159449
1.3650,-162.309369
1.3700,-162.3026055
1.3750,-162.2955707
1.3800,-162.2885709
1.3850,-162.2812294
1.3900,-162.2735115
1.3950,-162.2656159
1.4000,-162.2574166
1.4050,-162.2488313
1.4100,-162.2398892
1.4150,-162.2303889
1.4200,-162.2204042
1.4250,-162.2099944
1.4300,-162.1991923
1.4350,-162.1880058
1.4400,-162.1763915
1.4450,-162.1644725
1.4500,-162.1522438
1.4550,-162.1397065
1.4600,-162.126898
1.4650,-162.1138373
1.4700,-162.1007086
1.4750,-162.0874102
1.4800,-162.0739515
1.4850,-162.0602566
1.4900,-162.0465642
1.4950,-162.0328356
1.5000,-162.019152
1.5050,-162.0053561
1.5100,-161.9915247
1.5150,-161.977706
1.5200,-161.9639143
1.5250,-161.950021
1.5300,-161.9362266
1.5350,-161.9224926
1.5400,-161.9088954
1.5450,-161.8954046
1.5500,-161.8818846
1.5550,-161.8684751
1.5600,-161.8552759
1.5650,-161.8424513
1.5700,-161.8299118
1.5750,-161.8177755
1.5800,-161.8060699
1.5850,-161.7948784
1.5900,-161.7842911
1.5950,-161.7743401
1.6000,-161.7650267
1.6050,-161.7562288
1.6100,-161.7478867
1.6150,-161.7401555
1.6200,-161.7328903
1.6250,-161.7263507
1.6300,-161.72017
1.6350,-161.7144229
1.6400,-161.7090535
1.6450,-161.7040308
1.6500,-161.6993941
1.6550,-161.6949184
1.6600,-161.6906949
1.6650,-161.6865701
1.6700,-161.6825865
1.6750,-161.6787176
1.6800,-161.6747513
1.6850,-161.6708616
1.6900,-161.6670688
1.6950,-161.6631833
1.7000,-161.6594605
1.7050,-161.6558054
1.7100,-161.6522689
1.7150,-161.648952
1.7200,-161.645722
1.7250,-161.6426199
1.7300,-161.6395883
1.7350,-161.6366499
1.7400,-161.6336582
1.7450,-161.6305062
1.7500,-161.62729
1.7550,-161.623947
1.7600,-161.6204718
1.7650,-161.6167832
1.7700,-161.6129596
1.7750,-161.6087633
1.7800,-161.6045339
1.7850,-161.6001741
1.7900,-161.5956457
1.7950,-161.5910068
1.8000,-161.5863408
1.8050,-161.5816815
1.8100,-161.5769446
1.8150,-161.5723553
1.8200,-161.5679306
1.8250,-161.5637206
1.8300,-161.5596058
1.8350,-161.5556655
1.8400,-161.551896
1.8450,-161.5484329
1.8500,-161.5452432
1.8550,-161.5423405
1.8600,-161.5397818
1.8650,-161.5374664
1.8700,-161.5354421
1.8750,-161.5337703
1.8800,-161.53221
1.8850,-161.5309826
1.8900,-161.5301615
1.8950,-161.5295553
1.9000,-161.5292329
1.9050,-161.529433
1.9100,-161.5299073
1.9150,-161.5307907
1.9200,-161.5320108
1.9250,-161.5334975
1.9300,-161.5353007
1.9350,-161.5375785
1.9400,-161.5401588
1.9450,-161.5429964
1.9500,-161.5461137
1.9550,-161.5496701
1.9600,-161.5533965
1.9650,-161.5573781
1.9700,-161.5615424
1.9750,-161.5660429
1.9800,-161.5707559
1.9850,-161.5756111
1.9900,-161.5806355
1.9950,-161.5858355
2.0000,-161.5912169
2.0050,-161.5967996
2.0100,-161.6024347
2.0150,-161.6082522
2.0200,-161.6143375
2.0250,-161.6207282
2.0300,-161.6272975
2.0350,-161.6340889
2.0400,-161.6412797
2.0450,-161.6486914
2.0500,-161.6563478
2.0550,-161.664417
2.0600,-161.6727205
2.0650,-161.6813335
2.0700,-161.6900545
2.0750,-161.6991777
2.0800,-161.7084577
2.0850,-161.7179485
2.0900,-161.727664
2.0950,-161.7375135
2.1000,-161.7474613
2.1050,-161.7574356
2.1100,-161.7675891
2.1150,-161.7776762
2.1200,-161.7878129
2.1250,-161.7978165
2.1300,-161.8078983
2.1350,-161.8179504
2.1400,-161.8280861
2.1450,-161.8381317
2.1500,-161.8482655
2.1550,-161.8584759
2.1600,-161.8685393
2.1650,-161.8785684
2.1700,-161.8885017
2.1750,-161.8984275
2.1800,-161.9084231
2.1850,-161.918323
2.1900,-161.927993
2.1950,-161.9376095
2.2000,-161.9471052
2.2050,-161.9563868
2.2100,-161.9656415
2.2150,-161.9746734
2.2200,-161.9836747
2.2250,-161.9924632
2.2300,-162.0011484
2.2350,-162.0094834
2.2400,-162.0176143
2.2450,-162.0256674
2.2500,-162.0334511
2.2550,-162.041003
2.2600,-162.0482458
2.2650,-162.0553134
2.2700,-162.0620613
2.2750,-162.0684309
2.2800,-162.0746214
2.2850,-162.0806275
2.2900,-162.0864507
2.2950,-162.0921067
2.3000,-162.0975257
2.3050,-162.1026982
2.3100,-162.1077344
2.3150,-162.1125436
2.3200,-162.1170922
2.3250,-162.121435
2.3300,-162.1255535
2.3350,-162.1295638
2.3400,-162.1333644
2.3450,-162.1370981
2.3500,-162.1407002
2.3550,-162.1440288
2.3600,-162.1473712
2.3650,-162.1505685
2.3700,-162.1536945
2.3750,-162.1567515
2.3800,-162.1597491
2.3850,-162.1626736
2.3900,-162.1655622
2.3950,-162.1684858
2.4000,-162.1712255
2.4050,-162.173928
2.4100,-162.1765381
2.4150,-162.1790269
2.4200,-162.1813704
2.4250,-162.1837183
2.4300,-162.1859546
2.4350,-162.1881623
2.4400,-162.1900755
2.4450,-162.1918025
2.4500,-162.1932377
2.4550,-162.19447
2.4600,-162.1955334
2.4650,-162.1963545
2.4700,-162.197071
2.4750,-162.1973877
2.4800,-162.1976137
2.4850,-162.1976399
2.4900,-162.1974869
2.4950,-162.1971422
2.5000,-162.1965803
2.5050,-162.1959737
2.5100,-162.1952344
2.5150,-162.1945209
2.5200,-162.1937348
2.5250,-162.1929475
2.5300,-162.1922206
2.5350,-162.1916366
2.5400,-162.1910801
2.5450,-162.1904081
2.5500,-162.1898035
2.5550,-162.1891325
2.5600,-162.1883888
2.5650,-162.1875491
2.5700,-162.1867293
2.5750,-162.1857742
2.5800,-162.1846704
2.5850,-162.1832709
2.5900,-162.1816914
2.5950,-162.1798611
2.6000,-162.177766
2.6050,-162.1755495
2.6100,-162.173093
2.6150,-162.1705561
2.6200,-162.1679278
2.6250,-162.1650364
2.6300,-162.1621041
2.6350,-162.1590787
2.6400,-162.155912
2.6450,-162.1525942
2.6500,-162.1491997
2.6550,-162.1457256
2.6600,-162.1421391
2.6650,-162.1383197
2.6700,-162.1344456
2.6750,-162.1302916
2.6800,-162.1259777
2.6850,-162.1215188
2.6900,-162.1167281
2.6950,-162.1118711
2.7000,-162.1068791
2.7050,-162.1017192
2.7100,-162.0964945
2.7150,-162.0912319
2.7200,-162.085762
2.7250,-162.0802246
2.7300,-162.0745562
2.7350,-162.0688961
2.7400,-162.0633123
2.7450,-162.0577496
2.7500,-162.0523375
2.7550,-162.0468743
2.7600,-162.0415149
2.7650,-162.0360523
2.7700,-162.0305058
2.7750,-162.0250852
2.7800,-162.0194564
2.7850,-162.0136995
2.7900,-162.0077954
2.7950,-162.0018253
2.8000,-161.9957103
2.8050,-161.9893895
2.8100,-161.9830048
2.8150,-161.9765443
2.8200,-161.9699136
2.8250,-161.9632055
2.8300,-161.9564465
2.8350,-161.9495989
2.8400,-161.9428249
2.8450,-161.9361101
2.8500,-161.9295415
2.8550,-161.9231559
2.8600,-161.9170323
2.8650,-161.9110958
2.8700,-161.9054261
2.8750,-161.9001094
2.8800,-161.895045
2.8850,-161.8904917
2.8900,-161.8863424
2.8950,-161.8825331
2.9000,-161.8792094
2.9050,-161.8760799
2.9100,-161.8731966
2.9150,-161.8706244
2.9200,-161.8681164
2.9250,-161.8658312
2.9300,-161.8637046
2.9350,-161.8617787
2.9400,-161.8600292
2.9450,-161.8585007
2.9500,-161.8572441
2.9550,-161.8561206
2.9600,-161.8552256
2.9650,-161.8545927
2.9700,-161.8542022
2.9750,-161.8540778
2.9800,-161.8542053
2.9850,-161.8545461
2.9900,-161.8550222
2.9950,-161.8555427
3.0000,-161.8562612
3.0050,-161.8570286
3.0100,-161.8577096
3.0150,-161.858393
3.0200,-161.8590108
3.0250,-161.8594703
3.0300,-161.8598715
3.0350,-161.8599999
3.0400,-161.8598398
3.0450,-161.8595086
3.0500,-161.8590167
3.0550,-161.8583433
3.0600,-161.8574576
3.0650,-161.8566473
3.0700,-161.8557527
3.0750,-161.8548321
3.0800,-161.8539162
3.0850,-161.8531023
3.0900,-161.8524611
3.0950,-161.8518991
3.1000,-161.8515584
3.1050,-161.8514685
3.1100,-161.8514821
3.1150,-161.8515108
3.1200,-161.8518345
3.1250,-161.8522568
3.1300,-161.8526527
3.1350,-161.8529999
3.1400,-161.8532726
3.1450,-161.8534988
3.1500,-161.8536574
3.1550,-161.8537365
3.1600,-161.853737
3.1650,-161.8536341
3.1700,-161.85326
3.1750,-161.8528744
3.1800,-161.8523619
3.1850,-161.8517375
3.1900,-161.8509637
3.1950,-161.8502336
3.2000,-161.849447
3.2050,-161.848793
3.2100,-161.8482962
3.2150,-161.847796
3.2200,-161.8474078
3.2250,-161.8471329
3.2300,-161.8469679
3.2350,-161.8467728
3.2400,-161.8466085
3.2450,-161.846404
3.2500,-161.8460646
3.2550,-161.8458704
3.2600,-161.8455579
3.2650,-161.845183
3.2700,-161.8445497
3.2750,-161.8436656
3.2800,-161.8424215
3.2850,-161.8407646
3.2900,-161.8388566
3.2950,-161.8365868
3.3000,-161.8339636
3.3050,-161.8309731
3.3100,-161.8277994
3.3150,-161.8243636
3.3200,-161.8208693
3.3250,-161.8172484
3.3300,-161.8133317
3.3350,-161.8093921
3.3400,-161.8052625
3.3450,-161.8009276
3.3500,-161.7963955
3.3550,-161.791803
3.3600,-161.7869814
3.3650,-161.7819728
3.3700,-161.776913
3.3750,-161.7715553
3.3800,-161.7660131
3.3850,-161.7601204
3.3900,-161.7538418
3.3950,-161.7472585
3.4000,-161.7401442
3.4050,-161.7326725
3.4100,-161.7248963
3.4150,-161.7167778
3.4200,-161.7083671
3.4250,-161.6997799
3.4300,-161.6909053
3.4350,-161.6819295
3.4400,-161.6728464
3.4450,-161.6635954
3.4500,-161.6541813
3.4550,-161.6443775
3.4600,-161.6342697
3.4650,-161.6238441
3.4700,-161.6131365
3.4750,-161.6019242
3.4800,-161.5902734
3.4850,-161.578114
3.4900,-161.5655126
3.4950,-161.5523116
3.5000,-161.5385075
3.5050,-161.524033
3.5100,-161.5087898
3.5150,-161.4927268
3.5200,-161.4757546
3.5250,-161.4577374
3.5300,-161.4384026
3.5350,-161.4177376
3.5400,-161.3956773
3.5450,-161.3721781
3.5500,-161.3470424
3.5550,-161.32025
3.5600,-161.2917504
3.5650,-161.2615628
3.5700,-161.2298587
3.5750,-161.1967237
3.5800,-161.1620163
3.5850,-161.1259793
3.5900,-161.088637
3.5950,-161.0500064
3.6000,-161.0103986
3.6050,-160.9700806
3.6100,-160.9291136
3.6150,-160.8879294
3.6200,-160.8466415
3.6250,-160.8055192
3.6300,-160.7648607
3.6350,-160.7248764
3.6400,-160.6858771
3.6450,-160.6479653
3.6500,-160.611143
3.6550,-160.5755011
3.6600,-160.5410313
3.6650,-160.5078721
3.6700,-160.4758321
3.6750,-160.44524
3.6800,-160.4159092
3.6850,-160.3879419
3.6900,-160.3611662
3.6950,-160.335537
3.7000,-160.3111084
3.7050,-160.2876854
3.7100,-160.2652336
3.7150,-160.2436891
3.7200,-160.2227243
3.7250,-160.2023492
3.7300,-160.1826138
3.7350,-160.1633012
3.7400,-160.1445275
3.7450,-160.1262371
3.7500,-160.1083621
3.7550,-160.0911629
3.7600,-160.0746109
3.7650,-160.058571
3.7700,-160.0432133
3.7750,-160.0285786
3.7800,-160.0146886
3.7850,-160.0015722
3.7900,-159.9891983
3.7950,-159.9776274
3.8000,-159.9667189
3.8050,-159.9564085
3.8100,-159.9468277
3.8150,-159.9378142
3.8200,-159.9295462
3.8250,-159.9220814
3.8300,-159.9154136
3.8350,-159.9095975
3.8400,-159.904551
3.8450,-159.9003146
3.8500,-159.8969177
3.8550,-159.8940805
3.8600,-159.8919429
3.8650,-159.8906258
3.8700,-159.8898924
3.8750,-159.88979
3.8800,-159.8905626
3.8850,-159.8921691
3.8900,-159.8947001
3.8950,-159.8981658
3.9000,-159.9024339
3.9050,-159.9075728
3.9100,-159.9133801
3.9150,-159.9198451
3.9200,-159.9268691
3.9250,-159.9344791
3.9300,-159.9424994
3.9350,-159.9507683
3.9400,-159.9592675
3.9450,-159.9679315
3.9500,-159.9766251
3.9550,-159.9852814
3.9600,-159.9940634
3.9650,-160.0027841
3.9700,-160.011428
3.9750,-160.0197014
3.9800,-160.0277226
3.9850,-160.0353977
3.9900,-160.0429873
3.9950,-160.0501756
4.0000,-160.05695
4.0050,-160.0633653
4.0100,-160.0691952
4.0150,-160.0745441
4.0200,-160.0793653
4.0250,-160.0837518
4.0300,-160.0875283
4.0350,-160.0908551
4.0400,-160.0935272
4.0450,-160.0954795
4.0500,-160.096773
4.0550,-160.0973449
4.0600,-160.0972091
4.0650,-160.0966329
4.0700,-160.0955861
4.0750,-160.0939538
4.0800,-160.0919562
4.0850,-160.0895441
4.0900,-160.0869166
4.0950,-160.083957
4.1000,-160.0809376
4.1050,-160.0779951
4.1100,-160.075068
4.1150,-160.072387
4.1200,-160.0699989
4.1250,-160.0677455
4.1300,-160.0659523
4.1350,-160.064448
4.1400,-160.063363
4.1450,-160.0626297
4.1500,-160.062233
4.1550,-160.0622376
4.1600,-160.0625142
4.1650,-160.0629584
4.1700,-160.0638122
4.1750,-160.0648614
4.1800,-160.0660787
4.1850,-160.0676033
4.1900,-160.0695007
4.1950,-160.0718095
4.2000,-160.074817
4.2050,-160.0783251
4.2100,-160.0824961
4.2150,-160.0874211
4.2200,-160.09318
4.2250,-160.0997798
4.2300,-160.1074509
4.2350,-160.1160497
4.2400,-160.1255404
4.2450,-160.1358801
4.2500,-160.1470245
4.2550,-160.1589084
4.2600,-160.1713954
4.2650,-160.1841908
4.2700,-160.1973345
4.2750,-160.2108624
4.2800,-160.2246616
4.2850,-160.2386723
4.2900,-160.2525428
4.2950,-160.2663562
4.3000,-160.2802156
4.3050,-160.293834
4.3100,-160.3074049
4.3150,-160.320827
4.3200,-160.3342585
4.3250,-160.3476927
4.3300,-160.3614121
4.3350,-160.375278
4.3400,-160.3894617
4.3450,-160.4040484
4.3500,-160.4190518
4.3550,-160.4342829
4.3600,-160.4498073
4.3650,-160.465439
4.3700,-160.480988
4.3750,-160.4966318
4.3800,-160.5121666
4.3850,-160.5276355
4.3900,-160.5429021
4.3950,-160.5581301
4.4000,-160.5730068
4.4050,-160.5875704
4.4100,-160.6018812
4.4150,-160.6158649
4.4200,-160.6293343
4.4250,-160.6425036
4.4300,-160.655116
4.4350,-160.6672614
4.4400,-160.6787347
4.4450,-160.6895091
4.4500,-160.699743
4.4550,-160.7095976
4.4600,-160.7189902
4.4650,-160.7277668
4.4700,-160.735929
4.4750,-160.7436152
4.4800,-160.7507919
4.4850,-160.7573117
4.4900,-160.7630249
4.4950,-160.7679603
4.5000,-160.7718588
4.5050,-160.7748953
4.5100,-160.7770713
4.5150,-160.7782126
4.5200,-160.7784186
4.5250,-160.7776971
4.5300,-160.7760359
4.5350,-160.773509
4.5400,-160.7702256
4.5450,-160.7660399
4.5500,-160.7611363
4.5550,-160.7554988
4.5600,-160.7489779
4.5650,-160.741917
4.5700,-160.7342355
4.5750,-160.7258771
4.5800,-160.7167945
4.5850,-160.7067345
4.5900,-160.6959058
4.5950,-160.6843952
4.6000,-160.6722017
4.6050,-160.6594226
4.6100,-160.6459849
4.6150,-160.6319875
4.6200,-160.617575
4.6250,-160.6025455
4.6300,-160.5869173
4.6350,-160.5707868
4.6400,-160.5539956
4.6450,-160.5366924
4.6500,-160.5186861
4.6550,-160.5001329
4.6600,-160.4807552
4.6650,-160.4608023
4.6700,-160.4403222
4.6750,-160.4192404
4.6800,-160.3975659
4.6850,-160.3753355
4.6900,-160.3525526
4.6950,-160.3292232
4.7000,-160.3057773
4.7050,-160.2821996
4.7100,-160.2585057
4.7150,-160.2347601
4.7200,-160.2111712
4.7250,-160.1875264
4.7300,-160.164174
4.7350,-160.1412619
4.7400,-160.1189917
4.7450,-160.0973937
4.7500,-160.0765405
4.7550,-160.0563325
4.7600,-160.03706
4.7650,-160.0187899
4.7700,-160.0014569
4.7750,-159.984983
4.7800,-159.9693713
4.7850,-159.9546004
4.7900,-159.9407155
4.7950,-159.9277599
4.8000,-159.9158751
4.8050,-159.9050403
4.8100,-159.8953204
4.8150,-159.8868908
4.8200,-159.8796871
4.8250,-159.8737688
4.8300,-159.8691686
4.8350,-159.8660148
4.8400,-159.864361
4.8450,-159.8643373
4.8500,-159.8658824
4.8550,-159.8690124
4.8600,-159.873791
4.8650,-159.8798707
4.8700,-159.8873712
4.8750,-159.89614
4.8800,-159.9061839
4.8850,-159.917574
4.8900,-159.9301281
4.8950,-159.9435606
4.9000,-159.9576966
4.9050,-159.9724398
4.9100,-159.9876092
4.9150,-160.0028285
4.9200,-160.0178132
4.9250,-160.0326676
4.9300,-160.0473026
4.9350,-160.0615892
4.9400,-160.0757452
4.9450,-160.0896799
4.9500,-160.1035515
4.9550,-160.1174774
4.9600,-160.1317076
4.9650,-160.1461341
4.9700,-160.1609252
4.9750,-160.1761229
4.9800,-160.1917324
4.9850,-160.2079218
