type,name,time_units,begin_time,frequency,count,units
signal_4d,"Noraxon MyoMotion-Segments-Upper arm RT-Orientation","s",0.0000,200,5328,""

time,x,y,z,w
0.0000,0.6897813043,-0.08131835179,-0.1437863695,0.7049216679
0.0050,0.6898023129,-0.08127982996,-0.1437872976,0.7049053635
0.0100,0.6898233199,-0.08124130796,-0.1437882254,0.7048890575
0.0150,0.6898443254,-0.08120278579,-0.1437891529,0.70487275
0.0200,0.6898681233,-0.08116227412,-0.1437903437,0.7048538819
0.0250,0.6898947968,-0.08112017516,-0.1437917361,0.7048323369
0.0300,0.6899243984,-0.08107689631,-0.1437931989,0.7048080429
0.0350,0.6899569433,-0.08103282279,-0.1437945139,0.7047809843
0.0400,0.6899924015,-0.08098829667,-0.1437953745,0.7047512128
0.0450,0.6900306866,-0.08094360175,-0.1437953914,0.7047188591
0.0500,0.6900716501,-0.08089895123,-0.143794101,0.7046841377
0.0550,0.6901150867,-0.0808544788,-0.1437909805,0.7046473403
0.0600,0.6901607494,-0.08081023502,-0.1437854711,0.7046088165
0.0650,0.6902083679,-0.08076619031,-0.1437770069,0.7045689488
0.0700,0.6902576705,-0.0807222468,-0.1437650451,0.704528125
0.0750,0.690308401,-0.08067825586,-0.1437490973,0.7044867122
0.0800,0.690360329,-0.08063403509,-0.1437287578,0.7044450388
0.0850,0.6904132537,-0.08058938582,-0.1437037226,0.7044033859
0.0900,0.690467,-0.08054411519,-0.1436737971,0.7043619861
0.0950,0.6905214089,-0.08049805975,-0.143638895,0.7043210306
0.1000,0.6905763279,-0.08045110281,-0.1435990281,0.7042806788
0.1050,0.6906316066,-0.08040318419,-0.1435542895,0.7042410652
0.1100,0.690687095,-0.08035430983,-0.1435048389,0.7042023025
0.1150,0.6907426347,-0.08030455943,-0.1434508998,0.7041644905
0.1200,0.6907980451,-0.08025408542,-0.1433927618,0.7041277288
0.1250,0.6908531186,-0.08020310673,-0.1433307777,0.7040921235
0.1300,0.690907624,-0.08015189886,-0.1432653566,0.7040577859
0.1350,0.6909613119,-0.08010077414,-0.1431969584,0.7040248309
0.1400,0.6910139182,-0.08005005381,-0.1431260871,0.7039933785
0.1450,0.6910651722,-0.08000004628,-0.1430532759,0.7039635507
0.1500,0.6911148121,-0.07995103934,-0.1429790668,0.7039354617
0.1550,0.6912259424,-0.0798499321,-0.1428384855,0.7038663595
0.1600,0.6913358821,-0.07975233319,-0.1426969948,0.7037981466
0.1650,0.6914434592,-0.07965725273,-0.1425563298,0.703731737
0.1700,0.6915491672,-0.07956533246,-0.1424157782,0.7036667203
0.1750,0.6916527793,-0.07947755715,-0.1422765288,0.7036029705
0.1800,0.6917538765,-0.07939270416,-0.1421405907,0.7035406352
0.1850,0.6918530583,-0.07931082017,-0.1420057421,0.7034795724
0.1900,0.6919502957,-0.07923262275,-0.1418740939,0.7034193068
0.1950,0.6920458467,-0.07915837843,-0.1417468963,0.7033593068
0.2000,0.6921392199,-0.07908757421,-0.1416237649,0.7033001956
0.2050,0.6922302465,-0.07902020156,-0.1415043865,0.7032422073
0.2100,0.6923187066,-0.078955817,-0.1413889054,0.7031855835
0.2150,0.6924041419,-0.07889381405,-0.141276634,0.7031309857
0.2200,0.6924868212,-0.07883554165,-0.1411684083,0.7030778337
0.2250,0.6925672893,-0.07877942693,-0.1410636346,0.7030258904
0.2300,0.6926454846,-0.07872623998,-0.1409628191,0.7029750319
0.2350,0.6927207566,-0.07867523297,-0.1408671331,0.7029257513
0.2400,0.6927948374,-0.07862814785,-0.1407737982,0.702876707
0.2450,0.6928670845,-0.07858211474,-0.1406854329,0.7028283314
0.2500,0.6929377556,-0.07854061143,-0.1406009309,0.7027802057
0.2550,0.6930057965,-0.07850209865,-0.1405213285,0.7027333369
0.2600,0.6930726281,-0.07846563794,-0.1404451824,0.7026867201
0.2650,0.6931380568,-0.07843231548,-0.1403715127,0.7026406226
0.2700,0.6932016926,-0.07840277134,-0.1403021578,0.7025949924
0.2750,0.6932639218,-0.07837527071,-0.140235591,0.7025499488
0.2800,0.6933240099,-0.07835093857,-0.1401737247,0.7025057115
0.2850,0.6933828754,-0.07833036833,-0.1401150022,0.7024616201
0.2900,0.6934403368,-0.07831317467,-0.1400608366,0.7024176165
0.2950,0.6934964412,-0.07829778532,-0.1400103852,0.7023739993
0.3000,0.6935519889,-0.07828322132,-0.1399644804,0.7023299226
0.3050,0.6936057194,-0.07827097519,-0.1399218349,0.7022867224
0.3100,0.6936593209,-0.07826071495,-0.1398826843,0.7022427228
0.3150,0.6937114882,-0.07825173097,-0.1398472564,0.7021992471
0.3200,0.6937633438,-0.0782431267,-0.1398148065,0.7021554356
0.3250,0.6938150216,-0.07823570562,-0.1397856679,0.7021110006
0.3300,0.693866365,-0.07822877339,-0.1397594463,0.7020662531
0.3350,0.6939180777,-0.07822161025,-0.1397366503,0.7020204767
0.3400,0.6939692355,-0.0782158594,-0.1397150714,0.7019748417
0.3450,0.6940202544,-0.07821008398,-0.139695955,0.7019288492
0.3500,0.6940717664,-0.07820593644,-0.1396781904,0.7018819116
0.3550,0.6941234193,-0.07820147488,-0.1396614299,0.7018346622
0.3600,0.694175628,-0.07819904998,-0.1396454276,0.7017864779
0.3650,0.6942279985,-0.07819740637,-0.1396284966,0.7017382238
0.3700,0.6942800647,-0.07819687549,-0.1396111024,0.7016902311
0.3750,0.69433338,-0.07819805757,-0.1395928717,0.7016409704
0.3800,0.6943864532,-0.07820212765,-0.1395740693,0.7015917332
0.3850,0.6944401204,-0.07820694678,-0.1395542621,0.7015420162
0.3900,0.6944940641,-0.07821403485,-0.1395348815,0.7014916796
0.3950,0.6945488782,-0.07822327819,-0.1395132052,0.7014406889
0.4000,0.6946033419,-0.07823339244,-0.1394927243,0.7013897017
0.4050,0.6946571475,-0.07824495732,-0.1394711918,0.7013394048
0.4100,0.6947113379,-0.07825887735,-0.1394482411,0.7012887373
0.4150,0.6947649131,-0.07827220803,-0.1394259246,0.7012386103
0.4200,0.6948187534,-0.0782859955,-0.1394029009,0.7011883014
0.4250,0.6948719648,-0.07829919579,-0.1393804453,0.7011385597
0.4300,0.6949242954,-0.07831204573,-0.1393569647,0.7010899255
0.4350,0.6949764198,-0.07832403458,-0.1393332745,0.7010416252
0.4400,0.6950268914,-0.07833482906,-0.139309698,0.7009950662
0.4450,0.6950761703,-0.07834467059,-0.1392847694,0.7009500575
0.4500,0.6951245673,-0.07835240431,-0.1392592993,0.7009062592
0.4550,0.6951715665,-0.07835776032,-0.1392346462,0.7008639439
0.4600,0.6952155848,-0.07835925201,-0.1392105019,0.70082491
0.4650,0.6952578387,-0.07835861156,-0.1391857816,0.7007879736
0.4700,0.6952983799,-0.07835513034,-0.1391598874,0.700753282
0.4750,0.6953360458,-0.07834745556,-0.1391343069,0.7007218452
0.4800,0.69537197,-0.07833766324,-0.1391073006,0.7006926521
0.4850,0.6954056403,-0.07832606038,-0.1390797329,0.7006660057
0.4900,0.6954372447,-0.07831083643,-0.1390512238,0.7006419976
0.4950,0.6954659064,-0.07829357608,-0.1390212237,0.7006214301
0.5000,0.695492305,-0.07827401894,-0.1389908878,0.700603429
0.5050,0.6955158306,-0.07825249089,-0.1389604382,0.7005885195
0.5100,0.6955369842,-0.07823002548,-0.1389302701,0.7005760107
0.5150,0.6955554128,-0.07820703389,-0.1389012947,0.7005660268
0.5200,0.695573118,-0.07818204902,-0.1388736115,0.7005567249
0.5250,0.6955890302,-0.07815683168,-0.1388478947,0.7005488369
0.5300,0.6956022498,-0.07813248386,-0.1388240587,0.7005431505
0.5350,0.6956147686,-0.07810889423,-0.1388020742,0.7005377067
0.5400,0.6956252025,-0.0780851807,-0.1387839139,0.7005335877
0.5450,0.6956341854,-0.07806423823,-0.1387690703,0.7005299422
0.5500,0.6956419226,-0.07804397755,-0.1387570647,0.7005268946
0.5550,0.6956480098,-0.07802466926,-0.1387485779,0.7005246816
0.5600,0.6956523342,-0.07800708597,-0.1387444042,0.7005231722
0.5650,0.6956567136,-0.07799129822,-0.1387434382,0.7005207724
0.5700,0.6956588623,-0.07797534697,-0.1387459812,0.7005199107
0.5750,0.6956604324,-0.07796126224,-0.1387515438,0.7005188174
0.5800,0.6956604471,-0.0779484691,-0.1387597592,0.7005185991
0.5850,0.6956599425,-0.07793520584,-0.1387693512,0.7005186759
0.5900,0.6956581585,-0.07792215169,-0.1387806383,0.7005196637
0.5950,0.6956543141,-0.07790710781,-0.1387939631,0.7005225147
0.6000,0.6956486857,-0.07789130197,-0.1388067897,0.7005273201
0.6050,0.6956424159,-0.07787360607,-0.1388190872,0.7005330768
0.6100,0.6956342756,-0.0778532995,-0.1388316032,0.7005409369
0.6150,0.6956243763,-0.07783012612,-0.1388439488,0.700550895
0.6200,0.695612471,-0.07780595427,-0.1388556279,0.7005630866
0.6250,0.6955987754,-0.0777790359,-0.1388671432,0.7005773918
0.6300,0.6955835357,-0.07775132657,-0.1388773955,0.7005935663
0.6350,0.6955674971,-0.07772402175,-0.1388862343,0.7006107673
0.6400,0.6955514789,-0.07769665673,-0.1388944987,0.7006280668
0.6450,0.6955353706,-0.07767273213,-0.138902598,0.700645105
0.6500,0.6955182231,-0.07765074886,-0.1389095042,0.7006631945
0.6550,0.6955007651,-0.07763343976,-0.1389151919,0.7006813144
0.6600,0.6954823936,-0.07761921244,-0.1389203083,0.7007001113
0.6650,0.6954632636,-0.07760875645,-0.1389240175,0.7007195211
0.6700,0.6954431333,-0.07760061515,-0.1389254514,0.7007401172
0.6750,0.6954207288,-0.07759477148,-0.1389249362,0.7007631008
0.6800,0.6953968354,-0.07759022623,-0.1389217957,0.7007879371
0.6850,0.6953701591,-0.07758688977,-0.1389162567,0.7008158746
0.6900,0.6953423029,-0.07758430764,-0.1389069931,0.7008456352
0.6950,0.6953119494,-0.07758172773,-0.1388956062,0.7008782912
0.7000,0.6952797942,-0.07757957962,-0.1388811783,0.7009132863
0.7050,0.6952447676,-0.07757719058,-0.1388638444,0.7009517282
0.7100,0.6952063109,-0.07757464389,-0.138844606,0.7009939624
0.7150,0.6951648407,-0.0775727759,-0.138821752,0.7010398204
0.7200,0.6951176835,-0.07757291731,-0.1387973508,0.7010913949
0.7250,0.6950667706,-0.0775745783,-0.1387710616,0.7011468902
0.7300,0.6950116326,-0.0775785509,-0.1387419936,0.7012068583
0.7350,0.6949513225,-0.07758654104,-0.1387115182,0.7012717753
0.7400,0.6948868201,-0.07759960611,-0.1386793789,0.7013406007
0.7450,0.694818112,-0.07761905484,-0.1386467332,0.7014129718
0.7500,0.694744506,-0.07764579325,-0.1386132036,0.7014895452
0.7550,0.6946665366,-0.07768137952,-0.1385765858,0.7015700508
0.7600,0.6945848605,-0.07772809069,-0.1385392287,0.7016531177
0.7650,0.694498215,-0.07778569948,-0.1385008086,0.7017400803
0.7700,0.694406205,-0.07785644039,-0.1384619987,0.7018309427
0.7750,0.6943094388,-0.07794085976,-0.1384222549,0.701925142
0.7800,0.6942079657,-0.07803847683,-0.1383832032,0.702022354
0.7850,0.6941016285,-0.07814994472,-0.1383456129,0.7021225013
0.7900,0.6939903662,-0.07827612039,-0.1383095643,0.7022255229
0.7950,0.6938745416,-0.07841487846,-0.1382766322,0.7023309763
0.8000,0.6937537292,-0.07856705073,-0.1382467931,0.7024391831
0.8050,0.6936286398,-0.07873183079,-0.1382217258,0.7025491893
0.8100,0.6935000348,-0.07890819687,-0.1382031103,0.7026600163
0.8150,0.693367959,-0.0790956578,-0.1381910098,0.7027716523
0.8200,0.6932296388,-0.07929277829,-0.138186908,0.7028866919
0.8250,0.6930858069,-0.079499083,-0.1381901262,0.7030045869
0.8300,0.6929389892,-0.07971239901,-0.1382019379,0.7031228307
0.8350,0.6927879413,-0.079930456,-0.1382225254,0.7032428628
0.8400,0.6926334062,-0.08015358167,-0.1382516267,0.7033639568
0.8450,0.692475283,-0.08037873756,-0.1382894044,0.7034865184
0.8500,0.6923136347,-0.08060595211,-0.1383356315,0.7036105206
0.8550,0.6921495275,-0.08083276065,-0.1383902824,0.7037351961
0.8600,0.6919830802,-0.08105842582,-0.1384511955,0.7038609343
0.8650,0.6918142826,-0.08128130004,-0.1385197569,0.7039876602
0.8700,0.6916452163,-0.08150167166,-0.1385930774,0.7041138624
0.8750,0.6914751854,-0.08171719088,-0.1386704592,0.7042406354
0.8800,0.6913061095,-0.08192658739,-0.1387509429,0.7043664338
0.8850,0.6911376421,-0.08212956446,-0.1388336263,0.7044918158
0.8900,0.6909713374,-0.08232430819,-0.1389173068,0.7046157116
0.8950,0.6908086339,-0.08251094238,-0.1389994084,0.7047372136
0.9000,0.6906489367,-0.08268931044,-0.13908139,0.7048566458
0.9050,0.6904927984,-0.08285851463,-0.1391629667,0.7049736383
0.9100,0.6903414768,-0.08301933258,-0.13924111,0.7050874762
0.9150,0.6901947812,-0.08317056383,-0.1393172786,0.7051982113
0.9200,0.6900535148,-0.08331125937,-0.1393888585,0.7053056974
0.9250,0.6899184563,-0.08344201692,-0.139456442,0.7054089979
0.9300,0.6897883596,-0.08356174574,-0.1395196159,0.7055095538
0.9350,0.6896628431,-0.08366844556,-0.1395785333,0.7056079557
0.9400,0.6895417883,-0.08376283059,-0.139632481,0.7057043862
0.9450,0.6894260776,-0.0838437822,-0.1396805967,0.705798296
0.9500,0.6893164425,-0.08391181031,-0.1397241476,0.7058886689
0.9550,0.6892104874,-0.08396481521,-0.1397630367,0.7059781211
0.9600,0.6891102061,-0.08400372155,-0.1397974231,0.7060645715
0.9650,0.6890151972,-0.08402980271,-0.1398282657,0.7061480768
0.9700,0.6889253204,-0.08404259454,-0.1398552455,0.7062288974
0.9750,0.6888406988,-0.08404310664,-0.1398787296,0.7063067244
0.9800,0.688761103,-0.08403158114,-0.1398990331,0.7063816935
0.9850,0.6886875564,-0.08400953896,-0.1399159869,0.706452662
0.9900,0.6886179575,-0.08397607154,-0.1399301594,0.7065216759
0.9950,0.6885533061,-0.0839325359,-0.1399414606,0.7065876179
1.0000,0.6884936627,-0.08388000964,-0.1399494121,0.7066503962
1.0050,0.6884385185,-0.08381815187,-0.1399542289,0.7067105047
1.0100,0.6883880676,-0.08374735943,-0.1399547536,0.7067679358
1.0150,0.6883415652,-0.08366908635,-0.1399524262,0.7068229566
1.0200,0.6883005009,-0.08358204264,-0.1399465283,0.7068744103
1.0250,0.6882628163,-0.08348711047,-0.1399374299,0.7069241217
1.0300,0.688228337,-0.08338488528,-0.1399252199,0.7069721705
1.0350,0.6881981094,-0.0832758406,-0.1399094651,0.7070175656
1.0400,0.6881701741,-0.08316000535,-0.1398896908,0.7070623024
1.0450,0.6881449138,-0.08303852532,-0.1398666105,0.7071057291
1.0500,0.6881225698,-0.08291253094,-0.1398400298,0.7071475144
1.0550,0.6881019915,-0.08278239127,-0.1398108816,0.707188548
1.0600,0.6880844392,-0.08264841762,-0.1397782246,0.7072277508
1.0650,0.6880698573,-0.08251199968,-0.1397416784,0.707265088
1.0700,0.6880583286,-0.0823725662,-0.1397022751,0.7073003401
1.0750,0.6880501147,-0.08223150909,-0.1396603579,0.7073330213
1.0800,0.6880436065,-0.08209048616,-0.1396165391,0.7073643825
1.0850,0.6880395947,-0.08194872201,-0.1395691861,0.7073940665
1.0900,0.6880378512,-0.081806223,-0.1395194688,0.7074220629
1.0950,0.6880386601,-0.08166514715,-0.1394664636,0.7074480274
1.1000,0.6880407889,-0.08152471828,-0.1394121858,0.7074728515
1.1050,0.6880442469,-0.08138435714,-0.1393551941,0.7074968767
1.1100,0.6880483728,-0.08124467371,-0.1392949014,0.7075207913
1.1150,0.6880535027,-0.08110519744,-0.1392316324,0.7075442579
1.1200,0.6880594237,-0.08096580737,-0.1391659271,0.7075673906
1.1250,0.6880671204,-0.08082666049,-0.1391000021,0.7075887776
1.1300,0.688074739,-0.08068792762,-0.1390334174,0.7076102887
1.1350,0.6880821131,-0.08055049136,-0.1389683381,0.7076315602
1.1400,0.6880891313,-0.08041364657,-0.1389048964,0.7076527557
1.1450,0.6880965193,-0.08027828906,-0.1388432461,0.7076730385
1.1500,0.6881030229,-0.08014456275,-0.1387854303,0.7076932126
1.1550,0.688108448,-0.08001462827,-0.1387306743,0.7077133763
1.1600,0.6881135756,-0.07988849697,-0.1386806096,0.707732452
1.1650,0.688117762,-0.07976558193,-0.1386349687,0.7077511872
1.1700,0.6881205186,-0.07964680245,-0.1385962782,0.7077694614
1.1750,0.6881220694,-0.07953193911,-0.1385636279,0.7077872627
1.1800,0.6881212625,-0.07942129174,-0.1385376796,0.7078055508
1.1850,0.6881200081,-0.07931453503,-0.13851843,0.7078225085
1.1900,0.6881169341,-0.07921321791,-0.1385056313,0.707839347
1.1950,0.6881117325,-0.07911731376,-0.1385007685,0.707856081
1.2000,0.6881052584,-0.07902589984,-0.1385033697,0.7078720767
1.2050,0.6880980091,-0.07893817755,-0.1385112833,0.7078873628
1.2100,0.6880899298,-0.07885318242,-0.1385260138,0.7079018064
1.2150,0.6880808349,-0.0787722727,-0.1385465831,0.7079156292
1.2200,0.688070382,-0.07869536315,-0.1385742008,0.7079289372
1.2250,0.6880567933,-0.07862120154,-0.1386066622,0.7079440296
1.2300,0.6880423273,-0.07855062015,-0.1386450318,0.7079584105
1.2350,0.6880268847,-0.07848428154,-0.1386895973,0.7079720468
1.2400,0.6880101203,-0.0784213044,-0.1387399183,0.7079854577
1.2450,0.6879915407,-0.07836086299,-0.1387946968,0.7079994684
1.2500,0.6879708962,-0.07830139977,-0.1388548973,0.7080143038
1.2550,0.6879495665,-0.07824545725,-0.1389195114,0.7080285388
1.2600,0.687926087,-0.07819224469,-0.1389884574,0.7080436995
1.2650,0.6879013745,-0.0781415827,-0.1390613743,0.7080589849
1.2700,0.6878748971,-0.07809327684,-0.1391376296,0.7080750568
1.2750,0.6878481764,-0.07804778767,-0.1392177109,0.7080902894
1.2800,0.687820547,-0.07800498929,-0.1393001715,0.7081056271
1.2850,0.6877914054,-0.0779655194,-0.1393850418,0.7081215789
1.2900,0.6877617005,-0.07792835164,-0.1394736091,0.7081370826
1.2950,0.687732229,-0.07789338119,-0.1395648319,0.7081515799
1.3000,0.6877025797,-0.07785960391,-0.1396576471,0.7081657896
1.3050,0.6876730338,-0.07782847871,-0.1397516982,0.7081793483
1.3100,0.6876438966,-0.07779838678,-0.1398476774,0.7081920005
1.3150,0.6876155409,-0.07777041389,-0.1399441509,0.7082035479
1.3200,0.6875882998,-0.0777440506,-0.1400402592,0.7082138931
1.3250,0.6875620092,-0.07771990543,-0.1401367551,0.7082229801
1.3300,0.687537992,-0.07769703252,-0.1402326226,0.7082298301
1.3350,0.6875153057,-0.0776748562,-0.1403285099,0.7082352931
1.3400,0.6874936839,-0.07765490531,-0.1404237106,0.7082396005
1.3450,0.6874726028,-0.07763653059,-0.140518337,0.7082433103
1.3500,0.6874528031,-0.07761976722,-0.1406135145,0.7082454764
1.3550,0.6874339292,-0.07760481974,-0.140708631,0.7082465433
1.3600,0.6874148209,-0.07759172497,-0.1408030411,0.7082477616
1.3650,0.6873959436,-0.07758008499,-0.1408977509,0.7082485234
1.3700,0.6873778586,-0.07756991766,-0.1409931971,0.7082481951
1.3750,0.687359681,-0.07756312674,-0.1410885,0.7082476018
1.3800,0.6873423123,-0.0775568803,-0.1411827485,0.7082463608
1.3850,0.6873244278,-0.07755315309,-0.141278645,0.7082450027
1.3900,0.6873061319,-0.07755282833,-0.1413756912,0.7082434284
1.3950,0.6872875059,-0.07755397105,-0.1414734361,0.7082418603
1.4000,0.6872698708,-0.07755841531,-0.1415714363,0.7082389042
1.4050,0.6872526619,-0.07756641156,-0.1416704894,0.7082349207
1.4100,0.6872353782,-0.07757695625,-0.1417713121,0.7082303622
1.4150,0.6872183576,-0.07759225069,-0.1418740825,0.7082246228
1.4200,0.6872025501,-0.0776118771,-0.1419782539,0.708216935
1.4250,0.6871875287,-0.07763509008,-0.1420838974,0.7082077798
1.4300,0.6871737663,-0.07766148114,-0.1421909961,0.7081967451
1.4350,0.6871607781,-0.0776918831,-0.1422986232,0.7081843956
1.4400,0.6871480474,-0.07772623591,-0.1424074127,0.7081711107
1.4450,0.6871359544,-0.07776446424,-0.1425158937,0.7081568247
1.4500,0.6871253012,-0.07780650507,-0.1426241363,0.7081407515
1.4550,0.6871166833,-0.07785146897,-0.1427330037,0.7081222366
1.4600,0.6871087555,-0.07789937868,-0.1428421112,0.7081026594
1.4650,0.6871016944,-0.07795062535,-0.1429508006,0.7080819375
1.4700,0.6870962123,-0.07800421507,-0.1430577788,0.7080597499
1.4750,0.6870918624,-0.07805934251,-0.1431651697,0.7080361896
1.4800,0.687089641,-0.07811690292,-0.1432718537,0.7080104171
1.4850,0.6870878,-0.07817681517,-0.1433789818,0.707983904
1.4900,0.6870871487,-0.07823649797,-0.1434862243,0.7079562161
1.4950,0.6870874987,-0.07829709397,-0.1435928877,0.7079275505
1.5000,0.6870884254,-0.07835754493,-0.1436990989,0.7078984106
1.5050,0.6870893988,-0.07841906009,-0.1438055834,0.7078690297
1.5100,0.6870899813,-0.07848062877,-0.1439124741,0.7078399171
1.5150,0.6870913447,-0.0785418782,-0.1440194773,0.7078100364
1.5200,0.6870932231,-0.07860180111,-0.1441274815,0.7077795763
1.5250,0.687096996,-0.07866144771,-0.1442368823,0.7077470004
1.5300,0.6871019291,-0.07872009523,-0.1443460081,0.7077134417
1.5350,0.6871075319,-0.07877774683,-0.1444553663,0.7076792729
1.5400,0.6871139716,-0.07883282335,-0.144565642,0.7076443677
1.5450,0.6871211124,-0.07888675048,-0.1446757375,0.7076089234
1.5500,0.6871282806,-0.07894023975,-0.1447866407,0.707573313
1.5550,0.687136343,-0.07899243579,-0.1448974489,0.7075369747
1.5600,0.6871451443,-0.07904339015,-0.1450068874,0.707500315
1.5650,0.6871544706,-0.0790908863,-0.1451152453,0.7074637311
1.5700,0.6871650917,-0.07913635675,-0.1452220828,0.7074264064
1.5750,0.6871761172,-0.07917989269,-0.1453259138,0.7073895018
1.5800,0.6871881045,-0.07922075847,-0.1454271207,0.7073524815
1.5850,0.687201454,-0.07925829276,-0.1455253304,0.7073151086
1.5900,0.6872161742,-0.07929320209,-0.1456186979,0.7072776773
1.5950,0.6872315618,-0.07932553125,-0.1457068312,0.7072409489
1.6000,0.6872477149,-0.07935552615,-0.1457894549,0.7072048598
1.6050,0.6872649803,-0.07938311148,-0.145868126,0.7071687622
