type,name,time_units,begin_time,frequency,count,units
signal_3d,"Noraxon MyoMotion-Trajectories-Ulnar styloid process RT","s",0.0000,200,5328,"mm"

time,x,y,z
0.0000,-78.53465696,212.4143095,902.5284592
0.0050,-78.56606841,212.3967098,902.531514
0.0100,-78.59749053,212.379114,902.5345767
0.0150,-78.62892332,212.3615221,902.5376473
0.0200,-78.66197189,212.34264,902.5409318
0.0250,-78.69625954,212.3225761,902.5444031
0.0300,-78.73137139,212.3014453,902.5480287
0.0350,-78.76687004,212.27936,902.5517713
0.0400,-78.80230983,212.256419,902.55559
0.0450,-78.83724489,212.2326958,902.5594419
0.0500,-78.87123221,212.2082325,902.5632832
0.0550,-78.90383538,212.183046,902.5670709
0.0600,-78.93462927,212.1571423,902.5707641
0.0650,-78.96320481,212.1305339,902.574326
0.0700,-78.98917645,212.1032578,902.5777243
0.0750,-79.01219514,212.0753918,902.5809323
0.0800,-79.03196308,212.0470676,902.5839295
0.0850,-79.04824145,212.0184779,902.586701
0.0900,-79.06084994,211.9898771,902.5892372
0.0950,-79.06966369,211.9615704,902.5915318
0.1000,-79.0746073,211.9338982,902.5935805
0.1050,-79.07564433,211.9072227,902.5953794
0.1100,-79.07276764,211.8819191,902.5969239
0.1150,-79.06599993,211.8583616,902.5982082
0.1200,-79.05540133,211.8369033,902.5992259
0.1250,-79.04107097,211.81786,902.5999706
0.1300,-79.02314448,211.8014986,902.6004365
0.1350,-79.0017988,211.7880247,902.6006204
0.1400,-78.97726239,211.7775661,902.6005231
0.1450,-78.94981592,211.7701596,902.6001509
0.1500,-78.91977932,211.7657386,902.5995153
0.1550,-78.88149568,211.7366197,902.599744
0.1600,-78.84010972,211.7102408,902.5996416
0.1650,-78.79646003,211.6858218,902.5993902
0.1700,-78.75061747,211.6632349,902.5989034
0.1750,-78.7027642,211.6412754,902.5982318
0.1800,-78.65513649,211.6198977,902.5975725
0.1850,-78.60728254,211.5983583,902.5967997
0.1900,-78.56009423,211.5769824,902.5959974
0.1950,-78.51473688,211.5557027,902.5952342
0.2000,-78.47095647,211.5341897,902.5945172
0.2050,-78.42963514,211.5115273,902.5938411
0.2100,-78.390803,211.48762,902.5932429
0.2150,-78.35468452,211.4610771,902.5927475
0.2200,-78.31990331,211.4327629,902.5923151
0.2250,-78.28763129,211.4025386,902.5920148
0.2300,-78.25751585,211.370062,902.5918466
0.2350,-78.23141294,211.3353781,902.5919083
0.2400,-78.20587796,211.2996964,902.5919156
0.2450,-78.18378826,211.2629675,902.5922099
0.2500,-78.16366457,211.2251598,902.5924983
0.2550,-78.14616131,211.1856971,902.5929462
0.2600,-78.1309794,211.1464673,902.5934804
0.2650,-78.11709275,211.1068787,902.5939824
0.2700,-78.10510225,211.0674674,902.5945057
0.2750,-78.09517599,211.028229,902.5950624
0.2800,-78.0875416,210.9896381,902.5956733
0.2850,-78.08076725,210.9521628,902.596206
0.2900,-78.07555915,210.9155922,902.5967863
0.2950,-78.07246252,210.8811322,902.5974001
0.3000,-78.07184769,210.8490735,902.5981842
0.3050,-78.07289999,210.8180122,902.598965
0.3100,-78.07467309,210.7896253,902.5997771
0.3150,-78.07868997,210.7630064,902.600661
0.3200,-78.08390054,210.7386807,902.6016463
0.3250,-78.09122668,210.7168248,902.6026908
0.3300,-78.10004622,210.6981541,902.6037788
0.3350,-78.111216,210.6840633,902.6049501
0.3400,-78.12262384,210.6730523,902.6059805
0.3450,-78.13575049,210.6653954,902.6070458
0.3500,-78.14895851,210.6618386,902.6079573
0.3550,-78.16268889,210.6627928,902.6087798
0.3600,-78.17564948,210.6682052,902.6093676
0.3650,-78.18769942,210.6778964,902.6096696
0.3700,-78.19915268,210.691807,902.609679
0.3750,-78.20838848,210.7107149,902.6093661
0.3800,-78.21564521,210.7333416,902.6086703
0.3850,-78.22137994,210.7599295,902.6077167
0.3900,-78.22504336,210.7904001,902.6065076
0.3950,-78.22645849,210.8245763,902.6048794
0.4000,-78.22710855,210.8625993,902.6031099
0.4050,-78.22578715,210.9031105,902.6010524
0.4100,-78.22251878,210.9465035,902.5986436
0.4150,-78.2185688,210.9930159,902.5961679
0.4200,-78.21344587,211.0427197,902.5934929
0.4250,-78.20819825,211.0943604,902.5907948
0.4300,-78.20174142,211.1469624,902.5879819
0.4350,-78.19427102,211.2007886,902.585162
0.4400,-78.18643836,211.2541778,902.5823923
0.4450,-78.17716156,211.3067984,902.5795893
0.4500,-78.16816419,211.3598422,902.5768332
0.4550,-78.15971608,211.4124333,902.5742587
0.4600,-78.15234809,211.4626616,902.5719558
0.4650,-78.1454144,211.5114874,902.569742
0.4700,-78.13856759,211.5586502,902.5676346
0.4750,-78.13272379,211.6032809,902.5658153
0.4800,-78.12611452,211.6464401,902.5640317
0.4850,-78.11887405,211.6874917,902.5623342
0.4900,-78.11218421,211.7268862,902.5607896
0.4950,-78.10482707,211.7627291,902.559312
0.5000,-78.09760843,211.795074,902.5580229
0.5050,-78.09091445,211.8236178,902.5569023
0.5100,-78.08472356,211.8486147,902.5559216
0.5150,-78.07935613,211.8704109,902.5550887
0.5200,-78.07633118,211.8897646,902.5545431
0.5250,-78.07418136,211.9066361,902.554189
0.5300,-78.07350819,211.9203366,902.5539376
0.5350,-78.07370954,211.932199,902.5538211
0.5400,-78.07642284,211.9418141,902.5539913
0.5450,-78.08029754,211.9491758,902.5542599
0.5500,-78.08530307,211.9552815,902.5546909
0.5550,-78.09254058,211.9597203,902.5553104
0.5600,-78.10094446,211.9623607,902.5561365
0.5650,-78.10959205,211.9658733,902.5570462
0.5700,-78.11964278,211.9676111,902.5582028
0.5750,-78.13002668,211.9692929,902.5594389
0.5800,-78.14031293,211.9697904,902.5607774
0.5850,-78.15070481,211.9707286,902.5622067
0.5900,-78.1616244,211.9706239,902.5637381
0.5950,-78.17439378,211.9683304,902.5655481
0.6000,-78.18741191,211.964098,902.5673817
0.6050,-78.200884,211.9581106,902.569347
0.6100,-78.21667103,211.9493581,902.5715269
0.6150,-78.23485725,211.9372397,902.5739402
0.6200,-78.2550324,211.9223086,902.5763975
0.6250,-78.27789294,211.9045916,902.5790525
0.6300,-78.30277006,211.8838852,902.5817214
0.6350,-78.32870264,211.8610391,902.584316
0.6400,-78.35690754,211.8370825,902.5869079
0.6450,-78.38501226,211.8119848,902.589315
0.6500,-78.41440593,211.785048,902.5915404
0.6550,-78.44284994,211.7558158,902.5934718
0.6600,-78.47195194,211.7236654,902.5952528
0.6650,-78.50117675,211.6878142,902.596823
0.6700,-78.53099994,211.6475217,902.5982334
0.6750,-78.5627159,211.6010633,902.5995275
0.6800,-78.59665712,211.5489723,902.6007288
0.6850,-78.63397533,211.4895963,902.601877
0.6900,-78.67454426,211.423437,902.6029523
0.6950,-78.71959724,211.3489476,902.6041356
0.7000,-78.76977961,211.2656199,902.6053869
0.7050,-78.82629236,211.1712839,902.606817
0.7100,-78.89032007,211.0653803,902.608503
0.7150,-78.96196795,210.947228,902.6103288
0.7200,-79.04196382,210.8134769,902.6124213
0.7250,-79.13016983,210.6668062,902.6147658
0.7300,-79.2274614,210.5053744,902.6173356
0.7350,-79.33401827,210.3291796,902.6201125
0.7400,-79.44908819,210.1384733,902.6230777
0.7450,-79.57345582,209.9340113,902.6262312
0.7500,-79.70695897,209.7143252,902.6295732
0.7550,-79.84777183,209.4800474,902.6328884
0.7600,-79.99623151,209.2336671,902.6361575
0.7650,-80.15165609,208.9732854,902.6394621
0.7700,-80.31433168,208.6990975,902.6427408
0.7750,-80.48383911,208.4126312,902.6459271
0.7800,-80.66061002,208.1144003,902.6492016
0.7850,-80.84341398,207.8048169,902.652606
0.7900,-81.03206108,207.4842744,902.6561293
0.7950,-81.22749305,207.1544957,902.6599914
0.8000,-81.42876634,206.8157783,902.6641546
0.8050,-81.63544111,206.4700076,902.6687572
0.8100,-81.84838763,206.1184274,902.6739932
0.8150,-82.06691874,205.7615861,902.6799015
0.8200,-82.29212824,205.3984059,902.6866349
0.8250,-82.52322455,205.0295326,902.6942009
0.8300,-82.7604849,204.6577733,902.7027985
0.8350,-83.00367752,204.2834397,902.7124931
0.8400,-83.25216292,203.9073764,902.7232443
0.8450,-83.50628242,203.5304526,902.7351758
0.8500,-83.7646801,203.1537068,902.7481846
0.8550,-84.02784204,202.7792621,902.7623161
0.8600,-84.29366589,202.4075183,902.7773924
0.8650,-84.56179963,202.0386605,902.7935434
0.8700,-84.83041435,201.6752943,902.810443
0.8750,-85.09902719,201.3176158,902.8280597
0.8800,-85.36628492,200.9679617,902.846265
0.8850,-85.6311229,200.6258818,902.8649558
0.8900,-85.89293057,200.2933693,902.8840228
0.8950,-86.14954746,199.9712145,902.9032179
0.9000,-86.40152231,199.660127,902.9225073
0.9050,-86.64844856,199.3604029,902.9418586
0.9100,-86.88823546,199.0735618,902.9608934
0.9150,-87.12067366,198.7989223,902.979728
0.9200,-87.34527292,198.5361008,902.9982602
0.9250,-87.56147425,198.2870057,903.0163225
0.9300,-87.76945202,198.0485955,903.0340571
0.9350,-87.97060386,197.8208327,903.0515393
0.9400,-88.16356716,197.603028,903.0686504
0.9450,-88.34920134,197.3948125,903.0854703
0.9500,-88.52720723,197.1973291,903.1019541
0.9550,-88.69989114,197.0082334,903.1182747
0.9600,-88.86653795,196.8293256,903.1343271
0.9650,-89.02738296,196.6600433,903.1501167
0.9700,-89.18291828,196.4997531,903.1656834
0.9750,-89.33266231,196.3482844,903.180987
0.9800,-89.47706929,196.2056168,903.1960198
0.9850,-89.61501969,196.0718058,903.2107104
0.9900,-89.74780488,195.94531,903.2251534
0.9950,-89.87509933,195.827461,903.2392152
1.0000,-89.99617918,195.7177452,903.2528297
1.0050,-90.11077438,195.6162228,903.2659535
1.0100,-90.21796305,195.5221379,903.2785319
1.0150,-90.31850108,195.4350397,903.2906034
1.0200,-90.41243763,195.3561427,903.3021659
1.0250,-90.50076111,195.2824808,903.3133666
1.0300,-90.58307249,195.2143493,903.3241247
1.0350,-90.65950661,195.1525438,903.3344032
1.0400,-90.7310953,195.0950799,903.3442608
1.0450,-90.79747939,195.0422626,903.353674
1.0500,-90.85821847,194.9938975,903.3626009
1.0550,-90.91456163,194.9495554,903.3710963
1.0600,-90.96616597,194.9091166,903.3791787
1.0650,-91.01223899,194.873646,903.3866356
1.0700,-91.05302023,194.8430761,903.3935678
1.0750,-91.08748613,194.817953,903.3998612
1.0800,-91.11634803,194.7967663,903.4055457
1.0850,-91.13965406,194.7801205,903.4105633
1.0900,-91.15726324,194.7679229,903.4149647
1.0950,-91.16879418,194.7604776,903.4185922
1.1000,-91.17542424,194.7565162,903.4216736
1.1050,-91.17770229,194.7556273,903.424216
1.1100,-91.17478209,194.757665,903.4260904
1.1150,-91.16768977,194.7633532,903.4273425
1.1200,-91.15637857,194.7726023,903.4280001
1.1250,-91.14187893,194.7865155,903.4282033
1.1300,-91.12438158,194.8036711,903.4279308
1.1350,-91.10447179,194.8238598,903.4273088
1.1400,-91.08234625,194.8471824,903.4263674
1.1450,-91.05776296,194.8740121,903.4250893
1.1500,-91.03269333,194.9036021,903.4236604
1.1550,-91.0046904,194.9348303,903.4219273
1.1600,-90.97533902,194.9681359,903.4200732
1.1650,-90.9456046,195.0034933,903.4181108
1.1700,-90.91571683,195.0408544,903.4161322
1.1750,-90.88518641,195.0798159,903.4141248
1.1800,-90.85508123,195.1196205,903.4121543
1.1850,-90.82538505,195.1612529,903.4102767
1.1900,-90.79548962,195.2037808,903.4083791
1.1950,-90.76638147,195.2468454,903.4066047
1.2000,-90.73788898,195.2911278,903.4049551
1.2050,-90.70919968,195.3362027,903.4033735
1.2100,-90.68112274,195.38147,903.4020727
1.2150,-90.65357559,195.4275232,903.4008732
1.2200,-90.6269563,195.4740012,903.3998763
1.2250,-90.60109006,195.5184044,903.3990979
1.2300,-90.57588178,195.5641292,903.3984176
1.2350,-90.55139758,195.6095351,903.3979621
1.2400,-90.52732986,195.6542716,903.3977382
1.2450,-90.50439159,195.698748,903.3976676
1.2500,-90.48320498,195.7420034,903.3979669
1.2550,-90.46185706,195.7856967,903.3983364
1.2600,-90.44150927,195.8284189,903.3988796
1.2650,-90.42134066,195.8709364,903.3995436
1.2700,-90.40116178,195.9127445,903.4003013
1.2750,-90.38090003,195.9555676,903.4011104
1.2800,-90.35935715,195.9978428,903.4019324
1.2850,-90.3370777,196.0394055,903.4027392
1.2900,-90.31483031,196.0808928,903.4036905
1.2950,-90.29191114,196.1226192,903.4047241
1.3000,-90.26878241,196.1641023,903.4058529
1.3050,-90.24479421,196.2059112,903.4069343
1.3100,-90.22130791,196.2485284,903.4081142
1.3150,-90.19640001,196.2923154,903.4091758
1.3200,-90.1705379,196.337235,903.4101296
1.3250,-90.14282431,196.3833121,903.4109495
1.3300,-90.11446351,196.4315108,903.4116592
1.3350,-90.08564229,196.4806295,903.4123741
1.3400,-90.05517951,196.5305386,903.4129306
1.3450,-90.02421485,196.5805115,903.4134336
1.3500,-89.99287694,196.6320954,903.413874
1.3550,-89.96047517,196.6838535,903.4142743
1.3600,-89.92693789,196.7355659,903.4145395
1.3650,-89.89314631,196.7875544,903.4147826
1.3700,-89.85927732,196.8408673,903.4149843
1.3750,-89.82460584,196.8938341,903.4150538
1.3800,-89.78875176,196.9476459,903.4150146
1.3850,-89.75274736,197.0012336,903.4149861
1.3900,-89.71678354,197.0553549,903.4148438
1.3950,-89.68099021,197.1091579,903.4147296
1.4000,-89.6442904,197.164185,903.4144412
1.4050,-89.60738326,197.2198385,903.4140537
1.4100,-89.57121688,197.2757933,903.4136894
1.4150,-89.53488145,197.3316279,903.4132711
1.4200,-89.49902889,197.3878514,903.4128137
1.4250,-89.46417754,197.4450713,903.4123019
1.4300,-89.43040929,197.5029735,903.4118053
1.4350,-89.39705181,197.5615234,903.4111749
1.4400,-89.36491403,197.6200495,903.4104999
1.4450,-89.33289362,197.6796222,903.4095915
1.4500,-89.30064796,197.7403192,903.4084831
1.4550,-89.26870478,197.8034031,903.4072266
1.4600,-89.23714062,197.867994,903.4057918
1.4650,-89.20550392,197.9339947,903.4041178
1.4700,-89.17289921,198.0018065,903.4021525
1.4750,-89.14096268,198.071057,903.400128
1.4800,-89.10845657,198.1419775,903.3979234
1.4850,-89.07591709,198.2138141,903.3955987
1.4900,-89.04429132,198.2869335,903.3933078
1.4950,-89.01228193,198.3612895,903.3909033
1.5000,-88.98033134,198.436025,903.3885032
1.5050,-88.94877029,198.5115698,903.386041
1.5100,-88.91781806,198.5872292,903.383614
1.5150,-88.88700648,198.6641035,903.3811898
1.5200,-88.85682678,198.7417816,903.3789118
1.5250,-88.82703752,198.821206,903.3767458
1.5300,-88.79687803,198.9012813,903.3746423
1.5350,-88.7668613,198.9823158,903.3726013
1.5400,-88.73852693,199.063984,903.3708245
1.5450,-88.70984704,199.1458859,903.3691338
1.5500,-88.68207255,199.2271587,903.367616
1.5550,-88.65539733,199.3085489,903.3662497
1.5600,-88.62885199,199.3896318,903.3649447
1.5650,-88.60364086,199.470223,903.3638724
1.5700,-88.57914386,199.5511761,903.3628863
1.5750,-88.55418659,199.6306369,903.3619406
1.5800,-88.53039269,199.709923,903.3610715
1.5850,-88.50740047,199.7892427,903.3602859
1.5900,-88.48394611,199.8684554,903.3593996
1.5950,-88.46022343,199.9466299,903.3584176
1.6000,-88.43580851,200.0244949,903.3572506
1.6050,-88.41163629,200.1014706,903.3560872
1.6100,-88.386956,200.1777073,903.3548345
1.6150,-88.36137648,200.2529341,903.3534308
1.6200,-88.33533752,200.3280658,903.3518924
1.6250,-88.30967713,200.402349,903.3503058
1.6300,-88.28390822,200.4749694,903.3487619
1.6350,-88.2580719,200.5463262,903.3470838
1.6400,-88.23247834,200.6182522,903.3453623
1.6450,-88.20724643,200.6892866,903.3436654
1.6500,-88.18222895,200.7585897,903.3419619
1.6550,-88.15839643,200.8277874,903.3403069
1.6600,-88.1360275,200.8958558,903.3388284
1.6650,-88.11474674,200.9635824,903.3374682
1.6700,-88.09453705,201.029893,903.3361959
1.6750,-88.07682306,201.0959777,903.335127
1.6800,-88.06067338,201.1613825,903.3341741
1.6850,-88.04633924,201.2266593,903.333361
1.6900,-88.03340781,201.291786,903.3326475
1.6950,-88.02237781,201.3571363,903.3320936
1.7000,-88.01408259,201.4214954,903.3316488
1.7050,-88.00737714,201.4856411,903.3312495
1.7100,-88.00240796,201.5489321,903.3309413
1.7150,-88.00015792,201.6118087,903.3307694
1.7200,-87.99894359,201.67466,903.3305613
1.7250,-87.99834795,201.7359317,903.3302173
1.7300,-87.99859817,201.7953068,903.3298398
1.7350,-88.00041017,201.8539128,903.3293601
1.7400,-88.00344475,201.9124744,903.3288103
1.7450,-88.00859898,201.9690926,903.3282764
1.7500,-88.01468249,202.024687,903.3276232
1.7550,-88.02183066,202.0778373,903.3269319
1.7600,-88.0300723,202.1296151,903.3261121
1.7650,-88.03891181,202.1801014,903.3252462
1.7700,-88.04915543,202.2281506,903.3243905
1.7750,-88.05989028,202.2742333,903.3233974
1.7800,-88.07095883,202.3185473,903.3223053
1.7850,-88.08243836,202.3606565,903.3210951
1.7900,-88.0932997,202.3998936,903.3197362
1.7950,-88.10518755,202.4374375,903.318392
1.8000,-88.11622027,202.4732318,903.3168146
1.8050,-88.12785796,202.5072223,903.3153078
1.8100,-88.13995038,202.539025,903.3138315
1.8150,-88.15171215,202.5676821,903.3123378
1.8200,-88.16369147,202.5945661,903.3108748
1.8250,-88.17561147,202.6198378,903.3093957
1.8300,-88.1888459,202.6420325,903.3081557
1.8350,-88.203185,202.6626899,903.3071122
1.8400,-88.21796363,202.681234,903.3061233
1.8450,-88.23466149,202.6978559,903.305449
1.8500,-88.25205566,202.713137,903.3049037
1.8550,-88.26957296,202.7269369,903.3045119
1.8600,-88.28807907,202.739736,903.3043472
1.8650,-88.30736154,202.7508131,903.3043487
1.8700,-88.32706227,202.7603549,903.3045804
1.8750,-88.34906099,202.7691649,903.3050654
1.8800,-88.37119485,202.7769091,903.3057026
1.8850,-88.3934221,202.783984,903.3065346
1.8900,-88.41725072,202.7892918,903.3076268
1.8950,-88.44181145,202.7943553,903.308891
1.9000,-88.46698398,202.7983382,903.3103919
1.9050,-88.49174371,202.8021278,903.3119719
1.9100,-88.51723168,202.8057298,903.3137536
1.9150,-88.54360981,202.8083758,903.3157408
1.9200,-88.57056705,202.8103533,903.3179463
1.9250,-88.59742991,202.8126497,903.3201851
1.9300,-88.62409269,202.8146414,903.3224134
1.9350,-88.65119867,202.8159648,903.3248172
1.9400,-88.67946148,202.8149756,903.3274081
1.9450,-88.7074168,202.8132938,903.3300728
1.9500,-88.73565723,202.8113932,903.3328499
1.9550,-88.76366933,202.8084523,903.3356582
1.9600,-88.79153514,202.8050802,903.3385088
1.9650,-88.81971708,202.8012733,903.3413985
1.9700,-88.84897761,202.7964217,903.3444718
1.9750,-88.87845102,202.790801,903.3475913
1.9800,-88.90838191,202.7846805,903.3508084
1.9850,-88.93783928,202.7787296,903.3539346
1.9900,-88.96796473,202.7715189,903.3572728
1.9950,-88.99757335,202.7637041,903.3604852
2.0000,-89.02590922,202.7557184,903.3636385
2.0050,-89.05330225,202.74765,903.3667131
2.0100,-89.07935996,202.7391054,903.3696332
2.0150,-89.10309922,202.731026,903.3722755
2.0200,-89.12620397,202.7227034,903.3747954
2.0250,-89.14755471,202.7140166,903.3771162
2.0300,-89.16661474,202.7069371,903.3790879
2.0350,-89.18321349,202.6989727,903.3808417
2.0400,-89.19759453,202.6912503,903.3822844
2.0450,-89.20884988,202.6843202,903.3833988
2.0500,-89.21788437,202.6774383,903.3842219
2.0550,-89.22397425,202.672134,903.3846232
2.0600,-89.22709764,202.6665825,903.3847079
2.0650,-89.22658727,202.661464,903.3843111
2.0700,-89.22289936,202.6575141,903.3835055
2.0750,-89.21611534,202.6535443,903.3823295
2.0800,-89.20600653,202.6502615,903.3808165
2.0850,-89.19318165,202.6465383,903.3790881
2.0900,-89.17726248,202.6439736,903.3770537
2.0950,-89.15818514,202.6412765,903.3747497
2.1000,-89.13813022,202.6384555,903.3725049
2.1050,-89.11534928,202.6356978,903.3699765
2.1100,-89.09021736,202.6333814,903.3673101
2.1150,-89.06324855,202.6310025,903.3645601
2.1200,-89.03432791,202.6284863,903.3616911
2.1250,-89.00394546,202.6255573,903.3588151
2.1300,-88.97244011,202.6229853,903.3559436
2.1350,-88.93818035,202.6200758,903.3528786
2.1400,-88.90253577,202.6167276,903.3498162
2.1450,-88.86481114,202.6132539,903.3466394
2.1500,-88.82548649,202.6097575,903.3433709
2.1550,-88.78612415,202.6061969,903.3401831
2.1600,-88.74599614,202.6017819,903.3369827
2.1650,-88.70515034,202.597242,903.3338125
2.1700,-88.66400004,202.5921758,903.330562
2.1750,-88.62193168,202.5874018,903.3273545
2.1800,-88.58048875,202.582507,903.3242296
2.1850,-88.53951584,202.5764938,903.3211209
2.1900,-88.49872786,202.5712011,903.3180129
2.1950,-88.45883184,202.5661233,903.3150415
2.2000,-88.41934192,202.5620702,903.3121121
2.2050,-88.38221226,202.5576039,903.3094126
2.2100,-88.34569599,202.553355,903.306741
2.2150,-88.31090737,202.5491834,903.3042378
2.2200,-88.27802254,202.5448137,903.3019043
2.2250,-88.24661672,202.5398775,903.2997494
2.2300,-88.21714577,202.5355232,903.2977987
2.2350,-88.18970127,202.5316126,903.2959766
2.2400,-88.16342154,202.5283021,903.2943016
2.2450,-88.13965275,202.5249942,903.2928237
2.2500,-88.11838915,202.5212829,903.2915556
2.2550,-88.0997181,202.5171829,903.2905612
2.2600,-88.0832403,202.5134967,903.2897609
2.2650,-88.06875989,202.5085806,903.2891633
