type,name,time_units,begin_time,frequency,count,units
signal,"Noraxon Ultium-RT BICEPS BR.","s",0.00000,2000,53280,"uV"

time,value
0.00000,-1.836199637
0.00050,-2.446588453
0.00100,-2.446588453
0.00150,-0.9206164142
0.00200,0.910550032
0.00250,0.910550032
0.00300,-0.6154220065
0.00350,-1.836199637
0.00400,-1.225810822
0.00450,-0.005033191132
0.00500,0.6053556243
0.00550,0.3001612166
0.00600,-0.005033191132
0.00650,-0.005033191132
0.00700,0.3001612166
0.00750,0.6053556243
0.00800,0.6053556243
0.00850,-0.005033191132
0.00900,-1.53100523
0.00950,-2.141394045
0.01000,-1.53100523
0.01050,-0.6154220065
0.01100,-0.9206164142
0.01150,-1.53100523
0.01200,-1.225810822
0.01250,-0.6154220065
0.01300,-0.005033191132
0.01350,-0.3102275988
0.01400,-0.6154220065
0.01450,-0.005033191132
0.01500,0.3001612166
0.01550,-0.005033191132
0.01600,-0.3102275988
0.01650,-0.3102275988
0.01700,0.3001612166
0.01750,0.910550032
0.01800,1.21574444
0.01850,0.6053556243
0.01900,-0.005033191132
0.01950,-0.3102275988
0.02000,-0.3102275988
0.02050,-0.005033191132
0.02100,0.6053556243
0.02150,0.3001612166
0.02200,-0.6154220065
0.02250,-0.9206164142
0.02300,-0.005033191132
0.02350,-0.005033191132
0.02400,-0.3102275988
0.02450,-0.3102275988
0.02500,0.910550032
0.02550,1.826133255
0.02600,0.6053556243
0.02650,-1.225810822
0.02700,-2.141394045
0.02750,-1.225810822
0.02800,-0.9206164142
0.02850,-1.225810822
0.02900,-0.9206164142
0.02950,0.3001612166
0.03000,1.21574444
0.03050,0.6053556243
0.03100,-0.3102275988
0.03150,-0.3102275988
0.03200,-0.005033191132
0.03250,0.6053556243
0.03300,1.21574444
0.03350,2.131327663
0.03400,2.131327663
0.03450,0.910550032
0.03500,-0.005033191132
0.03550,-0.3102275988
0.03600,-0.005033191132
0.03650,-0.005033191132
0.03700,-0.005033191132
0.03750,0.6053556243
0.03800,1.21574444
0.03850,0.6053556243
0.03900,-0.005033191132
0.03950,-0.005033191132
0.04000,0.3001612166
0.04050,-0.005033191132
0.04100,-0.3102275988
0.04150,-0.6154220065
0.04200,-0.3102275988
0.04250,-0.3102275988
0.04300,-0.005033191132
0.04350,-0.005033191132
0.04400,0.6053556243
0.04450,1.21574444
0.04500,1.520938847
0.04550,1.520938847
0.04600,0.6053556243
0.04650,-0.005033191132
0.04700,-0.005033191132
0.04750,0.6053556243
0.04800,0.3001612166
0.04850,-0.6154220065
0.04900,-1.53100523
0.04950,-0.005033191132
0.05000,1.21574444
0.05050,1.21574444
0.05100,0.3001612166
0.05150,0.6053556243
0.05200,1.520938847
0.05250,1.21574444
0.05300,-0.005033191132
0.05350,-0.005033191132
0.05400,0.910550032
0.05450,0.910550032
0.05500,-0.005033191132
0.05550,-0.9206164142
0.05600,-0.9206164142
0.05650,-0.9206164142
0.05700,-0.9206164142
0.05750,-0.6154220065
0.05800,-0.005033191132
0.05850,0.3001612166
0.05900,-0.005033191132
0.05950,-0.005033191132
0.06000,0.910550032
0.06050,1.826133255
0.06100,1.21574444
0.06150,-0.005033191132
0.06200,-0.3102275988
0.06250,-0.3102275988
0.06300,-0.3102275988
0.06350,-0.3102275988
0.06400,-0.005033191132
0.06450,0.3001612166
0.06500,-0.005033191132
0.06550,-0.3102275988
0.06600,-0.005033191132
0.06650,0.910550032
0.06700,1.520938847
0.06750,0.6053556243
0.06800,-0.3102275988
0.06850,-0.6154220065
0.06900,-0.9206164142
0.06950,-0.9206164142
0.07000,-0.3102275988
0.07050,0.3001612166
0.07100,0.910550032
0.07150,0.3001612166
0.07200,-0.005033191132
0.07250,-0.005033191132
0.07300,-0.005033191132
0.07350,-0.3102275988
0.07400,-0.6154220065
0.07450,-0.005033191132
0.07500,0.3001612166
0.07550,-0.005033191132
0.07600,-0.9206164142
0.07650,-0.6154220065
0.07700,0.3001612166
0.07750,0.910550032
0.07800,0.6053556243
0.07850,-0.005033191132
0.07900,-0.3102275988
0.07950,-0.9206164142
0.08000,-1.53100523
0.08050,-1.53100523
0.08100,-0.005033191132
0.08150,0.910550032
0.08200,0.910550032
0.08250,-0.6154220065
0.08300,-2.141394045
0.08350,-2.141394045
0.08400,-1.225810822
0.08450,-0.3102275988
0.08500,-0.005033191132
0.08550,-0.005033191132
0.08600,-1.225810822
0.08650,-1.53100523
0.08700,-0.6154220065
0.08750,0.910550032
0.08800,1.21574444
0.08850,-0.005033191132
0.08900,-1.225810822
0.08950,-1.225810822
0.09000,-0.3102275988
0.09050,-0.005033191132
0.09100,-0.005033191132
0.09150,-0.3102275988
0.09200,-0.6154220065
0.09250,-0.6154220065
0.09300,-0.9206164142
0.09350,-1.225810822
0.09400,-0.3102275988
0.09450,-0.005033191132
0.09500,0.3001612166
0.09550,-0.3102275988
0.09600,-1.225810822
0.09650,-1.225810822
0.09700,-0.3102275988
0.09750,-0.005033191132
0.09800,-0.005033191132
0.09850,-0.005033191132
0.09900,-0.3102275988
0.09950,-0.3102275988
0.10000,-0.3102275988
0.10050,-0.6154220065
0.10100,-0.6154220065
0.10150,-0.005033191132
0.10200,0.3001612166
0.10250,-0.005033191132
0.10300,-0.6154220065
0.10350,-0.6154220065
0.10400,0.3001612166
0.10450,0.910550032
0.10500,0.6053556243
0.10550,-0.005033191132
0.10600,-0.3102275988
0.10650,-0.005033191132
0.10700,0.910550032
0.10750,0.910550032
0.10800,-0.005033191132
0.10850,-0.6154220065
0.10900,-0.6154220065
0.10950,-0.9206164142
0.11000,-1.53100523
0.11050,-1.225810822
0.11100,-0.005033191132
0.11150,-0.005033191132
0.11200,-0.6154220065
0.11250,-2.446588453
0.11300,-3.056977268
0.11350,-2.141394045
0.11400,-1.53100523
0.11450,-1.53100523
0.11500,-2.141394045
0.11550,-2.141394045
0.11600,-0.6154220065
0.11650,0.6053556243
0.11700,0.6053556243
0.11750,-0.9206164142
0.11800,-2.75178286
0.11850,-2.75178286
0.11900,-1.225810822
0.11950,-0.6154220065
0.12000,-0.6154220065
0.12050,-0.3102275988
0.12100,0.3001612166
0.12150,0.6053556243
0.12200,0.3001612166
0.12250,0.3001612166
0.12300,1.21574444
0.12350,1.520938847
0.12400,-0.005033191132
0.12450,-1.225810822
0.12500,-0.6154220065
0.12550,0.6053556243
0.12600,1.520938847
0.12650,0.910550032
0.12700,1.21574444
0.12750,2.131327663
0.12800,2.43652207
0.12850,1.826133255
0.12900,2.131327663
0.12950,3.352105294
0.13000,5.18327174
0.13050,4.878077332
0.13100,3.046910886
0.13150,1.21574444
0.13200,-0.005033191132
0.13250,-1.225810822
0.13300,-2.141394045
0.13350,-2.446588453
0.13400,-2.446588453
0.13450,-2.75178286
0.13500,-2.75178286
0.13550,-1.225810822
0.13600,0.910550032
0.13650,2.43652207
0.13700,2.131327663
0.13750,1.21574444
0.13800,0.910550032
0.13850,0.6053556243
0.13900,-0.005033191132
0.13950,-1.53100523
0.14000,-1.53100523
0.14050,-0.6154220065
0.14100,-0.9206164142
0.14150,-2.75178286
0.14200,-3.972560491
0.14250,-3.056977268
0.14300,-1.225810822
0.14350,-0.005033191132
0.14400,0.3001612166
0.14450,-0.005033191132
0.14500,-0.3102275988
0.14550,-0.9206164142
0.14600,-1.225810822
0.14650,-0.6154220065
0.14700,-0.005033191132
0.14750,-0.005033191132
0.14800,-0.005033191132
0.14850,-0.3102275988
0.14900,-0.9206164142
0.14950,-0.9206164142
0.15000,-0.005033191132
0.15050,0.3001612166
0.15100,-0.005033191132
0.15150,-0.6154220065
0.15200,-0.3102275988
0.15250,0.3001612166
0.15300,0.910550032
0.15350,0.3001612166
0.15400,-0.005033191132
0.15450,0.3001612166
0.15500,0.6053556243
0.15550,0.6053556243
0.15600,0.6053556243
0.15650,0.910550032
0.15700,1.520938847
0.15750,1.21574444
0.15800,0.6053556243
0.15850,0.6053556243
0.15900,1.21574444
0.15950,1.826133255
0.16000,1.21574444
0.16050,0.3001612166
0.16100,-0.005033191132
0.16150,0.6053556243
0.16200,0.910550032
0.16250,0.3001612166
0.16300,-0.005033191132
0.16350,0.3001612166
0.16400,0.910550032
0.16450,0.910550032
0.16500,-0.005033191132
0.16550,-0.9206164142
0.16600,-0.9206164142
0.16650,-0.3102275988
0.16700,0.6053556243
0.16750,1.520938847
0.16800,1.520938847
0.16850,1.21574444
0.16900,0.910550032
0.16950,0.3001612166
0.17000,-0.005033191132
0.17050,-0.9206164142
0.17100,-0.9206164142
0.17150,-0.6154220065
0.17200,-0.3102275988
0.17250,-0.3102275988
0.17300,-0.3102275988
0.17350,-0.005033191132
0.17400,-0.005033191132
0.17450,-0.005033191132
0.17500,-0.005033191132
0.17550,0.6053556243
0.17600,0.910550032
0.17650,0.6053556243
0.17700,-0.3102275988
0.17750,-0.9206164142
0.17800,-0.9206164142
0.17850,-0.3102275988
0.17900,-0.6154220065
0.17950,-0.9206164142
0.18000,-0.6154220065
0.18050,-0.005033191132
0.18100,0.3001612166
0.18150,0.3001612166
0.18200,-0.005033191132
0.18250,0.3001612166
0.18300,0.6053556243
0.18350,-0.005033191132
0.18400,-1.225810822
0.18450,-2.141394045
0.18500,-0.9206164142
0.18550,0.910550032
0.18600,1.520938847
0.18650,-0.005033191132
0.18700,-0.9206164142
0.18750,-0.005033191132
0.18800,0.910550032
0.18850,1.21574444
0.18900,1.21574444
0.18950,1.520938847
0.19000,1.520938847
0.19050,0.910550032
0.19100,0.6053556243
0.19150,1.520938847
0.19200,2.131327663
0.19250,1.520938847
0.19300,0.3001612166
0.19350,-0.005033191132
0.19400,0.3001612166
0.19450,0.6053556243
0.19500,0.6053556243
0.19550,1.21574444
0.19600,1.826133255
0.19650,1.826133255
0.19700,0.6053556243
0.19750,-0.3102275988
0.19800,-1.225810822
0.19850,-1.225810822
0.19900,-0.3102275988
0.19950,-0.005033191132
0.20000,-0.005033191132
0.20050,-0.005033191132
0.20100,-0.005033191132
0.20150,0.3001612166
0.20200,-0.005033191132
0.20250,-0.6154220065
0.20300,-0.9206164142
0.20350,-0.005033191132
0.20400,0.3001612166
0.20450,-0.005033191132
0.20500,-0.3102275988
0.20550,-0.6154220065
0.20600,-0.9206164142
0.20650,-1.225810822
0.20700,-0.9206164142
0.20750,-0.3102275988
0.20800,-0.3102275988
0.20850,-1.225810822
0.20900,-1.53100523
0.20950,-1.53100523
0.21000,-0.9206164142
0.21050,-0.9206164142
0.21100,-0.3102275988
0.21150,0.3001612166
0.21200,0.6053556243
0.21250,-0.005033191132
0.21300,-0.3102275988
0.21350,-0.6154220065
0.21400,-0.9206164142
0.21450,-1.225810822
0.21500,-0.9206164142
0.21550,-0.6154220065
0.21600,-0.6154220065
0.21650,-0.6154220065
0.21700,0.3001612166
0.21750,1.826133255
0.21800,1.520938847
0.21850,-0.005033191132
0.21900,-0.3102275988
0.21950,0.6053556243
0.22000,1.21574444
0.22050,0.3001612166
0.22100,-0.005033191132
0.22150,0.910550032
0.22200,2.43652207
0.22250,2.43652207
0.22300,1.826133255
0.22350,1.826133255
0.22400,2.131327663
0.22450,1.520938847
0.22500,0.3001612166
0.22550,-0.005033191132
0.22600,0.6053556243
0.22650,0.6053556243
0.22700,0.3001612166
0.22750,-0.005033191132
0.22800,-0.005033191132
0.22850,-0.3102275988
0.22900,-0.3102275988
0.22950,0.3001612166
0.23000,0.910550032
0.23050,0.910550032
0.23100,0.3001612166
0.23150,-0.005033191132
0.23200,0.6053556243
0.23250,0.6053556243
0.23300,-0.005033191132
0.23350,-0.3102275988
0.23400,0.3001612166
0.23450,0.910550032
0.23500,-0.3102275988
0.23550,-2.141394045
0.23600,-2.141394045
0.23650,-0.3102275988
0.23700,0.3001612166
0.23750,-0.6154220065
0.23800,-1.225810822
0.23850,-0.005033191132
0.23900,0.6053556243
0.23950,-0.005033191132
0.24000,-1.836199637
0.24050,-2.446588453
0.24100,-2.141394045
0.24150,-1.225810822
0.24200,-0.3102275988
0.24250,0.6053556243
0.24300,0.910550032
0.24350,0.3001612166
0.24400,-0.005033191132
0.24450,-0.005033191132
0.24500,-0.005033191132
0.24550,-0.005033191132
0.24600,0.3001612166
0.24650,1.520938847
0.24700,1.520938847
0.24750,-0.005033191132
0.24800,-1.836199637
0.24850,-1.53100523
0.24900,-0.005033191132
0.24950,-0.3102275988
0.25000,-1.836199637
0.25050,-2.141394045
0.25100,-0.6154220065
0.25150,-0.005033191132
0.25200,-0.005033191132
0.25250,-0.005033191132
0.25300,0.910550032
0.25350,1.520938847
0.25400,1.21574444
0.25450,1.21574444
0.25500,1.520938847
0.25550,1.520938847
0.25600,0.3001612166
0.25650,-0.3102275988
0.25700,-0.005033191132
0.25750,1.21574444
0.25800,1.520938847
0.25850,0.6053556243
0.25900,-0.005033191132
0.25950,-0.3102275988
0.26000,-0.6154220065
0.26050,-0.9206164142
0.26100,-0.6154220065
0.26150,-0.005033191132
0.26200,0.6053556243
0.26250,1.21574444
0.26300,1.21574444
0.26350,0.910550032
0.26400,-0.005033191132
0.26450,-0.005033191132
0.26500,-0.005033191132
0.26550,-0.005033191132
0.26600,-0.005033191132
0.26650,-0.3102275988
0.26700,-0.005033191132
0.26750,0.3001612166
0.26800,1.21574444
0.26850,1.520938847
0.26900,1.21574444
0.26950,0.910550032
0.27000,0.6053556243
0.27050,-0.005033191132
0.27100,-0.9206164142
0.27150,-1.225810822
0.27200,-0.6154220065
0.27250,-0.005033191132
0.27300,-0.005033191132
0.27350,-0.3102275988
0.27400,-0.3102275988
0.27450,-0.005033191132
0.27500,0.3001612166
0.27550,0.3001612166
0.27600,-0.005033191132
0.27650,-0.005033191132
0.27700,0.3001612166
0.27750,0.910550032
0.27800,1.21574444
0.27850,1.520938847
0.27900,1.21574444
0.27950,0.910550032
0.28000,0.3001612166
0.28050,-0.005033191132
0.28100,-0.005033191132
0.28150,-0.005033191132
0.28200,-0.3102275988
0.28250,-1.225810822
0.28300,-2.141394045
0.28350,-2.141394045
0.28400,-1.225810822
0.28450,-0.3102275988
0.28500,-0.005033191132
0.28550,-0.005033191132
0.28600,-0.005033191132
0.28650,-0.005033191132
0.28700,-0.005033191132
0.28750,-0.005033191132
0.28800,0.3001612166
0.28850,-0.005033191132
0.28900,-0.3102275988
0.28950,-0.6154220065
0.29000,-0.3102275988
0.29050,0.3001612166
0.29100,-0.005033191132
0.29150,-0.005033191132
0.29200,-0.005033191132
0.29250,0.910550032
0.29300,1.826133255
0.29350,1.520938847
0.29400,-0.005033191132
0.29450,-0.9206164142
0.29500,-0.9206164142
0.29550,-0.005033191132
0.29600,1.520938847
0.29650,2.741716478
0.29700,2.741716478
0.29750,2.131327663
0.29800,1.520938847
0.29850,0.6053556243
0.29900,-0.6154220065
0.29950,-1.836199637
0.30000,-2.446588453
0.30050,-2.446588453
0.30100,-2.446588453
0.30150,-3.056977268
0.30200,-3.056977268
0.30250,-2.446588453
0.30300,-1.836199637
0.30350,-2.446588453
0.30400,-3.056977268
0.30450,-3.056977268
0.30500,-1.53100523
0.30550,-0.005033191132
0.30600,0.6053556243
0.30650,0.3001612166
0.30700,-0.005033191132
0.30750,-0.3102275988
0.30800,-0.005033191132
0.30850,0.3001612166
0.30900,0.3001612166
0.30950,-0.005033191132
0.31000,-0.6154220065
0.31050,-0.3102275988
0.31100,0.3001612166
0.31150,1.21574444
0.31200,1.21574444
0.31250,0.910550032
0.31300,0.6053556243
0.31350,-0.005033191132
0.31400,-1.53100523
0.31450,-1.836199637
0.31500,-0.9206164142
0.31550,0.3001612166
0.31600,0.6053556243
0.31650,0.3001612166
0.31700,-0.005033191132
0.31750,0.3001612166
0.31800,0.3001612166
0.31850,-0.005033191132
0.31900,-0.005033191132
0.31950,0.6053556243
0.32000,0.910550032
0.32050,-0.005033191132
0.32100,-1.225810822
0.32150,-1.836199637
0.32200,-0.9206164142
0.32250,-0.005033191132
0.32300,-0.005033191132
0.32350,-0.3102275988
0.32400,-0.3102275988
0.32450,-0.005033191132
0.32500,-0.005033191132
0.32550,-0.3102275988
0.32600,-0.005033191132
0.32650,0.910550032
0.32700,1.21574444
0.32750,-0.005033191132
0.32800,-0.3102275988
0.32850,-0.005033191132
0.32900,0.6053556243
0.32950,-0.005033191132
0.33000,-0.9206164142
0.33050,-0.005033191132
0.33100,1.520938847
0.33150,1.520938847
0.33200,-0.005033191132
0.33250,-1.225810822
0.33300,-0.005033191132
0.33350,1.21574444
0.33400,1.21574444
0.33450,-0.005033191132
0.33500,-0.005033191132
0.33550,0.3001612166
0.33600,0.3001612166
0.33650,0.3001612166
0.33700,0.910550032
0.33750,0.910550032
0.33800,0.6053556243
0.33850,-0.005033191132
0.33900,-0.005033191132
0.33950,-0.005033191132
0.34000,-0.005033191132
0.34050,-0.005033191132
0.34100,0.6053556243
0.34150,0.6053556243
0.34200,0.6053556243
0.34250,0.910550032
0.34300,1.826133255
0.34350,1.826133255
0.34400,0.3001612166
0.34450,-0.6154220065
0.34500,-0.005033191132
0.34550,1.520938847
0.34600,1.826133255
0.34650,-0.005033191132
0.34700,-1.225810822
0.34750,-0.6154220065
0.34800,-0.005033191132
0.34850,-0.005033191132
0.34900,-0.9206164142
0.34950,-1.53100523
0.35000,-1.836199637
0.35050,-1.836199637
0.35100,-1.53100523
0.35150,-0.9206164142
0.35200,-0.6154220065
0.35250,-0.9206164142
0.35300,-1.53100523
0.35350,-1.225810822
0.35400,-0.005033191132
0.35450,0.3001612166
0.35500,-0.005033191132
0.35550,-0.9206164142
0.35600,-0.9206164142
0.35650,-0.6154220065
0.35700,-0.3102275988
0.35750,-0.005033191132
0.35800,0.910550032
0.35850,1.520938847
0.35900,1.21574444
0.35950,-0.005033191132
0.36000,-0.6154220065
0.36050,-0.9206164142
0.36100,-1.225810822
0.36150,-0.9206164142
0.36200,-0.9206164142
0.36250,-0.9206164142
0.36300,-0.6154220065
0.36350,-0.3102275988
0.36400,-0.3102275988
0.36450,-1.225810822
0.36500,-1.836199637
0.36550,-0.9206164142
0.36600,1.21574444
0.36650,2.741716478
0.36700,2.131327663
0.36750,0.6053556243
0.36800,-0.005033191132
0.36850,0.6053556243
0.36900,1.520938847
0.36950,1.826133255
0.37000,1.520938847
0.37050,0.910550032
0.37100,0.3001612166
0.37150,-0.005033191132
0.37200,-0.005033191132
0.37250,0.3001612166
0.37300,0.3001612166
0.37350,0.3001612166
0.37400,0.3001612166
0.37450,-0.005033191132
0.37500,-0.6154220065
0.37550,-0.9206164142
0.37600,-1.225810822
0.37650,-1.836199637
0.37700,-2.75178286
0.37750,-3.056977268
0.37800,-2.75178286
0.37850,-2.75178286
0.37900,-3.056977268
0.37950,-2.75178286
0.38000,-1.225810822
0.38050,-0.3102275988
0.38100,-0.6154220065
0.38150,-0.9206164142
0.38200,-0.3102275988
0.38250,0.3001612166
0.38300,0.3001612166
0.38350,-0.005033191132
0.38400,-0.005033191132
0.38450,0.3001612166
0.38500,-0.005033191132
0.38550,-0.005033191132
0.38600,-0.005033191132
0.38650,-0.005033191132
0.38700,-0.9206164142
0.38750,-1.836199637
0.38800,-1.225810822
0.38850,-0.005033191132
0.38900,-0.005033191132
0.38950,-0.6154220065
0.39000,-0.3102275988
0.39050,0.3001612166
0.39100,0.6053556243
0.39150,-0.005033191132
0.39200,-0.005033191132
0.39250,0.6053556243
0.39300,1.21574444
0.39350,0.910550032
0.39400,-0.005033191132
0.39450,-0.6154220065
0.39500,-0.3102275988
0.39550,0.3001612166
0.39600,1.21574444
0.39650,2.131327663
0.39700,2.741716478
0.39750,3.046910886
0.39800,3.046910886
0.39850,2.43652207
0.39900,1.520938847
0.39950,1.21574444
0.40000,1.21574444
0.40050,1.520938847
0.40100,1.520938847
0.40150,1.520938847
0.40200,1.826133255
0.40250,0.910550032
0.40300,-0.005033191132
0.40350,-0.005033191132
0.40400,0.6053556243
0.40450,0.6053556243
0.40500,-0.005033191132
0.40550,-0.9206164142
0.40600,-0.9206164142
0.40650,-0.005033191132
0.40700,-0.005033191132
0.40750,-0.005033191132
0.40800,-0.005033191132
0.40850,-0.005033191132
0.40900,-0.005033191132
0.40950,0.3001612166
0.41000,1.520938847
0.41050,2.43652207
0.41100,1.21574444
0.41150,-0.005033191132
0.41200,-0.005033191132
0.41250,0.910550032
0.41300,1.21574444
0.41350,0.910550032
0.41400,0.910550032
0.41450,1.520938847
0.41500,1.21574444
0.41550,-0.005033191132
0.41600,-0.6154220065
0.41650,-0.005033191132
0.41700,0.3001612166
0.41750,0.3001612166
0.41800,-0.005033191132
0.41850,-0.005033191132
0.41900,-0.005033191132
0.41950,-0.005033191132
0.42000,0.3001612166
0.42050,0.910550032
0.42100,0.3001612166
0.42150,-0.6154220065
0.42200,-0.9206164142
0.42250,0.3001612166
0.42300,1.21574444
0.42350,0.910550032
0.42400,-0.005033191132
0.42450,0.3001612166
0.42500,0.6053556243
0.42550,-0.005033191132
0.42600,-0.6154220065
0.42650,-0.3102275988
0.42700,-0.005033191132
0.42750,-0.3102275988
0.42800,-1.225810822
0.42850,-1.53100523
0.42900,-0.9206164142
0.42950,-0.3102275988
0.43000,-0.005033191132
0.43050,-0.005033191132
0.43100,-0.3102275988
0.43150,-1.53100523
0.43200,-2.446588453
0.43250,-1.53100523
0.43300,-0.005033191132
0.43350,0.3001612166
0.43400,-0.3102275988
0.43450,-0.9206164142
0.43500,-0.3102275988
0.43550,-0.005033191132
0.43600,0.6053556243
0.43650,0.910550032
0.43700,0.6053556243
0.43750,-0.6154220065
0.43800,-1.53100523
0.43850,-0.9206164142
0.43900,0.3001612166
0.43950,0.6053556243
0.44000,-0.005033191132
0.44050,-0.6154220065
0.44100,-0.005033191132
0.44150,-0.005033191132
0.44200,-0.6154220065
0.44250,-0.6154220065
0.44300,-0.005033191132
0.44350,-0.005033191132
0.44400,-0.6154220065
0.44450,-0.6154220065
0.44500,0.3001612166
0.44550,0.910550032
0.44600,-0.005033191132
0.44650,-1.53100523
0.44700,-0.9206164142
0.44750,0.6053556243
0.44800,1.520938847
0.44850,0.6053556243
0.44900,-0.005033191132
0.44950,-0.3102275988
0.45000,-0.6154220065
0.45050,-0.3102275988
0.45100,0.6053556243
0.45150,0.910550032
0.45200,-0.3102275988
0.45250,-2.141394045
0.45300,-2.141394045
0.45350,-1.225810822
0.45400,-1.225810822
0.45450,-2.141394045
0.45500,-1.53100523
0.45550,-0.005033191132
0.45600,0.3001612166
0.45650,-0.3102275988
0.45700,-1.225810822
0.45750,-0.3102275988
0.45800,-0.005033191132
0.45850,-0.005033191132
0.45900,-0.005033191132
0.45950,-0.005033191132
0.46000,-0.005033191132
0.46050,-0.3102275988
0.46100,-0.3102275988
0.46150,0.6053556243
0.46200,0.910550032
0.46250,-0.005033191132
0.46300,-0.3102275988
0.46350,-0.005033191132
0.46400,0.3001612166
0.46450,-0.005033191132
0.46500,-0.9206164142
0.46550,-0.9206164142
0.46600,-1.225810822
0.46650,-1.53100523
0.46700,-1.53100523
0.46750,-0.3102275988
0.46800,0.3001612166
0.46850,-0.005033191132
0.46900,-0.005033191132
0.46950,-0.005033191132
0.47000,-0.005033191132
0.47050,-0.005033191132
0.47100,0.6053556243
0.47150,1.826133255
0.47200,1.21574444
0.47250,-0.005033191132
0.47300,-0.3102275988
0.47350,1.520938847
0.47400,2.741716478
0.47450,1.826133255
0.47500,0.6053556243
0.47550,0.910550032
0.47600,1.520938847
0.47650,1.520938847
0.47700,1.826133255
0.47750,3.352105294
0.47800,4.572882924
0.47850,3.046910886
0.47900,-0.005033191132
0.47950,-1.836199637
0.48000,-1.53100523
0.48050,-0.3102275988
0.48100,-0.005033191132
0.48150,-1.225810822
0.48200,-3.056977268
0.48250,-4.582949307
0.48300,-4.582949307
0.48350,-3.972560491
0.48400,-3.972560491
0.48450,-4.888143714
0.48500,-4.888143714
0.48550,-3.056977268
0.48600,-1.225810822
0.48650,-1.225810822
0.48700,-1.836199637
0.48750,-1.53100523
0.48800,-0.005033191132
0.48850,0.910550032
0.48900,0.3001612166
0.48950,-0.005033191132
0.49000,-0.005033191132
0.49050,0.3001612166
0.49100,-0.005033191132
0.49150,-0.3102275988
0.49200,-0.3102275988
0.49250,-0.005033191132
0.49300,0.6053556243
0.49350,0.3001612166
0.49400,-0.005033191132
0.49450,-0.005033191132
0.49500,-0.005033191132
0.49550,-0.005033191132
0.49600,-0.005033191132
0.49650,-0.005033191132
0.49700,0.3001612166
0.49750,0.910550032
0.49800,0.910550032
0.49850,0.6053556243
0.49900,0.3001612166
0.49950,0.910550032
0.50000,1.21574444
0.50050,1.21574444
0.50100,0.3001612166
0.50150,-0.005033191132
0.50200,-0.3102275988
0.50250,-0.3102275988
0.50300,-0.3102275988
0.50350,-0.6154220065
0.50400,-0.005033191132
0.50450,1.21574444
0.50500,2.131327663
0.50550,1.826133255
0.50600,0.3001612166
0.50650,-0.3102275988
0.50700,0.6053556243
0.50750,1.826133255
0.50800,1.520938847
0.50850,0.3001612166
0.50900,-0.3102275988
0.50950,-0.005033191132
0.51000,1.21574444
0.51050,2.131327663
0.51100,2.131327663
0.51150,0.910550032
0.51200,-0.005033191132
0.51250,-0.3102275988
0.51300,0.6053556243
0.51350,2.43652207
0.51400,2.741716478
0.51450,1.826133255
0.51500,0.910550032
0.51550,0.6053556243
0.51600,-0.005033191132
0.51650,-0.005033191132
0.51700,-0.005033191132
0.51750,0.910550032
0.51800,0.910550032
0.51850,-0.005033191132
0.51900,-0.005033191132
0.51950,0.910550032
0.52000,1.21574444
0.52050,0.3001612166
0.52100,-0.005033191132
0.52150,-0.005033191132
0.52200,-0.005033191132
0.52250,-0.9206164142
0.52300,-1.225810822
0.52350,-0.3102275988
0.52400,0.3001612166
0.52450,0.3001612166
0.52500,-0.3102275988
0.52550,-0.3102275988
0.52600,-0.005033191132
0.52650,-0.3102275988
0.52700,-1.225810822
0.52750,-1.225810822
0.52800,-0.6154220065
0.52850,-0.6154220065
0.52900,-1.225810822
0.52950,-0.9206164142
0.53000,0.6053556243
0.53050,1.520938847
0.53100,0.910550032
0.53150,-0.3102275988
0.53200,-0.3102275988
0.53250,0.3001612166
0.53300,0.910550032
0.53350,0.3001612166
0.53400,-0.005033191132
0.53450,0.3001612166
0.53500,1.21574444
0.53550,0.3001612166
0.53600,-0.9206164142
0.53650,-0.9206164142
0.53700,0.3001612166
0.53750,1.520938847
0.53800,0.6053556243
0.53850,-0.005033191132
0.53900,-0.005033191132
0.53950,0.910550032
0.54000,1.21574444
0.54050,0.6053556243
0.54100,0.3001612166
0.54150,0.3001612166
0.54200,0.3001612166
0.54250,0.3001612166
0.54300,0.3001612166
0.54350,0.6053556243
0.54400,0.910550032
0.54450,1.21574444
0.54500,0.6053556243
0.54550,-0.005033191132
0.54600,-0.005033191132
0.54650,-0.3102275988
0.54700,-0.6154220065
0.54750,-0.6154220065
0.54800,-0.005033191132
0.54850,1.520938847
0.54900,2.741716478
0.54950,1.826133255
0.55000,0.3001612166
0.55050,-0.005033191132
0.55100,-0.005033191132
0.55150,0.6053556243
0.55200,0.3001612166
0.55250,0.6053556243
0.55300,1.520938847
0.55350,1.21574444
0.55400,-0.6154220065
0.55450,-2.141394045
0.55500,-1.225810822
0.55550,0.6053556243
0.55600,1.21574444
0.55650,-0.3102275988
0.55700,-1.836199637
0.55750,-1.836199637
0.55800,-1.225810822
0.55850,-1.53100523
0.55900,-2.141394045
0.55950,-2.75178286
0.56000,-3.056977268
0.56050,-2.75178286
0.56100,-1.836199637
0.56150,-0.6154220065
0.56200,-0.005033191132
0.56250,-0.3102275988
0.56300,-0.6154220065
0.56350,-0.6154220065
0.56400,-0.3102275988
0.56450,-0.3102275988
0.56500,-0.3102275988
0.56550,-0.3102275988
0.56600,-0.6154220065
0.56650,-1.53100523
0.56700,-1.836199637
0.56750,-1.53100523
0.56800,-1.225810822
0.56850,-1.53100523
0.56900,-0.9206164142
0.56950,-0.3102275988
0.57000,-0.6154220065
0.57050,-1.836199637
0.57100,-2.446588453
0.57150,-1.836199637
0.57200,-0.6154220065
0.57250,-0.3102275988
0.57300,-0.3102275988
0.57350,0.3001612166
0.57400,1.520938847
0.57450,1.21574444
0.57500,0.6053556243
0.57550,0.3001612166
0.57600,0.6053556243
0.57650,0.6053556243
0.57700,-0.005033191132
0.57750,-0.3102275988
0.57800,0.3001612166
0.57850,1.520938847
0.57900,1.21574444
0.57950,0.3001612166
0.58000,0.3001612166
0.58050,1.21574444
0.58100,2.43652207
0.58150,2.131327663
0.58200,0.910550032
0.58250,-0.005033191132
0.58300,-0.005033191132
0.58350,0.3001612166
0.58400,-0.005033191132
0.58450,-0.6154220065
0.58500,-0.6154220065
0.58550,0.3001612166
0.58600,0.6053556243
0.58650,-0.005033191132
0.58700,-0.005033191132
0.58750,0.3001612166
0.58800,1.520938847
0.58850,1.520938847
0.58900,0.6053556243
0.58950,-0.005033191132
0.59000,-0.005033191132
0.59050,-0.3102275988
0.59100,-0.6154220065
0.59150,-0.6154220065
0.59200,-0.005033191132
0.59250,1.21574444
0.59300,1.520938847
0.59350,1.520938847
0.59400,0.910550032
0.59450,-0.005033191132
0.59500,-0.3102275988
0.59550,-0.3102275988
0.59600,-0.005033191132
0.59650,-0.005033191132
0.59700,-0.005033191132
0.59750,-0.6154220065
0.59800,-0.3102275988
0.59850,-0.005033191132
0.59900,0.910550032
0.59950,1.520938847
0.60000,1.520938847
0.60050,0.6053556243
0.60100,-0.005033191132
0.60150,-0.6154220065
0.60200,-0.3102275988
0.60250,-0.005033191132
0.60300,-0.005033191132
0.60350,-1.225810822
0.60400,-2.446588453
0.60450,-1.836199637
0.60500,-0.005033191132
0.60550,1.826133255
0.60600,1.520938847
0.60650,0.910550032
0.60700,0.3001612166
0.60750,0.3001612166
0.60800,-0.005033191132
0.60850,0.6053556243
0.60900,1.520938847
0.60950,1.520938847
0.61000,-0.005033191132
0.61050,-1.53100523
0.61100,-0.9206164142
0.61150,0.910550032
0.61200,1.520938847
0.61250,0.3001612166
0.61300,-0.6154220065
0.61350,-0.6154220065
0.61400,-0.005033191132
0.61450,-0.3102275988
0.61500,-1.225810822
0.61550,-1.53100523
0.61600,-0.9206164142
0.61650,0.3001612166
0.61700,0.6053556243
0.61750,-0.6154220065
0.61800,-1.836199637
0.61850,-1.225810822
0.61900,0.6053556243
0.61950,1.520938847
0.62000,0.6053556243
0.62050,-0.005033191132
0.62100,0.910550032
0.62150,1.520938847
0.62200,0.6053556243
0.62250,-0.3102275988
0.62300,-0.005033191132
0.62350,0.910550032
0.62400,1.21574444
0.62450,-0.3102275988
0.62500,-2.141394045
0.62550,-2.446588453
0.62600,-1.225810822
0.62650,0.910550032
0.62700,3.657299701
0.62750,5.488466147
0.62800,5.18327174
0.62850,3.352105294
0.62900,2.131327663
0.62950,1.826133255
0.63000,1.520938847
0.63050,1.21574444
0.63100,0.6053556243
0.63150,-0.005033191132
0.63200,-0.6154220065
0.63250,-1.225810822
0.63300,-1.836199637
0.63350,-2.75178286
0.63400,-4.582949307
0.63450,-5.803726937
0.63500,-4.888143714
0.63550,-2.75178286
0.63600,-2.141394045
0.63650,-3.362171676
0.63700,-3.972560491
0.63750,-2.446588453
0.63800,-0.6154220065
0.63850,-0.005033191132
0.63900,-0.3102275988
0.63950,-0.005033191132
0.64000,0.3001612166
0.64050,0.3001612166
0.64100,-0.005033191132
0.64150,-0.3102275988
0.64200,0.3001612166
0.64250,1.826133255
0.64300,3.352105294
0.64350,4.878077332
0.64400,4.878077332
0.64450,3.657299701
0.64500,2.741716478
0.64550,3.352105294
0.64600,3.962494109
0.64650,2.741716478
0.64700,0.3001612166
0.64750,-0.9206164142
0.64800,-0.6154220065
0.64850,-0.3102275988
0.64900,-0.6154220065
0.64950,-0.6154220065
0.65000,-0.6154220065
0.65050,-1.836199637
0.65100,-3.667366084
0.65150,-5.193338122
0.65200,-4.582949307
0.65250,-3.667366084
0.65300,-3.056977268
0.65350,-3.362171676
0.65400,-3.667366084
0.65450,-3.362171676
0.65500,-2.75178286
0.65550,-2.75178286
0.65600,-2.75178286
0.65650,-2.75178286
0.65700,-2.141394045
0.65750,-0.9206164142
0.65800,-0.005033191132
0.65850,-0.005033191132
0.65900,-0.6154220065
0.65950,-0.6154220065
0.66000,-0.005033191132
0.66050,0.3001612166
0.66100,-0.3102275988
0.66150,-1.225810822
0.66200,-0.3102275988
0.66250,1.21574444
0.66300,1.826133255
0.66350,0.910550032
0.66400,-0.005033191132
0.66450,-0.3102275988
0.66500,-0.9206164142
0.66550,-1.53100523
0.66600,-1.53100523
0.66650,-0.9206164142
0.66700,-0.6154220065
0.66750,-0.9206164142
0.66800,-1.53100523
0.66850,-1.53100523
0.66900,-1.53100523
0.66950,-1.53100523
0.67000,-1.225810822
0.67050,-0.6154220065
0.67100,-0.005033191132
0.67150,0.3001612166
0.67200,0.3001612166
0.67250,0.3001612166
0.67300,0.6053556243
0.67350,0.3001612166
0.67400,-0.6154220065
0.67450,-0.9206164142
0.67500,-0.005033191132
0.67550,1.21574444
0.67600,2.43652207
0.67650,2.131327663
0.67700,1.826133255
0.67750,1.520938847
0.67800,1.520938847
0.67850,1.21574444
0.67900,0.6053556243
0.67950,0.3001612166
0.68000,0.6053556243
0.68050,1.21574444
0.68100,1.21574444
0.68150,1.21574444
0.68200,0.910550032
0.68250,0.910550032
0.68300,1.520938847
0.68350,1.826133255
0.68400,1.520938847
0.68450,0.6053556243
0.68500,0.6053556243
0.68550,0.910550032
0.68600,0.910550032
0.68650,0.3001612166
0.68700,0.3001612166
0.68750,1.826133255
0.68800,3.046910886
0.68850,2.43652207
0.68900,0.6053556243
0.68950,-0.005033191132
0.69000,-0.005033191132
0.69050,-0.005033191132
0.69100,-0.005033191132
0.69150,-0.005033191132
0.69200,1.520938847
0.69250,2.43652207
0.69300,1.520938847
0.69350,0.3001612166
0.69400,-0.005033191132
0.69450,0.3001612166
0.69500,0.910550032
0.69550,1.21574444
0.69600,1.21574444
0.69650,0.3001612166
0.69700,-0.005033191132
0.69750,-0.005033191132
0.69800,1.21574444
0.69850,0.6053556243
0.69900,-1.836199637
0.69950,-3.362171676
0.70000,-1.836199637
0.70050,0.3001612166
0.70100,1.21574444
0.70150,0.6053556243
0.70200,-0.005033191132
0.70250,0.3001612166
0.70300,-0.005033191132
0.70350,-0.005033191132
0.70400,0.3001612166
0.70450,0.910550032
0.70500,0.910550032
0.70550,0.3001612166
0.70600,0.910550032
0.70650,2.131327663
0.70700,1.826133255
0.70750,-0.005033191132
0.70800,-1.836199637
0.70850,-1.53100523
0.70900,0.3001612166
0.70950,1.21574444
0.71000,0.910550032
0.71050,-0.005033191132
0.71100,-0.005033191132
0.71150,-0.005033191132
0.71200,-0.005033191132
0.71250,-0.6154220065
0.71300,-1.225810822
0.71350,-1.225810822
0.71400,-0.9206164142
0.71450,-0.6154220065
0.71500,-0.3102275988
0.71550,-0.3102275988
0.71600,-0.3102275988
0.71650,-0.3102275988
0.71700,-0.005033191132
0.71750,-0.005033191132
0.71800,-0.005033191132
0.71850,0.6053556243
0.71900,0.910550032
0.71950,-0.005033191132
0.72000,-0.6154220065
0.72050,-0.9206164142
0.72100,-0.3102275988
0.72150,-0.005033191132
0.72200,0.3001612166
0.72250,0.3001612166
0.72300,0.6053556243
0.72350,1.21574444
0.72400,0.910550032
0.72450,0.6053556243
0.72500,0.3001612166
0.72550,0.910550032
0.72600,1.826133255
0.72650,2.131327663
0.72700,1.21574444
0.72750,0.3001612166
0.72800,1.21574444
0.72850,3.046910886
0.72900,4.572882924
0.72950,4.878077332
0.73000,4.878077332
0.73050,5.488466147
0.73100,6.709243778
0.73150,7.014438186
0.73200,6.404049371
0.73250,5.488466147
0.73300,4.572882924
0.73350,3.657299701
0.73400,2.43652207
0.73450,0.6053556243
0.73500,-1.53100523
0.73550,-3.667366084
0.73600,-4.888143714
0.73650,-5.803726937
0.73700,-6.719310161
0.73750,-7.940087791
0.73800,-7.940087791
0.73850,-6.414115753
0.73900,-4.277754899
0.73950,-3.362171676
0.74000,-3.972560491
0.74050,-3.972560491
0.74100,-3.056977268
0.74150,-1.53100523
0.74200,-0.3102275988
0.74250,1.21574444
0.74300,3.657299701
0.74350,5.488466147
0.74400,5.488466147
0.74450,3.962494109
0.74500,2.131327663
0.74550,0.6053556243
0.74600,-0.6154220065
0.74650,-2.446588453
0.74700,-3.056977268
0.74750,-2.75178286
0.74800,-1.53100523
0.74850,-0.005033191132
0.74900,1.520938847
0.74950,1.21574444
0.75000,-1.836199637
0.75050,-5.49853253
0.75100,-4.888143714
0.75150,-0.005033191132
0.75200,3.962494109
0.75250,3.046910886
0.75300,1.520938847
0.75350,4.267688517
0.75400,9.15079904
0.75450,9.455993448
0.75500,5.18327174
0.75550,1.826133255
0.75600,1.826133255
0.75650,1.520938847
0.75700,-0.9206164142
0.75750,-3.972560491
0.75800,-4.888143714
0.75850,-5.49853253
0.75900,-7.634893384
0.75950,-10.68683746
0.76000,-11.60242068
0.76050,-11.29722628
0.76100,-11.60242068
0.76150,-11.90761509
0.76200,-10.99203187
0.76250,-8.855671014
0.76300,-7.329698976
0.76350,-7.940087791
0.76400,-8.855671014
0.76450,-8.550476607
0.76500,-7.329698976
0.76550,-5.49853253
0.76600,-3.667366084
0.76650,-2.446588453
0.76700,-1.225810822
0.76750,-0.005033191132
0.76800,1.826133255
0.76850,2.741716478
0.76900,2.131327663
0.76950,1.520938847
0.77000,3.046910886
0.77050,5.793660555
0.77100,6.098854963
0.77150,2.741716478
0.77200,-0.9206164142
0.77250,-2.446588453
0.77300,-1.836199637
0.77350,-1.53100523
0.77400,-1.836199637
0.77450,-1.836199637
0.77500,-1.53100523
0.77550,-1.836199637
0.77600,-3.362171676
0.77650,-4.888143714
0.77700,-5.49853253
0.77750,-4.888143714
0.77800,-3.056977268
0.77850,-0.3102275988
0.77900,1.826133255
0.77950,3.046910886
0.78000,2.43652207
0.78050,1.21574444
0.78100,1.21574444
0.78150,2.43652207
0.78200,3.657299701
0.78250,3.657299701
0.78300,3.352105294
0.78350,3.352105294
0.78400,3.962494109
0.78450,4.267688517
0.78500,3.657299701
0.78550,2.741716478
0.78600,2.131327663
0.78650,2.741716478
0.78700,2.741716478
0.78750,2.43652207
0.78800,1.826133255
0.78850,1.520938847
0.78900,1.21574444
0.78950,0.6053556243
0.79000,0.6053556243
0.79050,1.520938847
0.79100,1.826133255
0.79150,0.910550032
0.79200,-0.005033191132
0.79250,0.3001612166
0.79300,1.520938847
0.79350,2.43652207
0.79400,2.741716478
0.79450,2.741716478
0.79500,2.43652207
0.79550,1.520938847
0.79600,0.910550032
0.79650,1.826133255
0.79700,2.43652207
0.79750,1.520938847
0.79800,-0.005033191132
0.79850,-0.005033191132
0.79900,1.520938847
0.79950,2.131327663
0.80000,0.910550032
0.80050,0.6053556243
0.80100,2.131327663
0.80150,3.352105294
0.80200,2.131327663
0.80250,-0.005033191132
0.80300,-0.005033191132
0.80350,2.131327663
0.80400,3.352105294
0.80450,3.046910886
0.80500,2.131327663
0.80550,1.826133255
0.80600,1.826133255
0.80650,3.352105294
0.80700,5.793660555
0.80750,8.845604632
0.80800,10.67677108
0.80850,10.98196549
0.80900,11.28715989
0.80950,11.28715989
0.81000,10.06638226
0.81050,8.540410225
0.81100,7.014438186
0.81150,5.793660555
0.81200,3.962494109
0.81250,1.826133255
0.81300,-0.005033191132
0.81350,-2.141394045
0.81400,-5.193338122
0.81450,-7.329698976
0.81500,-7.940087791
0.81550,-7.329698976
0.81600,-7.940087791
0.81650,-9.160865422
0.81700,-9.160865422
0.81750,-7.634893384
0.81800,-6.414115753
0.81850,-6.414115753
0.81900,-5.803726937
0.81950,-3.056977268
0.82000,-0.005033191132
0.82050,0.6053556243
0.82100,-0.3102275988
0.82150,-0.3102275988
0.82200,1.21574444
0.82250,1.826133255
0.82300,-0.005033191132
0.82350,-1.836199637
0.82400,-0.9206164142
0.82450,1.826133255
0.82500,1.826133255
0.82550,-1.53100523
0.82600,-3.056977268
0.82650,2.741716478
0.82700,13.11832634
0.82750,18.91702009
0.82800,16.17027042
0.82850,9.15079904
0.82900,4.572882924
0.82950,3.352105294
0.83000,3.352105294
0.83050,1.520938847
0.83100,-0.9206164142
0.83150,-3.362171676
0.83200,-4.582949307
0.83250,-6.108921345
0.83300,-9.160865422
0.83350,-12.51800391
0.83400,-14.95955917
0.83450,-15.26475358
0.83500,-14.34917035
0.83550,-14.34917035
0.83600,-14.95955917
0.83650,-14.04397595
0.83700,-11.29722628
0.83750,-8.855671014
0.83800,-7.940087791
0.83850,-7.940087791
0.83900,-6.414115753
0.83950,-4.277754899
0.84000,-2.141394045
0.84050,-0.3102275988
0.84100,0.6053556243
0.84150,1.826133255
0.84200,2.131327663
0.84250,1.826133255
0.84300,1.520938847
0.84350,1.826133255
0.84400,1.826133255
0.84450,2.131327663
0.84500,2.43652207
0.84550,2.43652207
0.84600,2.741716478
0.84650,4.267688517
0.84700,5.488466147
0.84750,4.572882924
0.84800,2.43652207
0.84850,1.21574444
0.84900,2.43652207
0.84950,3.962494109
0.85000,3.962494109
0.85050,3.657299701
0.85100,5.18327174
0.85150,8.235215817
0.85200,10.37157667
0.85250,10.98196549
0.85300,10.67677108
0.85350,9.761187855
0.85400,7.930021409
0.85450,6.098854963
0.85500,5.793660555
0.85550,5.793660555
0.85600,4.267688517
0.85650,-0.005033191132
0.85700,-3.972560491
0.85750,-6.108921345
0.85800,-7.024504568
0.85850,-7.634893384
0.85900,-8.855671014
0.85950,-9.46605983
0.86000,-10.38164305
0.86050,-10.68683746
0.86100,-10.07644865
0.86150,-8.245282199
0.86200,-6.719310161
0.86250,-6.719310161
0.86300,-7.024504568
0.86350,-6.108921345
0.86400,-4.582949307
0.86450,-4.277754899
0.86500,-4.582949307
0.86550,-2.75178286
0.86600,1.21574444
0.86650,3.657299701
0.86700,2.43652207
0.86750,-0.005033191132
0.86800,-1.225810822
0.86850,-0.6154220065
0.86900,-0.3102275988
0.86950,-0.005033191132
0.87000,0.910550032
0.87050,1.826133255
0.87100,1.21574444
0.87150,-0.005033191132
0.87200,-0.005033191132
0.87250,-0.005033191132
0.87300,-0.3102275988
0.87350,-1.225810822
0.87400,-0.9206164142
0.87450,0.6053556243
0.87500,1.21574444
0.87550,0.6053556243
0.87600,0.6053556243
0.87650,2.131327663
0.87700,2.43652207
0.87750,1.21574444
0.87800,0.3001612166
0.87850,1.826133255
0.87900,3.352105294
0.87950,2.741716478
0.88000,0.910550032
0.88050,0.3001612166
0.88100,0.6053556243
0.88150,0.6053556243
0.88200,0.6053556243
0.88250,1.21574444
0.88300,2.131327663
0.88350,2.43652207
0.88400,2.131327663
0.88450,2.131327663
0.88500,2.131327663
0.88550,1.21574444
0.88600,0.6053556243
0.88650,1.21574444
0.88700,1.21574444
0.88750,-0.005033191132
0.88800,-1.53100523
0.88850,-0.3102275988
0.88900,1.826133255
0.88950,3.046910886
0.89000,1.826133255
0.89050,0.6053556243
0.89100,0.6053556243
0.89150,1.21574444
0.89200,0.910550032
0.89250,0.3001612166
0.89300,-0.005033191132
0.89350,-0.005033191132
0.89400,-0.6154220065
0.89450,-0.3102275988
0.89500,0.3001612166
0.89550,0.910550032
0.89600,0.910550032
0.89650,0.6053556243
0.89700,0.910550032
0.89750,1.21574444
0.89800,0.910550032
0.89850,1.21574444
0.89900,2.131327663
0.89950,2.741716478
0.90000,2.131327663
0.90050,1.21574444
0.90100,1.21574444
0.90150,1.826133255
0.90200,2.131327663
0.90250,2.131327663
0.90300,2.43652207
0.90350,2.43652207
0.90400,1.826133255
0.90450,0.910550032
0.90500,1.520938847
0.90550,3.657299701
0.90600,6.404049371
0.90650,7.319632594
0.90700,5.793660555
0.90750,3.657299701
0.90800,3.046910886
0.90850,3.352105294
0.90900,2.43652207
0.90950,1.21574444
0.91000,2.741716478
0.91050,8.845604632
0.91100,15.5598816
0.91150,18.30663127
0.91200,15.5598816
0.91250,10.06638226
0.91300,5.18327174
0.91350,1.21574444
0.91400,-0.6154220065
0.91450,-0.005033191132
0.91500,3.046910886
0.91550,3.657299701
0.91600,-0.6154220065
0.91650,-6.108921345
0.91700,-7.940087791
0.91750,-6.108921345
0.91800,-4.888143714
0.91850,-6.108921345
0.91900,-6.108921345
0.91950,-3.362171676
0.92000,-0.9206164142
0.92050,-2.446588453
0.92100,-7.024504568
0.92150,-9.771254238
0.92200,-8.855671014
0.92250,-7.634893384
0.92300,-7.634893384
0.92350,-7.634893384
0.92400,-6.719310161
0.92450,-6.414115753
0.92500,-7.940087791
0.92550,-8.855671014
0.92600,-8.245282199
0.92650,-7.634893384
0.92700,-8.245282199
0.92750,-8.550476607
0.92800,-7.634893384
0.92850,-6.719310161
0.92900,-7.024504568
0.92950,-7.024504568
0.93000,-4.888143714
0.93050,-2.446588453
0.93100,-2.141394045
0.93150,-3.667366084
0.93200,-3.667366084
0.93250,-2.446588453
0.93300,-1.225810822
0.93350,-0.9206164142
0.93400,-0.9206164142
0.93450,-0.9206164142
0.93500,-1.225810822
0.93550,-1.836199637
0.93600,-1.225810822
0.93650,-0.005033191132
0.93700,0.910550032
0.93750,0.910550032
0.93800,1.520938847
0.93850,2.43652207
0.93900,2.741716478
0.93950,2.131327663
0.94000,1.520938847
0.94050,1.21574444
0.94100,0.6053556243
0.94150,-0.005033191132
0.94200,0.6053556243
0.94250,1.826133255
0.94300,2.741716478
0.94350,3.046910886
0.94400,3.046910886
0.94450,2.741716478
0.94500,1.520938847
0.94550,-0.005033191132
0.94600,0.6053556243
0.94650,2.131327663
0.94700,2.741716478
0.94750,1.826133255
0.94800,0.910550032
0.94850,1.21574444
0.94900,2.131327663
0.94950,2.43652207
0.95000,1.826133255
0.95050,0.910550032
0.95100,0.6053556243
0.95150,1.21574444
0.95200,2.131327663
0.95250,2.741716478
0.95300,1.826133255
0.95350,0.6053556243
0.95400,0.3001612166
0.95450,1.21574444
0.95500,1.520938847
0.95550,1.520938847
0.95600,1.21574444
0.95650,0.910550032
0.95700,0.6053556243
0.95750,0.6053556243
0.95800,1.520938847
0.95850,2.741716478
0.95900,2.43652207
0.95950,0.3001612166
0.96000,-0.3102275988
0.96050,0.910550032
0.96100,2.131327663
0.96150,1.520938847
0.96200,-0.005033191132
0.96250,-0.3102275988
0.96300,-0.005033191132
0.96350,-0.005033191132
0.96400,-0.6154220065
0.96450,-0.9206164142
0.96500,-0.6154220065
0.96550,-0.9206164142
0.96600,-0.9206164142
0.96650,-0.3102275988
0.96700,0.6053556243
0.96750,0.6053556243
0.96800,-0.005033191132
0.96850,-0.9206164142
0.96900,-0.6154220065
0.96950,0.3001612166
0.97000,-0.005033191132
0.97050,-0.3102275988
0.97100,-0.3102275988
0.97150,0.3001612166
0.97200,0.910550032
0.97250,0.3001612166
0.97300,-0.3102275988
0.97350,-0.3102275988
0.97400,-0.005033191132
0.97450,0.3001612166
0.97500,-0.005033191132
0.97550,-0.005033191132
0.97600,-0.005033191132
0.97650,-0.3102275988
0.97700,-0.005033191132
0.97750,0.3001612166
0.97800,1.520938847
0.97850,1.826133255
0.97900,0.6053556243
0.97950,-0.9206164142
0.98000,-1.225810822
0.98050,-0.3102275988
0.98100,0.3001612166
0.98150,0.3001612166
0.98200,-0.005033191132
0.98250,-0.3102275988
0.98300,-0.3102275988
0.98350,-0.005033191132
0.98400,0.3001612166
0.98450,0.910550032
0.98500,0.6053556243
0.98550,-0.005033191132
0.98600,-0.3102275988
0.98650,-0.6154220065
0.98700,-0.6154220065
0.98750,-0.9206164142
0.98800,-1.53100523
0.98850,-1.53100523
0.98900,-1.225810822
0.98950,-0.3102275988
0.99000,-0.005033191132
0.99050,0.3001612166
0.99100,0.3001612166
0.99150,-0.005033191132
0.99200,-0.3102275988
0.99250,-0.9206164142
0.99300,-0.6154220065
0.99350,0.6053556243
0.99400,2.131327663
0.99450,2.43652207
0.99500,2.43652207
0.99550,2.741716478
0.99600,3.352105294
0.99650,2.741716478
0.99700,1.520938847
0.99750,1.21574444
0.99800,2.131327663
0.99850,2.43652207
0.99900,1.520938847
0.99950,-0.005033191132
1.00000,-0.3102275988
1.00050,0.3001612166
1.00100,1.21574444
1.00150,1.826133255
1.00200,2.741716478
1.00250,4.267688517
1.00300,4.878077332
1.00350,3.046910886
1.00400,0.910550032
1.00450,0.6053556243
1.00500,1.826133255
1.00550,2.43652207
1.00600,0.910550032
1.00650,-1.225810822
1.00700,-2.446588453
1.00750,-2.446588453
1.00800,-2.446588453
1.00850,-2.75178286
1.00900,-3.667366084
1.00950,-4.888143714
1.01000,-6.414115753
1.01050,-7.634893384
1.01100,-7.024504568
1.01150,-5.49853253
1.01200,-4.582949307
1.01250,-4.277754899
1.01300,-3.972560491
1.01350,-2.75178286
1.01400,-1.225810822
1.01450,-0.3102275988
1.01500,-0.005033191132
1.01550,-0.005033191132
1.01600,-0.6154220065
1.01650,-1.53100523
1.01700,-1.836199637
1.01750,-0.9206164142
1.01800,-0.9206164142
1.01850,-2.141394045
1.01900,-3.667366084
1.01950,-3.667366084
1.02000,-1.836199637
1.02050,-0.6154220065
1.02100,-0.3102275988
1.02150,0.3001612166
1.02200,1.21574444
1.02250,1.826133255
1.02300,1.520938847
1.02350,1.520938847
1.02400,1.520938847
1.02450,1.21574444
1.02500,0.6053556243
1.02550,-0.005033191132
1.02600,-0.005033191132
1.02650,-0.005033191132
1.02700,0.3001612166
1.02750,1.520938847
1.02800,1.520938847
1.02850,0.6053556243
1.02900,-0.005033191132
1.02950,-0.005033191132
1.03000,0.910550032
1.03050,0.910550032
1.03100,-0.005033191132
1.03150,-0.005033191132
1.03200,0.3001612166
1.03250,0.910550032
1.03300,0.6053556243
1.03350,0.3001612166
1.03400,-0.005033191132
1.03450,-0.005033191132
1.03500,-0.005033191132
1.03550,-0.3102275988
1.03600,-0.6154220065
1.03650,-1.225810822
1.03700,-1.225810822
1.03750,-0.005033191132
1.03800,0.6053556243
1.03850,0.6053556243
1.03900,-0.3102275988
1.03950,-0.9206164142
1.04000,-0.6154220065
1.04050,-0.3102275988
1.04100,-0.005033191132
1.04150,0.6053556243
1.04200,2.43652207
1.04250,3.046910886
1.04300,1.520938847
1.04350,-0.005033191132
1.04400,0.3001612166
1.04450,1.21574444
1.04500,1.21574444
1.04550,0.6053556243
1.04600,0.910550032
1.04650,1.826133255
1.04700,1.826133255
1.04750,0.6053556243
1.04800,-0.3102275988
1.04850,-0.9206164142
1.04900,-0.9206164142
1.04950,-0.3102275988
1.05000,0.6053556243
1.05050,1.520938847
1.05100,0.910550032
1.05150,-0.3102275988
1.05200,-0.3102275988
1.05250,0.3001612166
1.05300,0.6053556243
1.05350,-0.005033191132
1.05400,-1.225810822
1.05450,-0.6154220065
1.05500,0.3001612166
1.05550,0.3001612166
1.05600,-0.005033191132
1.05650,-0.005033191132
1.05700,0.3001612166
1.05750,0.910550032
1.05800,0.3001612166
1.05850,-0.005033191132
1.05900,-0.005033191132
1.05950,-0.005033191132
1.06000,0.3001612166
1.06050,0.3001612166
1.06100,0.3001612166
1.06150,0.6053556243
1.06200,0.3001612166
1.06250,-0.005033191132
1.06300,-0.005033191132
1.06350,0.910550032
1.06400,1.21574444
1.06450,-0.005033191132
1.06500,-0.6154220065
1.06550,-0.005033191132
1.06600,0.910550032
1.06650,0.910550032
1.06700,0.3001612166
1.06750,-0.005033191132
1.06800,-0.005033191132
1.06850,-0.005033191132
1.06900,-0.005033191132
1.06950,-0.005033191132
1.07000,0.6053556243
1.07050,0.910550032
1.07100,0.6053556243
1.07150,0.6053556243
1.07200,0.910550032
1.07250,1.21574444
1.07300,0.6053556243
1.07350,0.6053556243
1.07400,1.21574444
1.07450,1.826133255
1.07500,1.21574444
1.07550,-0.005033191132
1.07600,-0.005033191132
1.07650,0.910550032
1.07700,1.520938847
1.07750,0.910550032
1.07800,-0.6154220065
1.07850,-1.53100523
1.07900,-0.3102275988
1.07950,1.520938847
1.08000,2.43652207
1.08050,1.21574444
1.08100,-1.225810822
1.08150,-2.446588453
1.08200,-3.056977268
1.08250,-3.362171676
1.08300,-4.277754899
1.08350,-4.277754899
1.08400,-3.362171676
1.08450,-2.75178286
1.08500,-2.75178286
1.08550,-3.056977268
1.08600,-2.75178286
1.08650,-1.836199637
1.08700,-0.6154220065
1.08750,-0.005033191132
1.08800,-0.6154220065
1.08850,-1.53100523
1.08900,-2.141394045
1.08950,-1.836199637
1.09000,-0.9206164142
1.09050,-0.3102275988
1.09100,-0.6154220065
1.09150,-0.6154220065
1.09200,-0.3102275988
1.09250,-0.6154220065
1.09300,-1.225810822
1.09350,-1.225810822
1.09400,-0.005033191132
1.09450,0.910550032
1.09500,0.6053556243
1.09550,-0.6154220065
1.09600,-0.9206164142
1.09650,-1.225810822
1.09700,-2.446588453
1.09750,-4.277754899
1.09800,-3.972560491
1.09850,-1.225810822
1.09900,0.910550032
1.09950,0.910550032
1.10000,-0.005033191132
1.10050,-0.6154220065
1.10100,-0.6154220065
1.10150,-0.6154220065
1.10200,-0.6154220065
1.10250,-0.005033191132
1.10300,1.21574444
1.10350,1.826133255
1.10400,1.21574444
1.10450,0.6053556243
1.10500,0.3001612166
1.10550,0.6053556243
1.10600,0.6053556243
1.10650,0.6053556243
1.10700,0.910550032
1.10750,0.6053556243
1.10800,0.910550032
1.10850,1.21574444
1.10900,2.131327663
1.10950,2.43652207
1.11000,2.43652207
1.11050,1.21574444
1.11100,-0.005033191132
1.11150,-0.6154220065
1.11200,-0.005033191132
1.11250,1.520938847
1.11300,1.520938847
1.11350,0.6053556243
1.11400,0.3001612166
1.11450,0.910550032
1.11500,1.520938847
1.11550,0.6053556243
1.11600,0.6053556243
1.11650,1.21574444
1.11700,1.520938847
1.11750,0.910550032
1.11800,0.3001612166
1.11850,0.910550032
1.11900,1.21574444
1.11950,0.6053556243
1.12000,0.3001612166
1.12050,1.520938847
1.12100,2.741716478
1.12150,2.43652207
1.12200,1.826133255
1.12250,1.826133255
1.12300,1.826133255
1.12350,0.6053556243
1.12400,-0.6154220065
1.12450,-1.225810822
1.12500,-0.9206164142
1.12550,-0.9206164142
1.12600,-1.225810822
1.12650,-0.6154220065
1.12700,0.3001612166
1.12750,0.6053556243
1.12800,0.6053556243
1.12850,0.3001612166
1.12900,0.6053556243
1.12950,0.3001612166
1.13000,0.3001612166
1.13050,-0.005033191132
1.13100,-0.005033191132
1.13150,-0.005033191132
1.13200,-0.005033191132
1.13250,0.6053556243
1.13300,1.21574444
1.13350,0.910550032
1.13400,-0.005033191132
1.13450,-0.3102275988
1.13500,-0.005033191132
1.13550,-0.005033191132
1.13600,0.6053556243
1.13650,0.910550032
1.13700,1.21574444
1.13750,1.21574444
1.13800,1.21574444
1.13850,1.520938847
1.13900,1.21574444
1.13950,-0.005033191132
1.14000,-0.005033191132
1.14050,0.910550032
1.14100,1.520938847
1.14150,0.910550032
1.14200,-0.005033191132
1.14250,0.3001612166
1.14300,1.520938847
1.14350,1.21574444
1.14400,-0.005033191132
1.14450,-0.9206164142
1.14500,-0.005033191132
1.14550,0.6053556243
1.14600,0.6053556243
1.14650,-0.005033191132
1.14700,-0.005033191132
1.14750,0.910550032
1.14800,2.43652207
1.14850,3.352105294
1.14900,3.657299701
1.14950,3.352105294
1.15000,2.43652207
1.15050,1.826133255
1.15100,1.520938847
1.15150,0.910550032
1.15200,-0.005033191132
1.15250,-0.9206164142
1.15300,-0.9206164142
1.15350,-0.9206164142
1.15400,-1.836199637
1.15450,-3.667366084
1.15500,-5.49853253
1.15550,-6.108921345
1.15600,-5.193338122
1.15650,-3.972560491
1.15700,-2.75178286
1.15750,-2.446588453
1.15800,-2.75178286
1.15850,-2.141394045
1.15900,-0.3102275988
1.15950,1.21574444
1.16000,1.520938847
1.16050,1.520938847
1.16100,2.43652207
1.16150,2.741716478
1.16200,0.910550032
1.16250,-0.6154220065
1.16300,-0.6154220065
1.16350,1.520938847
1.16400,2.43652207
1.16450,1.826133255
1.16500,1.826133255
1.16550,3.657299701
1.16600,4.878077332
1.16650,3.352105294
1.16700,0.910550032
1.16750,0.3001612166
1.16800,0.6053556243
1.16850,-0.005033191132
1.16900,-1.836199637
1.16950,-2.75178286
1.17000,-2.75178286
1.17050,-3.667366084
1.17100,-4.888143714
1.17150,-5.193338122
1.17200,-3.972560491
1.17250,-3.972560491
1.17300,-5.49853253
1.17350,-6.719310161
1.17400,-5.803726937
1.17450,-4.582949307
1.17500,-4.277754899
1.17550,-4.888143714
1.17600,-5.193338122
1.17650,-4.888143714
1.17700,-4.277754899
1.17750,-3.056977268
1.17800,-0.9206164142
1.17850,1.21574444
1.17900,2.131327663
1.17950,1.21574444
1.18000,-0.005033191132
1.18050,-0.005033191132
1.18100,1.21574444
1.18150,2.43652207
1.18200,2.741716478
1.18250,2.131327663
1.18300,1.826133255
1.18350,1.520938847
1.18400,1.520938847
1.18450,1.21574444
1.18500,1.21574444
1.18550,1.826133255
1.18600,2.131327663
1.18650,1.826133255
1.18700,1.520938847
1.18750,0.910550032
1.18800,0.3001612166
1.18850,-0.3102275988
1.18900,-0.005033191132
1.18950,0.6053556243
1.19000,1.520938847
1.19050,1.21574444
1.19100,0.910550032
1.19150,0.910550032
1.19200,0.910550032
1.19250,-0.005033191132
1.19300,-0.6154220065
1.19350,-0.3102275988
1.19400,-0.005033191132
1.19450,-0.005033191132
1.19500,-0.6154220065
1.19550,-0.9206164142
1.19600,-0.6154220065
1.19650,-0.005033191132
1.19700,0.6053556243
1.19750,1.21574444
1.19800,1.520938847
1.19850,1.520938847
1.19900,1.21574444
1.19950,0.6053556243
1.20000,-0.005033191132
1.20050,-1.225810822
1.20100,-1.836199637
1.20150,-0.9206164142
1.20200,0.3001612166
1.20250,0.910550032
1.20300,0.6053556243
1.20350,-0.005033191132
1.20400,-0.9206164142
1.20450,-1.53100523
1.20500,-0.9206164142
1.20550,-0.005033191132
1.20600,0.6053556243
1.20650,-0.005033191132
1.20700,-0.6154220065
1.20750,0.3001612166
1.20800,1.826133255
1.20850,1.520938847
1.20900,0.3001612166
1.20950,-0.005033191132
1.21000,0.3001612166
1.21050,-0.005033191132
1.21100,-0.6154220065
1.21150,-0.9206164142
1.21200,-0.6154220065
1.21250,-0.9206164142
1.21300,-1.53100523
1.21350,-0.6154220065
1.21400,0.3001612166
1.21450,0.6053556243
1.21500,-0.005033191132
1.21550,-0.6154220065
1.21600,-0.005033191132
1.21650,0.3001612166
1.21700,-0.6154220065
1.21750,-1.836199637
1.21800,-1.225810822
1.21850,-0.005033191132
1.21900,0.910550032
1.21950,0.3001612166
1.22000,-0.6154220065
1.22050,-0.9206164142
1.22100,-0.6154220065
1.22150,-0.3102275988
1.22200,-0.3102275988
1.22250,-0.3102275988
1.22300,-0.005033191132
1.22350,-0.005033191132
1.22400,-0.005033191132
1.22450,-0.005033191132
1.22500,-0.005033191132
1.22550,-0.005033191132
1.22600,-0.005033191132
1.22650,-0.6154220065
1.22700,-0.9206164142
1.22750,-0.6154220065
1.22800,-0.3102275988
1.22850,-0.6154220065
1.22900,-1.225810822
1.22950,-1.225810822
1.23000,-0.6154220065
1.23050,-0.005033191132
1.23100,-0.005033191132
1.23150,-0.9206164142
1.23200,-1.225810822
1.23250,-0.005033191132
1.23300,1.520938847
1.23350,2.131327663
1.23400,0.910550032
1.23450,-0.005033191132
1.23500,-0.005033191132
1.23550,0.6053556243
1.23600,0.3001612166
1.23650,-0.005033191132
1.23700,-0.005033191132
1.23750,0.6053556243
1.23800,1.21574444
1.23850,0.6053556243
1.23900,-0.005033191132
1.23950,-0.005033191132
1.24000,0.3001612166
1.24050,-0.005033191132
1.24100,-0.6154220065
1.24150,-0.9206164142
1.24200,-0.9206164142
1.24250,-0.6154220065
1.24300,-0.3102275988
1.24350,-0.005033191132
1.24400,0.910550032
1.24450,0.910550032
1.24500,-0.005033191132
1.24550,-1.53100523
1.24600,-1.53100523
1.24650,-0.005033191132
1.24700,1.520938847
1.24750,1.826133255
1.24800,0.910550032
1.24850,0.910550032
1.24900,0.910550032
1.24950,0.910550032
1.25000,0.3001612166
1.25050,-0.005033191132
1.25100,-0.005033191132
1.25150,-0.005033191132
1.25200,-0.3102275988
1.25250,-0.005033191132
1.25300,0.6053556243
1.25350,0.6053556243
1.25400,-0.005033191132
1.25450,-0.005033191132
1.25500,0.910550032
1.25550,3.046910886
1.25600,3.962494109
1.25650,3.657299701
1.25700,3.046910886
1.25750,2.741716478
1.25800,2.43652207
1.25850,3.046910886
1.25900,3.962494109
1.25950,4.267688517
1.26000,2.43652207
1.26050,0.3001612166
1.26100,-0.005033191132
1.26150,0.3001612166
1.26200,-0.005033191132
1.26250,-1.53100523
1.26300,-2.75178286
1.26350,-2.446588453
1.26400,-1.53100523
1.26450,-1.53100523
1.26500,-2.446588453
1.26550,-2.141394045
1.26600,-0.3102275988
1.26650,1.21574444
1.26700,1.21574444
1.26750,-0.005033191132
1.26800,-0.6154220065
1.26850,-0.005033191132
1.26900,0.910550032
1.26950,1.21574444
1.27000,-0.005033191132
1.27050,-2.446588453
1.27100,-3.972560491
1.27150,-4.888143714
1.27200,-5.49853253
1.27250,-6.414115753
1.27300,-7.024504568
1.27350,-7.329698976
1.27400,-6.719310161
1.27450,-5.803726937
1.27500,-4.277754899
1.27550,-3.056977268
1.27600,-2.75178286
1.27650,-2.141394045
1.27700,-1.225810822
1.27750,-0.3102275988
1.27800,-0.005033191132
1.27850,0.910550032
1.27900,1.826133255
1.27950,1.826133255
1.28000,0.6053556243
1.28050,-0.3102275988
1.28100,-0.3102275988
1.28150,1.21574444
1.28200,2.131327663
1.28250,0.910550032
1.28300,-0.005033191132
1.28350,-0.6154220065
1.28400,-0.3102275988
1.28450,-0.9206164142
1.28500,-1.836199637
1.28550,-2.141394045
1.28600,-0.6154220065
1.28650,0.6053556243
1.28700,0.910550032
1.28750,0.3001612166
1.28800,-0.005033191132
1.28850,-0.3102275988
1.28900,-0.005033191132
1.28950,-0.005033191132
1.29000,-0.005033191132
1.29050,-0.005033191132
1.29100,-0.005033191132
1.29150,0.6053556243
1.29200,1.21574444
1.29250,1.21574444
1.29300,0.910550032
1.29350,0.6053556243
1.29400,0.6053556243
1.29450,0.3001612166
1.29500,0.910550032
1.29550,2.131327663
1.29600,3.046910886
1.29650,1.826133255
1.29700,-0.005033191132
1.29750,-0.005033191132
1.29800,0.910550032
1.29850,0.6053556243
1.29900,-1.225810822
1.29950,-2.141394045
1.30000,-0.3102275988
1.30050,1.21574444
1.30100,0.910550032
1.30150,-0.3102275988
1.30200,-0.3102275988
1.30250,0.3001612166
1.30300,0.3001612166
1.30350,-0.005033191132
1.30400,-0.005033191132
1.30450,-0.005033191132
1.30500,-0.3102275988
1.30550,-0.6154220065
1.30600,-0.005033191132
1.30650,0.910550032
1.30700,0.6053556243
1.30750,-0.3102275988
1.30800,-0.005033191132
1.30850,0.910550032
1.30900,1.520938847
1.30950,1.21574444
1.31000,0.910550032
1.31050,1.21574444
1.31100,0.910550032
1.31150,0.3001612166
1.31200,0.910550032
1.31250,1.520938847
1.31300,1.21574444
1.31350,0.910550032
1.31400,0.910550032
1.31450,1.21574444
1.31500,0.6053556243
1.31550,-0.3102275988
1.31600,-0.005033191132
1.31650,0.910550032
1.31700,1.21574444
1.31750,-0.005033191132
1.31800,-0.9206164142
1.31850,-0.6154220065
1.31900,-0.005033191132
1.31950,-0.3102275988
1.32000,-0.6154220065
1.32050,-0.3102275988
1.32100,0.6053556243
1.32150,1.21574444
1.32200,1.21574444
1.32250,1.21574444
1.32300,1.21574444
1.32350,0.6053556243
1.32400,-0.6154220065
1.32450,-1.836199637
1.32500,-1.225810822
1.32550,-0.005033191132
1.32600,1.520938847
1.32650,1.520938847
1.32700,0.6053556243
1.32750,0.6053556243
1.32800,0.910550032
1.32850,0.910550032
1.32900,0.6053556243
1.32950,0.3001612166
1.33000,0.6053556243
1.33050,1.21574444
1.33100,1.21574444
1.33150,0.6053556243
1.33200,-0.005033191132
1.33250,-0.6154220065
1.33300,-0.6154220065
1.33350,-0.005033191132
1.33400,0.3001612166
1.33450,0.6053556243
1.33500,0.3001612166
1.33550,0.3001612166
1.33600,0.910550032
1.33650,0.910550032
1.33700,0.6053556243
1.33750,-0.005033191132
1.33800,-0.3102275988
1.33850,-0.6154220065
1.33900,-0.3102275988
1.33950,-0.005033191132
1.34000,-0.005033191132
1.34050,-0.3102275988
1.34100,-1.225810822
1.34150,-0.9206164142
1.34200,-0.3102275988
1.34250,-0.005033191132
1.34300,0.3001612166
1.34350,-0.005033191132
1.34400,-0.005033191132
1.34450,-0.6154220065
1.34500,-0.6154220065
1.34550,-0.3102275988
1.34600,-0.3102275988
1.34650,-0.9206164142
1.34700,-1.225810822
1.34750,-0.3102275988
1.34800,-0.005033191132
1.34850,0.3001612166
1.34900,0.3001612166
1.34950,0.6053556243
1.35000,0.910550032
1.35050,-0.005033191132
1.35100,-0.005033191132
1.35150,0.910550032
1.35200,2.43652207
1.35250,2.43652207
1.35300,0.910550032
1.35350,-0.3102275988
1.35400,-0.005033191132
1.35450,0.3001612166
1.35500,-0.005033191132
1.35550,-0.3102275988
1.35600,-0.6154220065
1.35650,-0.005033191132
1.35700,0.910550032
1.35750,0.910550032
1.35800,-0.005033191132
1.35850,-0.3102275988
1.35900,-0.3102275988
1.35950,0.3001612166
1.36000,1.21574444
1.36050,1.21574444
1.36100,0.910550032
1.36150,1.21574444
1.36200,1.21574444
1.36250,0.3001612166
1.36300,-0.6154220065
1.36350,-0.9206164142
1.36400,-0.005033191132
1.36450,0.910550032
1.36500,-0.005033191132
1.36550,-1.225810822
1.36600,-1.225810822
1.36650,-0.005033191132
1.36700,1.21574444
1.36750,1.520938847
1.36800,1.21574444
1.36850,0.3001612166
1.36900,-0.3102275988
1.36950,-0.6154220065
1.37000,-0.3102275988
1.37050,0.3001612166
1.37100,1.21574444
1.37150,1.520938847
1.37200,0.910550032
1.37250,-0.005033191132
1.37300,-0.3102275988
1.37350,0.910550032
1.37400,2.43652207
1.37450,1.826133255
1.37500,-0.005033191132
1.37550,-0.3102275988
1.37600,0.3001612166
1.37650,0.910550032
1.37700,-0.3102275988
1.37750,-1.53100523
1.37800,-0.6154220065
1.37850,0.3001612166
1.37900,0.3001612166
1.37950,-0.6154220065
1.38000,-0.6154220065
1.38050,-0.005033191132
1.38100,0.3001612166
1.38150,-0.3102275988
1.38200,-0.3102275988
1.38250,-0.005033191132
1.38300,-0.005033191132
1.38350,-0.9206164142
1.38400,-2.141394045
1.38450,-2.446588453
1.38500,-2.446588453
1.38550,-2.446588453
1.38600,-1.53100523
1.38650,-0.9206164142
1.38700,-1.225810822
1.38750,-1.53100523
1.38800,-0.6154220065
1.38850,-0.3102275988
1.38900,-1.53100523
1.38950,-3.667366084
1.39000,-3.667366084
1.39050,-1.53100523
1.39100,-0.005033191132
1.39150,-0.005033191132
1.39200,-0.005033191132
1.39250,-0.005033191132
1.39300,-0.005033191132
1.39350,-0.005033191132
1.39400,-0.9206164142
1.39450,-0.9206164142
1.39500,-0.3102275988
1.39550,-0.005033191132
1.39600,0.6053556243
1.39650,0.6053556243
1.39700,-0.005033191132
1.39750,-0.3102275988
1.39800,-0.005033191132
1.39850,0.6053556243
1.39900,1.21574444
1.39950,0.6053556243
1.40000,-0.005033191132
1.40050,-0.005033191132
1.40100,0.910550032
1.40150,1.520938847
1.40200,0.6053556243
1.40250,-0.3102275988
1.40300,-0.3102275988
1.40350,-0.005033191132
1.40400,-0.005033191132
1.40450,-0.9206164142
1.40500,-0.3102275988
1.40550,1.21574444
1.40600,2.131327663
1.40650,0.910550032
1.40700,-0.9206164142
1.40750,-0.6154220065
1.40800,0.910550032
1.40850,0.6053556243
1.40900,-0.9206164142
1.40950,-2.446588453
1.41000,-2.446588453
1.41050,-1.836199637
1.41100,-1.225810822
1.41150,-0.3102275988
1.41200,0.910550032
1.41250,1.21574444
1.41300,0.3001612166
1.41350,0.3001612166
1.41400,1.826133255
1.41450,2.43652207
1.41500,0.910550032
1.41550,-0.6154220065
1.41600,-0.005033191132
1.41650,1.520938847
1.41700,1.826133255
1.41750,0.3001612166
1.41800,-0.3102275988
1.41850,0.6053556243
1.41900,1.520938847
1.41950,0.910550032
1.42000,-0.005033191132
1.42050,-0.3102275988
1.42100,0.3001612166
1.42150,0.6053556243
1.42200,-0.005033191132
1.42250,-0.3102275988
1.42300,-0.005033191132
1.42350,0.6053556243
1.42400,0.910550032
1.42450,0.3001612166
1.42500,-0.6154220065
1.42550,-0.9206164142
1.42600,-0.005033191132
1.42650,0.6053556243
1.42700,0.3001612166
1.42750,-0.6154220065
1.42800,-1.53100523
1.42850,-0.9206164142
1.42900,-0.005033191132
1.42950,0.910550032
1.43000,0.910550032
1.43050,-0.005033191132
1.43100,-0.6154220065
1.43150,-0.6154220065
1.43200,0.3001612166
1.43250,1.21574444
1.43300,0.910550032
1.43350,-0.005033191132
1.43400,-0.6154220065
1.43450,-0.005033191132
1.43500,-0.005033191132
1.43550,-0.005033191132
1.43600,-0.005033191132
1.43650,0.3001612166
1.43700,0.6053556243
1.43750,-0.005033191132
1.43800,-1.225810822
1.43850,-0.9206164142
1.43900,0.910550032
1.43950,1.826133255
1.44000,1.21574444
1.44050,0.3001612166
1.44100,0.6053556243
1.44150,1.520938847
1.44200,2.131327663
1.44250,1.21574444
1.44300,-0.005033191132
1.44350,-0.3102275988
1.44400,0.6053556243
1.44450,2.741716478
1.44500,3.352105294
1.44550,2.43652207
1.44600,1.520938847
1.44650,2.131327663
1.44700,3.352105294
1.44750,3.046910886
1.44800,0.910550032
1.44850,-0.9206164142
1.44900,-1.836199637
1.44950,-2.141394045
1.45000,-2.446588453
1.45050,-1.53100523
1.45100,-0.9206164142
1.45150,-1.53100523
1.45200,-3.362171676
1.45250,-3.972560491
1.45300,-2.75178286
1.45350,-0.3102275988
1.45400,0.910550032
1.45450,1.826133255
1.45500,2.43652207
1.45550,2.741716478
1.45600,3.046910886
1.45650,3.046910886
1.45700,3.352105294
1.45750,3.046910886
1.45800,1.21574444
1.45850,-0.6154220065
1.45900,-2.141394045
1.45950,-3.056977268
1.46000,-3.056977268
1.46050,-3.056977268
1.46100,-3.362171676
1.46150,-3.667366084
1.46200,-3.972560491
1.46250,-4.277754899
1.46300,-3.667366084
1.46350,-3.056977268
1.46400,-3.056977268
1.46450,-3.972560491
1.46500,-4.888143714
1.46550,-4.582949307
1.46600,-3.362171676
1.46650,-2.446588453
1.46700,-2.75178286
1.46750,-3.362171676
1.46800,-2.75178286
1.46850,-0.9206164142
1.46900,-0.005033191132
1.46950,-0.005033191132
1.47000,-0.3102275988
1.47050,-0.3102275988
1.47100,-0.005033191132
1.47150,-0.005033191132
1.47200,-0.6154220065
1.47250,-0.9206164142
1.47300,-0.6154220065
1.47350,-0.3102275988
1.47400,-0.005033191132
1.47450,-0.005033191132
1.47500,-0.6154220065
1.47550,-0.9206164142
1.47600,-0.6154220065
1.47650,0.3001612166
1.47700,0.3001612166
1.47750,-0.005033191132
1.47800,-0.3102275988
1.47850,-0.005033191132
1.47900,0.3001612166
1.47950,-0.005033191132
1.48000,-0.005033191132
1.48050,0.6053556243
1.48100,1.520938847
1.48150,1.520938847
1.48200,1.21574444
1.48250,1.520938847
1.48300,2.43652207
1.48350,2.741716478
1.48400,1.520938847
1.48450,-0.005033191132
1.48500,-0.9206164142
1.48550,-0.6154220065
1.48600,-0.005033191132
1.48650,-0.005033191132
1.48700,-0.005033191132
1.48750,0.3001612166
1.48800,0.910550032
1.48850,0.910550032
1.48900,-0.005033191132
1.48950,-0.005033191132
1.49000,0.910550032
1.49050,2.741716478
1.49100,2.741716478
1.49150,0.6053556243
1.49200,-1.225810822
1.49250,-0.9206164142
1.49300,-0.005033191132
1.49350,0.3001612166
1.49400,-0.005033191132
1.49450,-0.3102275988
1.49500,-0.005033191132
1.49550,0.6053556243
1.49600,0.6053556243
1.49650,1.21574444
1.49700,1.520938847
1.49750,1.21574444
1.49800,0.3001612166
1.49850,-0.005033191132
1.49900,0.6053556243
1.49950,1.520938847
1.50000,1.826133255
1.50050,1.21574444
1.50100,0.910550032
1.50150,0.3001612166
1.50200,-0.005033191132
1.50250,-0.005033191132
1.50300,-0.005033191132
1.50350,0.3001612166
1.50400,0.6053556243
1.50450,0.3001612166
1.50500,0.3001612166
1.50550,0.3001612166
1.50600,1.21574444
1.50650,1.826133255
1.50700,1.520938847
1.50750,0.910550032
1.50800,0.910550032
1.50850,1.21574444
1.50900,0.910550032
1.50950,-0.005033191132
1.51000,-0.005033191132
1.51050,0.6053556243
1.51100,1.520938847
1.51150,1.520938847
1.51200,0.910550032
1.51250,0.6053556243
1.51300,-0.005033191132
1.51350,-0.005033191132
1.51400,0.3001612166
1.51450,0.910550032
1.51500,0.6053556243
1.51550,-0.3102275988
1.51600,-0.6154220065
1.51650,0.6053556243
1.51700,1.826133255
1.51750,1.21574444
1.51800,-0.3102275988
1.51850,-0.6154220065
1.51900,-0.005033191132
1.51950,-0.005033191132
1.52000,-0.3102275988
1.52050,-0.3102275988
1.52100,-0.3102275988
1.52150,-0.6154220065
1.52200,-1.53100523
1.52250,-1.836199637
1.52300,-0.005033191132
1.52350,1.520938847
1.52400,1.826133255
1.52450,0.910550032
1.52500,-0.005033191132
1.52550,0.3001612166
1.52600,0.910550032
1.52650,1.21574444
1.52700,0.3001612166
1.52750,-0.6154220065
1.52800,-1.225810822
1.52850,-1.225810822
1.52900,-0.9206164142
1.52950,-0.3102275988
1.53000,-0.005033191132
1.53050,-0.005033191132
1.53100,-0.3102275988
1.53150,-0.3102275988
1.53200,-0.005033191132
1.53250,-0.005033191132
1.53300,-0.005033191132
1.53350,0.6053556243
1.53400,1.826133255
1.53450,2.131327663
1.53500,1.520938847
1.53550,0.6053556243
1.53600,0.3001612166
1.53650,0.6053556243
1.53700,0.910550032
1.53750,0.6053556243
1.53800,-0.005033191132
1.53850,-0.6154220065
1.53900,-0.9206164142
1.53950,-0.6154220065
1.54000,-0.005033191132
1.54050,-0.005033191132
1.54100,-0.3102275988
1.54150,-1.225810822
1.54200,-1.225810822
1.54250,-1.225810822
1.54300,-0.9206164142
1.54350,-0.6154220065
1.54400,-0.6154220065
1.54450,-0.9206164142
1.54500,-0.9206164142
1.54550,-0.6154220065
1.54600,-0.005033191132
1.54650,-0.005033191132
1.54700,-0.3102275988
1.54750,-0.005033191132
1.54800,0.910550032
1.54850,1.826133255
1.54900,1.520938847
1.54950,0.3001612166
1.55000,-0.005033191132
1.55050,-0.005033191132
1.55100,-0.005033191132
1.55150,-0.005033191132
1.55200,-0.3102275988
1.55250,-0.3102275988
1.55300,-0.3102275988
1.55350,-0.005033191132
1.55400,-0.005033191132
1.55450,0.3001612166
1.55500,-0.005033191132
1.55550,-0.3102275988
1.55600,-0.3102275988
1.55650,-0.3102275988
1.55700,-0.005033191132
1.55750,-0.005033191132
1.55800,-0.005033191132
1.55850,-0.005033191132
1.55900,-0.3102275988
1.55950,-0.6154220065
1.56000,-0.3102275988
1.56050,-0.3102275988
1.56100,-0.6154220065
1.56150,-0.6154220065
1.56200,-0.3102275988
1.56250,-0.005033191132
1.56300,-0.005033191132
1.56350,-0.005033191132
1.56400,0.3001612166
1.56450,0.3001612166
1.56500,-0.3102275988
1.56550,-0.3102275988
1.56600,0.6053556243
1.56650,1.21574444
1.56700,0.6053556243
1.56750,-0.6154220065
1.56800,-0.9206164142
1.56850,-0.3102275988
1.56900,0.3001612166
1.56950,0.3001612166
1.57000,0.3001612166
1.57050,0.3001612166
1.57100,-0.3102275988
1.57150,-1.836199637
1.57200,-2.75178286
1.57250,-1.836199637
1.57300,-0.005033191132
1.57350,1.826133255
1.57400,1.520938847
1.57450,-0.005033191132
1.57500,-0.9206164142
1.57550,-0.9206164142
1.57600,0.3001612166
1.57650,1.520938847
1.57700,1.21574444
1.57750,-0.3102275988
1.57800,-1.225810822
1.57850,-0.3102275988
1.57900,0.3001612166
1.57950,-0.3102275988
1.58000,-1.225810822
1.58050,-0.6154220065
1.58100,0.910550032
1.58150,1.520938847
1.58200,0.910550032
1.58250,-0.005033191132
1.58300,0.3001612166
1.58350,0.6053556243
1.58400,0.6053556243
1.58450,-0.005033191132
1.58500,0.3001612166
1.58550,0.910550032
1.58600,0.3001612166
1.58650,-0.6154220065
1.58700,-2.141394045
1.58750,-1.836199637
1.58800,-0.005033191132
1.58850,2.131327663
1.58900,3.962494109
1.58950,4.267688517
1.59000,3.046910886
1.59050,2.131327663
1.59100,2.131327663
1.59150,2.43652207
1.59200,2.131327663
1.59250,0.910550032
1.59300,-0.3102275988
1.59350,-1.225810822
1.59400,-1.225810822
1.59450,-1.53100523
1.59500,-2.141394045
1.59550,-2.141394045
1.59600,-1.225810822
1.59650,-0.9206164142
1.59700,-1.836199637
1.59750,-3.056977268
1.59800,-3.056977268
1.59850,-2.141394045
1.59900,-1.225810822
1.59950,-1.225810822
1.60000,-1.53100523
1.60050,-1.836199637
1.60100,-2.446588453
1.60150,-2.75178286
1.60200,-2.446588453
1.60250,-1.225810822
1.60300,-0.3102275988
1.60350,-0.6154220065
1.60400,-0.9206164142
1.60450,-0.6154220065
1.60500,-0.005033191132
1.60550,-0.005033191132
1.60600,-1.225810822
1.60650,-2.446588453
1.60700,-3.056977268
1.60750,-2.446588453
1.60800,-2.141394045
1.60850,-1.836199637
1.60900,-2.141394045
1.60950,-1.836199637
1.61000,-0.9206164142
1.61050,-0.3102275988
1.61100,-0.005033191132
1.61150,-0.3102275988
1.61200,-0.3102275988
1.61250,-0.005033191132
1.61300,1.21574444
1.61350,1.520938847
1.61400,1.21574444
1.61450,0.3001612166
1.61500,-0.005033191132
1.61550,-0.005033191132
1.61600,0.3001612166
1.61650,0.3001612166
1.61700,-0.005033191132
1.61750,-0.6154220065
1.61800,-0.005033191132
1.61850,0.3001612166
1.61900,0.3001612166
1.61950,-0.005033191132
1.62000,-0.6154220065
1.62050,-0.3102275988
1.62100,-0.005033191132
1.62150,-0.005033191132
1.62200,-0.005033191132
1.62250,-0.005033191132
1.62300,0.3001612166
1.62350,1.520938847
1.62400,1.520938847
1.62450,0.6053556243
1.62500,-0.005033191132
1.62550,-0.3102275988
1.62600,0.3001612166
1.62650,1.520938847
1.62700,2.131327663
1.62750,1.520938847
1.62800,0.3001612166
1.62850,-0.005033191132
1.62900,0.6053556243
1.62950,0.6053556243
1.63000,-0.005033191132
1.63050,-0.6154220065
1.63100,0.6053556243
1.63150,2.43652207
1.63200,2.43652207
1.63250,0.910550032
1.63300,-0.005033191132
1.63350,-0.3102275988
1.63400,-0.005033191132
1.63450,0.3001612166
1.63500,0.910550032
1.63550,1.520938847
1.63600,1.826133255
1.63650,1.520938847
1.63700,1.520938847
1.63750,0.910550032
1.63800,-0.005033191132
1.63850,-0.005033191132
1.63900,0.3001612166
1.63950,1.21574444
1.64000,0.910550032
1.64050,-0.005033191132
1.64100,-0.005033191132
1.64150,0.910550032
1.64200,0.3001612166
1.64250,-0.9206164142
1.64300,-1.225810822
1.64350,0.3001612166
1.64400,1.520938847
1.64450,0.910550032
1.64500,-0.6154220065
1.64550,-1.225810822
1.64600,-0.3102275988
1.64650,-0.005033191132
1.64700,0.3001612166
1.64750,-0.005033191132
1.64800,0.6053556243
1.64850,0.6053556243
1.64900,-0.005033191132
1.64950,-0.6154220065
1.65000,-0.3102275988
1.65050,0.3001612166
1.65100,0.910550032
1.65150,-0.005033191132
1.65200,-0.3102275988
1.65250,-0.005033191132
1.65300,0.6053556243
1.65350,0.910550032
1.65400,-0.005033191132
1.65450,-0.6154220065
1.65500,-0.9206164142
1.65550,-0.6154220065
1.65600,-0.005033191132
1.65650,0.3001612166
1.65700,0.3001612166
1.65750,-0.005033191132
1.65800,-0.3102275988
1.65850,-0.005033191132
1.65900,1.520938847
1.65950,2.43652207
1.66000,1.520938847
1.66050,-0.005033191132
1.66100,-0.3102275988
1.66150,0.3001612166
1.66200,1.520938847
1.66250,0.910550032
1.66300,-0.3102275988
1.66350,-1.225810822
1.66400,-0.6154220065
1.66450,-0.005033191132
1.66500,-0.005033191132
1.66550,-0.9206164142
1.66600,-0.9206164142
1.66650,0.3001612166
1.66700,1.520938847
1.66750,0.910550032
1.66800,-0.005033191132
1.66850,-0.6154220065
1.66900,-0.6154220065
1.66950,-0.3102275988
1.67000,-0.005033191132
1.67050,-0.005033191132
1.67100,-1.225810822
1.67150,-2.141394045
1.67200,-1.225810822
1.67250,0.3001612166
1.67300,0.910550032
1.67350,-0.6154220065
1.67400,-1.836199637
1.67450,-0.9206164142
1.67500,0.3001612166
1.67550,0.3001612166
1.67600,-0.3102275988
1.67650,-0.6154220065
1.67700,-0.005033191132
1.67750,0.910550032
1.67800,1.21574444
1.67850,0.910550032
1.67900,0.910550032
1.67950,1.21574444
1.68000,1.21574444
1.68050,0.3001612166
1.68100,-0.3102275988
1.68150,-0.3102275988
1.68200,0.6053556243
1.68250,1.826133255
1.68300,1.520938847
1.68350,0.6053556243
1.68400,0.6053556243
1.68450,1.826133255
1.68500,1.826133255
1.68550,0.6053556243
1.68600,-0.005033191132
1.68650,0.910550032
1.68700,1.520938847
1.68750,0.910550032
1.68800,-0.005033191132
1.68850,-0.005033191132
1.68900,-0.005033191132
1.68950,-0.9206164142
1.69000,-1.836199637
1.69050,-2.141394045
1.69100,-2.141394045
1.69150,-2.141394045
1.69200,-2.446588453
1.69250,-2.141394045
1.69300,-1.836199637
1.69350,-1.836199637
1.69400,-1.53100523
1.69450,-1.225810822
1.69500,-1.225810822
1.69550,-1.225810822
1.69600,-0.9206164142
1.69650,-0.6154220065
1.69700,-1.225810822
1.69750,-2.141394045
1.69800,-1.225810822
1.69850,-0.005033191132
1.69900,0.910550032
1.69950,-0.005033191132
1.70000,-1.225810822
1.70050,-0.9206164142
1.70100,-0.005033191132
1.70150,-0.005033191132
1.70200,-0.005033191132
1.70250,0.6053556243
1.70300,1.21574444
1.70350,0.6053556243
1.70400,-0.3102275988
1.70450,-0.6154220065
1.70500,0.6053556243
1.70550,1.520938847
1.70600,0.6053556243
1.70650,-0.9206164142
1.70700,-1.53100523
1.70750,-0.9206164142
1.70800,-0.9206164142
1.70850,-1.53100523
1.70900,-1.225810822
1.70950,-0.005033191132
1.71000,1.21574444
1.71050,0.6053556243
1.71100,-0.005033191132
1.71150,-0.3102275988
1.71200,-0.005033191132
1.71250,0.3001612166
1.71300,-0.005033191132
1.71350,-0.005033191132
1.71400,-0.3102275988
1.71450,-0.6154220065
1.71500,-0.005033191132
1.71550,0.910550032
1.71600,2.131327663
1.71650,1.21574444
1.71700,-0.005033191132
1.71750,-0.3102275988
1.71800,0.6053556243
1.71850,1.520938847
1.71900,0.910550032
1.71950,-0.005033191132
1.72000,-0.3102275988
1.72050,-0.005033191132
1.72100,0.3001612166
1.72150,0.3001612166
1.72200,0.910550032
1.72250,2.131327663
1.72300,2.43652207
1.72350,2.131327663
1.72400,1.21574444
1.72450,1.21574444
1.72500,1.21574444
1.72550,0.6053556243
1.72600,0.3001612166
1.72650,0.3001612166
1.72700,0.910550032
1.72750,1.520938847
1.72800,1.520938847
1.72850,2.43652207
1.72900,3.352105294
1.72950,3.657299701
1.73000,3.046910886
1.73050,2.131327663
1.73100,1.826133255
1.73150,1.21574444
1.73200,-0.005033191132
1.73250,-0.3102275988
1.73300,-0.005033191132
1.73350,-0.005033191132
1.73400,-1.225810822
1.73450,-3.056977268
1.73500,-3.667366084
1.73550,-3.667366084
1.73600,-3.667366084
1.73650,-3.362171676
1.73700,-2.141394045
1.73750,-0.9206164142
1.73800,-0.3102275988
1.73850,-0.6154220065
1.73900,-0.3102275988
1.73950,-0.005033191132
1.74000,0.910550032
1.74050,2.131327663
1.74100,3.046910886
1.74150,3.046910886
1.74200,1.520938847
1.74250,0.3001612166
1.74300,1.520938847
1.74350,3.657299701
1.74400,3.962494109
1.74450,2.131327663
1.74500,1.520938847
1.74550,2.131327663
1.74600,1.826133255
1.74650,-0.6154220065
1.74700,-3.362171676
1.74750,-3.362171676
1.74800,-1.836199637
1.74850,-0.9206164142
1.74900,-2.141394045
1.74950,-3.667366084
1.75000,-4.582949307
1.75050,-3.972560491
1.75100,-1.225810822
1.75150,1.520938847
1.75200,3.046910886
1.75250,2.131327663
1.75300,0.3001612166
1.75350,-0.9206164142
1.75400,-2.141394045
1.75450,-3.056977268
1.75500,-3.667366084
1.75550,-3.972560491
1.75600,-3.972560491
1.75650,-4.582949307
1.75700,-4.888143714
1.75750,-5.49853253
1.75800,-5.803726937
1.75850,-6.108921345
1.75900,-5.49853253
1.75950,-4.582949307
1.76000,-4.277754899
1.76050,-3.667366084
1.76100,-2.75178286
1.76150,-1.53100523
1.76200,-0.9206164142
1.76250,-0.6154220065
1.76300,-0.005033191132
1.76350,0.6053556243
1.76400,0.3001612166
1.76450,-0.005033191132
1.76500,0.3001612166
1.76550,0.6053556243
1.76600,-0.005033191132
1.76650,-0.3102275988
1.76700,0.3001612166
1.76750,1.826133255
1.76800,1.826133255
1.76850,0.910550032
1.76900,0.6053556243
1.76950,1.826133255
1.77000,2.131327663
1.77050,0.910550032
1.77100,-0.005033191132
1.77150,1.21574444
1.77200,3.352105294
1.77250,3.657299701
1.77300,1.826133255
1.77350,-0.005033191132
1.77400,-0.3102275988
1.77450,-0.005033191132
1.77500,-0.005033191132
1.77550,-0.005033191132
1.77600,-0.005033191132
1.77650,-0.005033191132
1.77700,-0.6154220065
1.77750,-1.53100523
1.77800,-1.225810822
1.77850,-0.005033191132
1.77900,-0.005033191132
1.77950,-0.005033191132
1.78000,-0.3102275988
1.78050,0.3001612166
1.78100,0.910550032
1.78150,0.3001612166
1.78200,-0.005033191132
1.78250,0.910550032
1.78300,2.43652207
1.78350,2.741716478
1.78400,1.520938847
1.78450,-0.005033191132
1.78500,-0.9206164142
1.78550,-0.9206164142
1.78600,-0.6154220065
1.78650,-0.005033191132
1.78700,1.21574444
1.78750,1.826133255
1.78800,1.21574444
1.78850,0.6053556243
1.78900,1.21574444
1.78950,1.520938847
1.79000,0.6053556243
1.79050,-0.3102275988
1.79100,-0.3102275988
1.79150,0.3001612166
1.79200,0.910550032
1.79250,0.6053556243
1.79300,0.3001612166
1.79350,-0.005033191132
1.79400,-0.3102275988
1.79450,-0.3102275988
1.79500,1.21574444
1.79550,2.131327663
1.79600,0.910550032
1.79650,-1.225810822
1.79700,-1.836199637
1.79750,0.3001612166
1.79800,1.826133255
1.79850,0.910550032
1.79900,-0.9206164142
1.79950,-0.6154220065
1.80000,0.3001612166
1.80050,0.6053556243
1.80100,-0.005033191132
1.80150,-0.005033191132
1.80200,0.3001612166
1.80250,-0.005033191132
1.80300,-1.225810822
1.80350,-1.225810822
1.80400,0.3001612166
1.80450,0.910550032
1.80500,-0.005033191132
1.80550,-1.53100523
1.80600,-1.225810822
1.80650,-0.005033191132
1.80700,0.6053556243
1.80750,0.910550032
1.80800,0.910550032
1.80850,0.910550032
1.80900,1.21574444
1.80950,1.520938847
1.81000,1.520938847
1.81050,0.910550032
1.81100,-0.005033191132
1.81150,-0.3102275988
1.81200,0.6053556243
1.81250,1.520938847
1.81300,1.826133255
1.81350,1.826133255
1.81400,1.520938847
1.81450,1.520938847
1.81500,1.21574444
1.81550,0.6053556243
1.81600,-0.005033191132
1.81650,-0.9206164142
1.81700,-0.9206164142
1.81750,-0.005033191132
1.81800,0.910550032
1.81850,0.3001612166
1.81900,-0.9206164142
1.81950,-1.225810822
1.82000,-0.6154220065
1.82050,-0.6154220065
1.82100,-1.225810822
1.82150,-1.225810822
1.82200,-0.005033191132
1.82250,0.910550032
1.82300,0.3001612166
1.82350,-0.005033191132
1.82400,-0.005033191132
1.82450,0.910550032
1.82500,0.910550032
1.82550,0.6053556243
1.82600,0.910550032
1.82650,0.910550032
1.82700,0.3001612166
1.82750,-0.6154220065
1.82800,-0.6154220065
1.82850,0.3001612166
1.82900,1.21574444
1.82950,1.21574444
1.83000,-0.005033191132
1.83050,-0.005033191132
1.83100,-0.005033191132
1.83150,0.3001612166
1.83200,0.3001612166
1.83250,0.910550032
1.83300,3.046910886
1.83350,6.098854963
1.83400,7.319632594
1.83450,7.319632594
1.83500,7.319632594
1.83550,7.930021409
1.83600,7.624827001
1.83650,5.18327174
1.83700,2.131327663
1.83750,0.910550032
1.83800,-0.005033191132
1.83850,-1.53100523
1.83900,-4.277754899
1.83950,-6.414115753
1.84000,-7.024504568
1.84050,-7.024504568
1.84100,-7.329698976
1.84150,-7.940087791
1.84200,-8.550476607
1.84250,-8.550476607
1.84300,-8.245282199
1.84350,-7.940087791
1.84400,-7.024504568
1.84450,-5.193338122
1.84500,-3.362171676
1.84550,-2.75178286
1.84600,-2.75178286
1.84650,-2.141394045
1.84700,-0.9206164142
1.84750,-0.005033191132
1.84800,-0.005033191132
1.84850,-0.3102275988
1.84900,-0.3102275988
1.84950,-0.005033191132
1.85000,0.6053556243
1.85050,1.21574444
1.85100,1.520938847
1.85150,1.21574444
1.85200,0.910550032
1.85250,1.520938847
1.85300,3.046910886
1.85350,3.352105294
1.85400,1.826133255
1.85450,-0.005033191132
1.85500,0.3001612166
1.85550,2.131327663
1.85600,2.131327663
1.85650,0.3001612166
1.85700,-0.3102275988
1.85750,0.3001612166
1.85800,2.43652207
1.85850,3.046910886
1.85900,1.826133255
1.85950,-0.005033191132
1.86000,-1.225810822
1.86050,-1.225810822
1.86100,-0.3102275988
1.86150,0.6053556243
1.86200,0.6053556243
1.86250,0.3001612166
1.86300,-0.005033191132
1.86350,0.3001612166
1.86400,0.3001612166
1.86450,-0.005033191132
1.86500,-0.3102275988
1.86550,-0.005033191132
1.86600,-0.005033191132
1.86650,0.3001612166
1.86700,0.910550032
1.86750,1.21574444
1.86800,1.520938847
1.86850,1.520938847
1.86900,0.6053556243
1.86950,-0.6154220065
1.87000,-1.225810822
1.87050,-0.3102275988
1.87100,0.6053556243
1.87150,0.910550032
1.87200,-0.005033191132
1.87250,-0.6154220065
1.87300,-0.9206164142
1.87350,-0.3102275988
1.87400,0.3001612166
1.87450,1.520938847
1.87500,2.131327663
1.87550,1.826133255
1.87600,0.910550032
1.87650,0.910550032
1.87700,1.21574444
1.87750,1.21574444
1.87800,0.6053556243
1.87850,0.6053556243
1.87900,1.520938847
1.87950,1.826133255
1.88000,0.6053556243
1.88050,0.3001612166
1.88100,1.21574444
1.88150,1.826133255
1.88200,0.910550032
1.88250,-0.005033191132
1.88300,-0.005033191132
1.88350,0.3001612166
1.88400,-0.3102275988
1.88450,-1.225810822
1.88500,-0.9206164142
1.88550,-0.3102275988
1.88600,-0.9206164142
1.88650,-1.53100523
1.88700,-0.9206164142
1.88750,-0.005033191132
1.88800,-0.005033191132
1.88850,-0.9206164142
1.88900,-1.225810822
1.88950,-0.3102275988
1.89000,-0.005033191132
1.89050,-0.005033191132
1.89100,-0.005033191132
1.89150,0.6053556243
1.89200,0.3001612166
1.89250,-0.005033191132
1.89300,-0.005033191132
1.89350,0.6053556243
1.89400,0.910550032
1.89450,0.6053556243
1.89500,0.6053556243
1.89550,0.910550032
1.89600,0.3001612166
1.89650,-0.6154220065
1.89700,-0.6154220065
1.89750,-0.005033191132
1.89800,0.3001612166
1.89850,-0.3102275988
1.89900,-0.3102275988
1.89950,0.3001612166
1.90000,0.910550032
1.90050,-0.005033191132
1.90100,-0.6154220065
1.90150,0.3001612166
1.90200,1.520938847
1.90250,1.21574444
1.90300,-0.005033191132
1.90350,-0.3102275988
1.90400,0.6053556243
1.90450,1.21574444
1.90500,0.6053556243
1.90550,-0.005033191132
1.90600,-0.3102275988
1.90650,-0.005033191132
1.90700,0.3001612166
1.90750,-0.005033191132
1.90800,-0.005033191132
1.90850,-0.005033191132
1.90900,0.3001612166
1.90950,0.910550032
1.91000,0.910550032
1.91050,0.6053556243
1.91100,0.3001612166
1.91150,0.910550032
1.91200,1.826133255
1.91250,2.43652207
1.91300,2.43652207
1.91350,1.520938847
1.91400,1.21574444
1.91450,0.910550032
1.91500,0.6053556243
1.91550,-0.3102275988
1.91600,-1.53100523
1.91650,-2.446588453
1.91700,-2.141394045
1.91750,-2.141394045
1.91800,-2.446588453
1.91850,-2.446588453
1.91900,-2.141394045
1.91950,-3.056977268
1.92000,-3.972560491
1.92050,-3.056977268
1.92100,0.3001612166
1.92150,2.43652207
1.92200,0.6053556243
1.92250,-2.446588453
1.92300,-3.362171676
1.92350,-1.53100523
1.92400,-0.3102275988
1.92450,-1.225810822
1.92500,-1.836199637
1.92550,-1.836199637
1.92600,-2.446588453
1.92650,-3.362171676
1.92700,-3.362171676
1.92750,-2.446588453
1.92800,-2.446588453
1.92850,-3.362171676
1.92900,-3.362171676
1.92950,-1.836199637
1.93000,-1.225810822
1.93050,-2.141394045
1.93100,-2.75178286
1.93150,-1.225810822
1.93200,0.3001612166
1.93250,0.910550032
1.93300,0.3001612166
1.93350,1.21574444
1.93400,2.741716478
1.93450,3.046910886
1.93500,1.21574444
1.93550,-0.005033191132
1.93600,-0.005033191132
1.93650,1.21574444
1.93700,1.21574444
1.93750,0.910550032
1.93800,0.910550032
1.93850,1.826133255
1.93900,1.826133255
1.93950,0.910550032
1.94000,0.3001612166
1.94050,0.910550032
1.94100,1.826133255
1.94150,1.826133255
1.94200,1.520938847
1.94250,1.21574444
1.94300,0.910550032
1.94350,-0.005033191132
1.94400,-0.9206164142
1.94450,-1.836199637
1.94500,-1.836199637
1.94550,-0.3102275988
1.94600,0.910550032
1.94650,1.520938847
1.94700,0.910550032
1.94750,0.3001612166
1.94800,-0.005033191132
1.94850,-0.005033191132
1.94900,-0.9206164142
1.94950,-0.9206164142
1.95000,0.6053556243
1.95050,2.741716478
1.95100,2.741716478
1.95150,1.826133255
1.95200,1.21574444
1.95250,1.826133255
1.95300,1.826133255
1.95350,0.6053556243
1.95400,-0.005033191132
1.95450,0.3001612166
1.95500,0.6053556243
1.95550,-0.005033191132
1.95600,-0.3102275988
1.95650,-0.005033191132
1.95700,0.3001612166
1.95750,-0.005033191132
1.95800,-0.3102275988
1.95850,-0.005033191132
1.95900,0.6053556243
1.95950,-0.005033191132
1.96000,-0.3102275988
1.96050,-0.005033191132
1.96100,0.910550032
1.96150,1.520938847
1.96200,1.21574444
1.96250,0.6053556243
1.96300,0.3001612166
1.96350,0.3001612166
1.96400,0.6053556243
1.96450,0.3001612166
1.96500,-0.3102275988
1.96550,-0.9206164142
1.96600,-0.6154220065
1.96650,-0.005033191132
1.96700,-0.005033191132
1.96750,-0.3102275988
1.96800,-0.9206164142
1.96850,-0.9206164142
1.96900,-0.6154220065
1.96950,-0.6154220065
1.97000,-0.6154220065
1.97050,-0.3102275988
1.97100,-0.3102275988
1.97150,-0.3102275988
1.97200,-0.005033191132
1.97250,0.3001612166
1.97300,-0.005033191132
1.97350,-0.6154220065
1.97400,-0.3102275988
1.97450,0.910550032
1.97500,1.520938847
1.97550,0.3001612166
1.97600,-0.3102275988
1.97650,0.3001612166
1.97700,1.826133255
1.97750,1.520938847
1.97800,0.3001612166
1.97850,0.3001612166
1.97900,1.520938847
1.97950,1.21574444
1.98000,-0.005033191132
1.98050,0.6053556243
1.98100,3.657299701
1.98150,5.488466147
1.98200,4.572882924
1.98250,2.43652207
1.98300,1.520938847
1.98350,1.520938847
1.98400,1.21574444
1.98450,-0.005033191132
1.98500,-0.3102275988
1.98550,-0.6154220065
1.98600,-1.836199637
1.98650,-2.75178286
1.98700,-2.141394045
1.98750,-1.225810822
1.98800,-1.53100523
1.98850,-2.446588453
1.98900,-2.141394045
1.98950,-0.6154220065
1.99000,-0.6154220065
1.99050,-2.141394045
1.99100,-2.75178286
1.99150,-1.836199637
1.99200,-0.6154220065
1.99250,-0.9206164142
1.99300,-1.53100523
1.99350,-1.836199637
1.99400,-1.836199637
1.99450,-2.141394045
1.99500,-2.141394045
1.99550,-0.9206164142
1.99600,-0.005033191132
1.99650,-0.005033191132
1.99700,-1.53100523
1.99750,-2.446588453
1.99800,-2.75178286
1.99850,-2.446588453
1.99900,-2.141394045
1.99950,-1.225810822
2.00000,-0.6154220065
2.00050,-0.6154220065
2.00100,-0.9206164142
2.00150,-0.6154220065
2.00200,0.3001612166
2.00250,0.6053556243
2.00300,-0.005033191132
2.00350,-0.005033191132
2.00400,0.3001612166
2.00450,0.6053556243
2.00500,-0.005033191132
2.00550,-0.005033191132
2.00600,0.3001612166
2.00650,1.21574444
2.00700,1.826133255
2.00750,2.43652207
2.00800,3.657299701
2.00850,3.962494109
2.00900,2.43652207
2.00950,-0.005033191132
2.01000,-0.9206164142
2.01050,-0.3102275988
2.01100,0.6053556243
2.01150,0.3001612166
2.01200,-0.9206164142
2.01250,-1.836199637
2.01300,-1.225810822
2.01350,-0.005033191132
2.01400,0.6053556243
2.01450,-0.005033191132
2.01500,-0.6154220065
2.01550,-0.3102275988
2.01600,-0.005033191132
2.01650,-0.6154220065
2.01700,-2.141394045
2.01750,-2.446588453
2.01800,-1.225810822
2.01850,-0.6154220065
2.01900,-1.225810822
2.01950,-3.056977268
2.02000,-3.667366084
2.02050,-3.362171676
2.02100,-2.75178286
2.02150,-1.836199637
2.02200,-0.6154220065
2.02250,-0.005033191132
2.02300,-0.3102275988
2.02350,-0.9206164142
2.02400,-0.005033191132
2.02450,0.910550032
2.02500,0.6053556243
2.02550,-0.6154220065
2.02600,-0.9206164142
2.02650,-0.005033191132
2.02700,0.910550032
2.02750,1.21574444
2.02800,0.6053556243
2.02850,-0.005033191132
2.02900,-0.3102275988
2.02950,-0.6154220065
2.03000,-0.005033191132
2.03050,1.21574444
2.03100,0.910550032
2.03150,-0.3102275988
2.03200,-1.225810822
2.03250,-0.005033191132
2.03300,1.520938847
2.03350,1.520938847
2.03400,0.6053556243
2.03450,0.3001612166
2.03500,0.910550032
2.03550,1.21574444
2.03600,1.21574444
2.03650,1.520938847
2.03700,1.826133255
2.03750,1.21574444
2.03800,-0.005033191132
2.03850,-0.3102275988
2.03900,0.6053556243
2.03950,1.520938847
2.04000,0.6053556243
2.04050,-0.9206164142
2.04100,-1.836199637
2.04150,-1.53100523
2.04200,-0.6154220065
2.04250,-0.005033191132
2.04300,0.3001612166
2.04350,0.3001612166
2.04400,-0.005033191132
2.04450,-0.3102275988
2.04500,-0.005033191132
2.04550,0.6053556243
2.04600,0.3001612166
2.04650,-0.3102275988
2.04700,-0.3102275988
2.04750,-0.005033191132
2.04800,-0.3102275988
2.04850,-1.836199637
2.04900,-2.446588453
2.04950,-1.53100523
2.05000,-0.6154220065
2.05050,-0.9206164142
2.05100,-2.141394045
2.05150,-1.53100523
2.05200,-0.005033191132
2.05250,0.6053556243
2.05300,0.3001612166
2.05350,-0.005033191132
2.05400,-0.6154220065
2.05450,-0.9206164142
2.05500,-0.9206164142
2.05550,-0.6154220065
2.05600,-0.3102275988
2.05650,-0.3102275988
2.05700,-0.005033191132
2.05750,-0.005033191132
2.05800,-0.005033191132
2.05850,-0.6154220065
2.05900,-0.6154220065
2.05950,-0.005033191132
2.06000,0.3001612166
2.06050,-0.005033191132
2.06100,-0.005033191132
2.06150,-0.005033191132
2.06200,-0.005033191132
2.06250,-0.3102275988
2.06300,-0.6154220065
2.06350,-0.005033191132
2.06400,-0.005033191132
2.06450,-0.005033191132
2.06500,-0.3102275988
2.06550,-0.005033191132
2.06600,0.910550032
2.06650,0.6053556243
2.06700,0.3001612166
2.06750,0.6053556243
2.06800,0.910550032
2.06850,0.6053556243
2.06900,-0.005033191132
2.06950,-0.3102275988
2.07000,-0.3102275988
2.07050,-0.005033191132
2.07100,0.910550032
2.07150,1.826133255
2.07200,2.131327663
2.07250,1.21574444
2.07300,0.6053556243
2.07350,0.910550032
2.07400,0.910550032
2.07450,-0.005033191132
2.07500,-0.9206164142
2.07550,-0.005033191132
2.07600,2.43652207
2.07650,3.046910886
2.07700,1.520938847
2.07750,-0.005033191132
2.07800,0.3001612166
2.07850,1.21574444
2.07900,1.21574444
2.07950,0.6053556243
2.08000,1.21574444
2.08050,1.826133255
2.08100,1.520938847
2.08150,0.3001612166
2.08200,-0.9206164142
2.08250,-0.9206164142
2.08300,-0.005033191132
2.08350,0.910550032
2.08400,1.21574444
2.08450,0.910550032
2.08500,-0.005033191132
2.08550,-0.005033191132
2.08600,0.3001612166
2.08650,1.21574444
2.08700,1.520938847
2.08750,0.6053556243
2.08800,-0.6154220065
2.08850,-1.225810822
2.08900,-0.9206164142
2.08950,-0.3102275988
2.09000,-0.3102275988
2.09050,-0.6154220065
2.09100,-0.6154220065
2.09150,-0.005033191132
2.09200,0.3001612166
2.09250,0.6053556243
2.09300,0.910550032
2.09350,0.6053556243
2.09400,-0.005033191132
2.09450,-0.3102275988
2.09500,-0.005033191132
2.09550,-0.005033191132
2.09600,-1.225810822
2.09650,-1.836199637
2.09700,-1.225810822
2.09750,-0.005033191132
2.09800,0.6053556243
2.09850,0.3001612166
2.09900,-0.005033191132
2.09950,-0.3102275988
2.10000,-0.6154220065
2.10050,-1.225810822
2.10100,-1.53100523
2.10150,-1.225810822
2.10200,-0.6154220065
2.10250,-0.005033191132
2.10300,0.3001612166
2.10350,-0.005033191132
2.10400,-0.6154220065
2.10450,-0.9206164142
2.10500,-0.005033191132
2.10550,-0.005033191132
2.10600,-0.005033191132
2.10650,-0.005033191132
2.10700,0.6053556243
2.10750,1.826133255
2.10800,1.826133255
2.10850,0.910550032
2.10900,-0.005033191132
2.10950,-0.3102275988
2.11000,-1.225810822
2.11050,-0.9206164142
2.11100,-0.005033191132
2.11150,0.910550032
2.11200,0.910550032
2.11250,0.3001612166
2.11300,-0.005033191132
2.11350,-0.3102275988
2.11400,-0.6154220065
2.11450,-0.3102275988
2.11500,-0.005033191132
2.11550,-0.3102275988
2.11600,-2.141394045
2.11650,-2.75178286
2.11700,-0.9206164142
2.11750,1.520938847
2.11800,1.826133255
2.11850,0.3001612166
2.11900,-0.3102275988
2.11950,-0.005033191132
2.12000,0.910550032
2.12050,0.910550032
2.12100,0.3001612166
2.12150,0.3001612166
2.12200,0.6053556243
2.12250,0.910550032
2.12300,1.21574444
2.12350,0.6053556243
2.12400,-0.005033191132
2.12450,-0.9206164142
2.12500,-0.6154220065
2.12550,0.3001612166
2.12600,1.21574444
2.12650,1.21574444
2.12700,0.3001612166
2.12750,-0.3102275988
2.12800,-0.6154220065
2.12850,-0.005033191132
2.12900,0.3001612166
2.12950,-0.005033191132
2.13000,-0.005033191132
2.13050,1.21574444
2.13100,2.43652207
2.13150,2.43652207
2.13200,1.826133255
2.13250,1.520938847
2.13300,1.520938847
2.13350,0.910550032
2.13400,-0.005033191132
2.13450,-0.005033191132
2.13500,0.3001612166
2.13550,-0.005033191132
2.13600,-0.6154220065
2.13650,-0.3102275988
2.13700,1.21574444
2.13750,1.826133255
2.13800,-0.005033191132
2.13850,-2.141394045
2.13900,-2.141394045
2.13950,-0.3102275988
2.14000,0.3001612166
2.14050,-0.005033191132
2.14100,-0.6154220065
2.14150,-0.9206164142
2.14200,-1.53100523
2.14250,-2.446588453
2.14300,-2.141394045
2.14350,-0.6154220065
2.14400,-0.005033191132
2.14450,-1.225810822
2.14500,-2.141394045
2.14550,-1.225810822
2.14600,0.3001612166
2.14650,-0.005033191132
2.14700,-1.53100523
2.14750,-1.836199637
2.14800,-0.005033191132
2.14850,1.826133255
2.14900,0.910550032
2.14950,-0.3102275988
2.15000,-0.005033191132
2.15050,2.131327663
2.15100,2.131327663
2.15150,-0.005033191132
2.15200,-0.6154220065
2.15250,0.3001612166
2.15300,1.21574444
2.15350,-0.3102275988
2.15400,-2.141394045
2.15450,-1.53100523
2.15500,1.21574444
2.15550,2.741716478
2.15600,2.131327663
2.15650,1.826133255
2.15700,3.046910886
2.15750,3.352105294
2.15800,1.21574444
2.15850,-0.9206164142
2.15900,-1.53100523
2.15950,-1.53100523
2.16000,-2.75178286
2.16050,-4.277754899
2.16100,-3.362171676
2.16150,-1.53100523
2.16200,-0.9206164142
2.16250,-1.836199637
2.16300,-1.836199637
2.16350,-0.9206164142
2.16400,-0.3102275988
2.16450,-0.6154220065
2.16500,-0.6154220065
2.16550,0.3001612166
2.16600,1.21574444
2.16650,1.21574444
2.16700,0.910550032
2.16750,0.910550032
2.16800,0.910550032
2.16850,0.6053556243
2.16900,0.910550032
2.16950,0.910550032
2.17000,-0.005033191132
2.17050,-0.3102275988
2.17100,0.3001612166
2.17150,1.826133255
2.17200,1.520938847
2.17250,-0.005033191132
2.17300,-0.9206164142
2.17350,-0.005033191132
2.17400,-0.005033191132
2.17450,-1.53100523
2.17500,-3.056977268
2.17550,-2.446588453
2.17600,-0.6154220065
2.17650,0.3001612166
2.17700,-0.005033191132
2.17750,-0.005033191132
2.17800,-0.3102275988
2.17850,-0.005033191132
2.17900,0.3001612166
2.17950,0.3001612166
2.18000,-0.005033191132
2.18050,-0.6154220065
2.18100,-0.005033191132
2.18150,1.21574444
2.18200,1.826133255
2.18250,0.6053556243
2.18300,-0.3102275988
2.18350,-0.005033191132
2.18400,1.520938847
2.18450,2.131327663
2.18500,0.6053556243
2.18550,-0.9206164142
2.18600,-1.225810822
2.18650,-0.005033191132
2.18700,1.21574444
2.18750,0.910550032
2.18800,-0.3102275988
2.18850,-0.9206164142
2.18900,-0.6154220065
2.18950,-0.005033191132
2.19000,-0.005033191132
2.19050,-0.3102275988
2.19100,-0.005033191132
2.19150,-0.005033191132
2.19200,-0.005033191132
2.19250,-0.005033191132
2.19300,-0.005033191132
2.19350,-0.005033191132
2.19400,-0.6154220065
2.19450,-0.6154220065
2.19500,0.6053556243
2.19550,1.826133255
2.19600,1.21574444
2.19650,-0.005033191132
2.19700,-0.005033191132
2.19750,0.910550032
2.19800,0.910550032
2.19850,-0.005033191132
2.19900,-0.005033191132
2.19950,1.21574444
2.20000,1.21574444
2.20050,-0.005033191132
2.20100,-0.6154220065
2.20150,-0.3102275988
2.20200,0.3001612166
2.20250,-0.005033191132
2.20300,-0.6154220065
2.20350,-0.9206164142
2.20400,-0.3102275988
2.20450,0.6053556243
2.20500,1.21574444
2.20550,1.520938847
2.20600,0.910550032
2.20650,0.3001612166
2.20700,0.6053556243
2.20750,0.6053556243
2.20800,-0.3102275988
2.20850,-1.53100523
2.20900,-1.225810822
2.20950,-0.005033191132
2.21000,0.6053556243
2.21050,0.3001612166
2.21100,-0.005033191132
2.21150,-0.005033191132
2.21200,-0.6154220065
2.21250,-0.6154220065
2.21300,-0.3102275988
2.21350,-0.005033191132
2.21400,-0.9206164142
2.21450,-1.836199637
2.21500,-1.225810822
2.21550,0.3001612166
2.21600,0.6053556243
2.21650,-0.3102275988
2.21700,-0.9206164142
2.21750,-0.3102275988
2.21800,-0.3102275988
2.21850,-0.9206164142
2.21900,-1.225810822
2.21950,-0.6154220065
2.22000,-0.3102275988
2.22050,-0.6154220065
2.22100,-0.3102275988
2.22150,0.6053556243
2.22200,0.6053556243
2.22250,-0.005033191132
2.22300,-0.3102275988
2.22350,-0.005033191132
2.22400,0.3001612166
2.22450,-0.005033191132
2.22500,0.6053556243
2.22550,2.131327663
2.22600,2.741716478
2.22650,1.520938847
2.22700,-0.005033191132
2.22750,-0.005033191132
2.22800,0.3001612166
2.22850,0.6053556243
2.22900,1.21574444
2.22950,1.21574444
2.23000,0.3001612166
2.23050,-0.6154220065
2.23100,-0.6154220065
2.23150,-0.005033191132
2.23200,-0.005033191132
2.23250,-1.53100523
2.23300,-1.836199637
2.23350,-0.005033191132
2.23400,0.6053556243
2.23450,-0.005033191132
2.23500,-0.005033191132
2.23550,1.826133255
2.23600,3.046910886
2.23650,2.43652207
2.23700,0.910550032
2.23750,1.21574444
2.23800,1.21574444
2.23850,-0.3102275988
2.23900,-1.836199637
2.23950,-0.9206164142
2.24000,0.910550032
2.24050,0.910550032
2.24100,-0.005033191132
2.24150,-0.3102275988
2.24200,0.6053556243
2.24250,0.910550032
2.24300,-0.005033191132
2.24350,-0.005033191132
2.24400,0.910550032
2.24450,1.21574444
2.24500,0.6053556243
2.24550,-0.005033191132
2.24600,0.6053556243
2.24650,0.910550032
2.24700,0.3001612166
2.24750,-0.6154220065
2.24800,-0.3102275988
2.24850,0.3001612166
2.24900,0.3001612166
2.24950,-0.005033191132
2.25000,-0.6154220065
2.25050,-0.3102275988
2.25100,0.6053556243
2.25150,1.21574444
2.25200,0.910550032
2.25250,-0.005033191132
2.25300,-1.225810822
2.25350,-1.225810822
2.25400,-0.3102275988
2.25450,-0.005033191132
2.25500,-0.005033191132
2.25550,-0.6154220065
2.25600,-0.9206164142
2.25650,-0.005033191132
2.25700,0.6053556243
2.25750,0.3001612166
2.25800,-0.3102275988
2.25850,-0.9206164142
2.25900,-0.6154220065
2.25950,-0.3102275988
2.26000,-0.005033191132
2.26050,-0.005033191132
2.26100,0.6053556243
2.26150,0.6053556243
2.26200,-0.3102275988
2.26250,-0.9206164142
2.26300,-0.3102275988
2.26350,-0.005033191132
2.26400,-0.3102275988
2.26450,-0.005033191132
2.26500,0.6053556243
2.26550,1.520938847
2.26600,0.6053556243
2.26650,-0.6154220065
2.26700,-0.6154220065
2.26750,-0.3102275988
2.26800,-0.6154220065
2.26850,-1.225810822
2.26900,-0.9206164142
2.26950,-0.005033191132
2.27000,0.3001612166
2.27050,-0.3102275988
2.27100,-0.9206164142
2.27150,-0.005033191132
2.27200,1.520938847
2.27250,2.131327663
2.27300,1.21574444
2.27350,-0.005033191132
2.27400,-1.53100523
2.27450,-2.141394045
2.27500,-1.53100523
2.27550,-0.005033191132
2.27600,0.3001612166
2.27650,-0.005033191132
2.27700,-1.225810822
2.27750,-1.836199637
2.27800,-1.225810822
2.27850,-0.6154220065
2.27900,-0.9206164142
2.27950,-1.225810822
2.28000,-0.6154220065
2.28050,0.6053556243
2.28100,1.520938847
2.28150,1.21574444
2.28200,0.6053556243
2.28250,-0.005033191132
2.28300,-0.6154220065
2.28350,-0.6154220065
2.28400,-0.9206164142
2.28450,-1.53100523
2.28500,-2.446588453
2.28550,-3.056977268
2.28600,-1.836199637
2.28650,-0.6154220065
2.28700,-0.6154220065
2.28750,-1.53100523
2.28800,-0.9206164142
2.28850,1.520938847
2.28900,3.962494109
2.28950,4.267688517
2.29000,2.43652207
2.29050,0.910550032
2.29100,0.3001612166
2.29150,-0.005033191132
2.29200,-0.3102275988
2.29250,-0.9206164142
2.29300,-2.141394045
2.29350,-3.056977268
2.29400,-3.667366084
2.29450,-3.667366084
2.29500,-3.972560491
2.29550,-4.888143714
2.29600,-5.193338122
2.29650,-3.972560491
2.29700,-3.056977268
2.29750,-3.056977268
2.29800,-3.667366084
2.29850,-2.75178286
2.29900,-0.9206164142
2.29950,0.6053556243
2.30000,0.910550032
2.30050,0.910550032
2.30100,1.21574444
2.30150,1.520938847
2.30200,1.21574444
2.30250,0.3001612166
2.30300,-0.005033191132
2.30350,0.6053556243
2.30400,1.826133255
2.30450,2.43652207
2.30500,2.131327663
2.30550,1.826133255
2.30600,1.520938847
2.30650,0.910550032
2.30700,0.3001612166
2.30750,-0.005033191132
2.30800,-0.005033191132
2.30850,-0.005033191132
2.30900,-0.6154220065
2.30950,-1.836199637
2.31000,-2.446588453
2.31050,-1.53100523
2.31100,-0.3102275988
2.31150,0.3001612166
2.31200,0.3001612166
2.31250,-0.3102275988
2.31300,-0.6154220065
2.31350,-0.3102275988
2.31400,-0.005033191132
2.31450,-0.005033191132
2.31500,-0.6154220065
2.31550,-0.3102275988
2.31600,0.6053556243
2.31650,0.910550032
2.31700,-0.3102275988
2.31750,-1.836199637
2.31800,-1.53100523
2.31850,-0.005033191132
2.31900,0.3001612166
2.31950,-0.005033191132
2.32000,-0.6154220065
2.32050,-0.3102275988
2.32100,0.6053556243
2.32150,1.826133255
2.32200,2.43652207
2.32250,2.131327663
2.32300,1.520938847
2.32350,1.21574444
2.32400,0.910550032
2.32450,0.3001612166
2.32500,-0.3102275988
2.32550,-0.3102275988
2.32600,0.3001612166
2.32650,0.3001612166
2.32700,-0.005033191132
2.32750,-0.005033191132
2.32800,0.6053556243
2.32850,1.21574444
2.32900,0.3001612166
2.32950,-0.005033191132
2.33000,0.6053556243
2.33050,1.826133255
2.33100,0.910550032
2.33150,-0.6154220065
2.33200,-0.3102275988
2.33250,1.21574444
2.33300,1.826133255
2.33350,0.3001612166
2.33400,-0.3102275988
2.33450,0.3001612166
2.33500,1.21574444
2.33550,0.3001612166
2.33600,-0.005033191132
2.33650,0.3001612166
2.33700,1.520938847
2.33750,1.520938847
2.33800,0.6053556243
2.33850,0.3001612166
2.33900,0.6053556243
2.33950,0.3001612166
2.34000,-0.005033191132
2.34050,0.6053556243
2.34100,2.131327663
2.34150,2.43652207
2.34200,1.21574444
2.34250,-0.005033191132
2.34300,-0.3102275988
2.34350,0.6053556243
2.34400,1.520938847
2.34450,1.520938847
2.34500,1.21574444
2.34550,1.21574444
2.34600,1.520938847
2.34650,1.21574444
2.34700,0.910550032
2.34750,0.6053556243
2.34800,1.21574444
2.34850,1.21574444
2.34900,-0.005033191132
2.34950,-2.141394045
2.35000,-3.056977268
2.35050,-2.446588453
2.35100,-1.53100523
2.35150,-1.225810822
2.35200,-0.9206164142
2.35250,-0.005033191132
2.35300,0.910550032
2.35350,-0.005033191132
2.35400,-1.225810822
2.35450,-1.225810822
2.35500,-0.6154220065
2.35550,-0.3102275988
2.35600,-0.6154220065
2.35650,-0.005033191132
2.35700,1.520938847
2.35750,1.21574444
2.35800,-0.005033191132
2.35850,-0.3102275988
2.35900,0.6053556243
2.35950,1.21574444
2.36000,-0.005033191132
2.36050,-0.005033191132
2.36100,1.21574444
2.36150,2.741716478
2.36200,1.826133255
2.36250,-0.005033191132
2.36300,-0.6154220065
2.36350,-0.005033191132
2.36400,-0.005033191132
2.36450,-0.6154220065
2.36500,-1.225810822
2.36550,-1.53100523
2.36600,-0.9206164142
2.36650,-0.005033191132
2.36700,0.6053556243
2.36750,0.3001612166
2.36800,-0.3102275988
2.36850,-0.6154220065
2.36900,-0.005033191132
2.36950,-0.005033191132
2.37000,-0.3102275988
2.37050,-0.3102275988
2.37100,-0.005033191132
2.37150,-0.3102275988
2.37200,-1.53100523
2.37250,-2.141394045
2.37300,-1.53100523
2.37350,-0.9206164142
2.37400,-1.836199637
2.37450,-2.446588453
2.37500,-2.141394045
2.37550,-1.225810822
2.37600,-0.3102275988
2.37650,0.6053556243
2.37700,2.131327663
2.37750,1.826133255
2.37800,-0.005033191132
2.37850,-1.53100523
2.37900,-1.225810822
2.37950,-0.3102275988
2.38000,-0.3102275988
2.38050,-1.225810822
2.38100,-0.6154220065
2.38150,0.6053556243
2.38200,1.520938847
2.38250,1.520938847
2.38300,1.21574444
2.38350,0.910550032
2.38400,-0.005033191132
2.38450,-0.005033191132
2.38500,-0.005033191132
2.38550,0.910550032
2.38600,0.3001612166
2.38650,-0.9206164142
2.38700,-0.9206164142
2.38750,-0.005033191132
2.38800,0.910550032
2.38850,0.910550032
2.38900,0.6053556243
2.38950,0.910550032
2.39000,0.910550032
2.39050,-0.005033191132
2.39100,-0.005033191132
2.39150,0.6053556243
2.39200,1.21574444
2.39250,0.3001612166
2.39300,-0.9206164142
2.39350,-2.446588453
2.39400,-2.141394045
2.39450,-1.225810822
2.39500,-0.3102275988
2.39550,-0.3102275988
2.39600,-1.225810822
2.39650,-1.836199637
2.39700,-1.53100523
2.39750,-0.6154220065
2.39800,-0.9206164142
2.39850,-1.53100523
2.39900,-1.53100523
2.39950,-0.3102275988
2.40000,0.3001612166
2.40050,0.3001612166
2.40100,-0.005033191132
2.40150,-0.6154220065
2.40200,-0.9206164142
2.40250,-0.6154220065
2.40300,0.3001612166
2.40350,1.826133255
2.40400,1.826133255
2.40450,0.6053556243
2.40500,-0.005033191132
2.40550,-0.005033191132
2.40600,-0.005033191132
2.40650,-0.6154220065
2.40700,-0.6154220065
2.40750,-0.005033191132
2.40800,0.3001612166
2.40850,0.3001612166
2.40900,0.3001612166
2.40950,0.6053556243
2.41000,0.6053556243
2.41050,-0.005033191132
2.41100,-0.005033191132
2.41150,0.910550032
2.41200,1.21574444
2.41250,0.3001612166
2.41300,-0.3102275988
2.41350,-0.005033191132
2.41400,0.3001612166
2.41450,0.3001612166
2.41500,-0.3102275988
2.41550,-0.6154220065
2.41600,-0.6154220065
2.41650,-0.6154220065
2.41700,-0.005033191132
2.41750,0.3001612166
2.41800,-0.005033191132
2.41850,-0.6154220065
2.41900,-0.6154220065
2.41950,-0.005033191132
2.42000,-0.3102275988
2.42050,-1.225810822
2.42100,-1.225810822
2.42150,-0.005033191132
2.42200,0.6053556243
2.42250,0.3001612166
2.42300,-0.005033191132
2.42350,0.3001612166
2.42400,0.910550032
2.42450,0.910550032
2.42500,1.21574444
2.42550,1.21574444
2.42600,1.21574444
2.42650,0.6053556243
2.42700,0.3001612166
2.42750,0.3001612166
2.42800,0.3001612166
2.42850,-0.3102275988
2.42900,-1.225810822
2.42950,-0.6154220065
2.43000,0.3001612166
2.43050,0.910550032
2.43100,-0.005033191132
2.43150,-0.6154220065
2.43200,-0.6154220065
2.43250,-0.005033191132
2.43300,-0.9206164142
2.43350,-2.141394045
2.43400,-1.53100523
2.43450,0.6053556243
2.43500,2.43652207
2.43550,2.131327663
2.43600,1.21574444
2.43650,1.520938847
2.43700,1.826133255
2.43750,0.910550032
2.43800,-0.005033191132
2.43850,0.3001612166
2.43900,1.21574444
2.43950,0.6053556243
2.44000,-0.005033191132
2.44050,1.520938847
2.44100,3.657299701
2.44150,3.046910886
2.44200,0.6053556243
2.44250,-0.005033191132
2.44300,1.21574444
2.44350,0.6053556243
2.44400,-1.53100523
2.44450,-3.056977268
2.44500,-1.53100523
2.44550,-0.6154220065
2.44600,-2.141394045
2.44650,-3.972560491
2.44700,-3.667366084
2.44750,-2.446588453
2.44800,-2.75178286
2.44850,-3.362171676
2.44900,-1.836199637
2.44950,-0.3102275988
2.45000,-0.3102275988
2.45050,-1.53100523
2.45100,-1.225810822
2.45150,-0.005033191132
2.45200,0.910550032
2.45250,1.826133255
2.45300,2.131327663
2.45350,1.826133255
2.45400,0.6053556243
2.45450,0.6053556243
2.45500,2.131327663
2.45550,2.741716478
2.45600,1.520938847
2.45650,0.3001612166
2.45700,0.910550032
2.45750,1.826133255
2.45800,0.910550032
2.45850,-0.9206164142
2.45900,-1.836199637
2.45950,-0.3102275988
2.46000,0.910550032
2.46050,1.21574444
2.46100,0.3001612166
2.46150,-0.3102275988
2.46200,-0.3102275988
2.46250,-0.005033191132
2.46300,0.6053556243
2.46350,1.21574444
2.46400,1.826133255
2.46450,2.741716478
2.46500,3.352105294
2.46550,3.046910886
2.46600,1.826133255
2.46650,0.910550032
2.46700,0.910550032
2.46750,0.910550032
2.46800,0.6053556243
2.46850,1.21574444
2.46900,1.826133255
2.46950,1.21574444
2.47000,-0.005033191132
2.47050,-0.9206164142
2.47100,-0.6154220065
2.47150,-0.3102275988
2.47200,-0.6154220065
2.47250,-0.9206164142
2.47300,-0.6154220065
2.47350,-0.6154220065
2.47400,-0.9206164142
2.47450,-0.9206164142
2.47500,-0.005033191132
2.47550,-0.005033191132
2.47600,-1.225810822
2.47650,-2.141394045
2.47700,-0.9206164142
2.47750,0.3001612166
2.47800,-0.005033191132
2.47850,-1.836199637
2.47900,-2.446588453
2.47950,-1.225810822
2.48000,-0.005033191132
2.48050,-0.6154220065
2.48100,-0.9206164142
2.48150,-0.3102275988
2.48200,0.910550032
2.48250,0.910550032
2.48300,-0.3102275988
2.48350,-1.836199637
2.48400,-1.836199637
2.48450,-0.6154220065
2.48500,-0.005033191132
2.48550,-0.6154220065
2.48600,-1.836199637
2.48650,-1.836199637
2.48700,-0.9206164142
2.48750,-0.005033191132
2.48800,-0.005033191132
2.48850,-0.005033191132
2.48900,-0.005033191132
2.48950,-0.005033191132
2.49000,-0.005033191132
2.49050,0.3001612166
2.49100,0.910550032
2.49150,0.6053556243
2.49200,-0.3102275988
2.49250,-1.53100523
2.49300,-1.53100523
2.49350,-0.6154220065
2.49400,-0.6154220065
2.49450,-1.53100523
2.49500,-1.53100523
2.49550,-0.6154220065
2.49600,0.3001612166
2.49650,0.6053556243
2.49700,0.6053556243
2.49750,0.6053556243
2.49800,0.910550032
2.49850,0.6053556243
2.49900,0.3001612166
2.49950,0.6053556243
2.50000,0.6053556243
2.50050,-0.005033191132
2.50100,-0.005033191132
2.50150,0.6053556243
2.50200,1.21574444
2.50250,-0.005033191132
2.50300,-0.9206164142
2.50350,-0.3102275988
2.50400,0.910550032
2.50450,1.21574444
2.50500,0.910550032
2.50550,1.21574444
2.50600,2.131327663
2.50650,1.520938847
2.50700,-0.005033191132
2.50750,-1.225810822
2.50800,-0.9206164142
2.50850,-0.005033191132
2.50900,0.6053556243
2.50950,-0.005033191132
2.51000,-1.225810822
2.51050,-1.53100523
2.51100,-0.005033191132
2.51150,1.520938847
2.51200,1.520938847
2.51250,-0.005033191132
2.51300,-0.6154220065
2.51350,-0.005033191132
2.51400,0.3001612166
2.51450,-0.005033191132
2.51500,-1.225810822
2.51550,-1.225810822
2.51600,-0.3102275988
2.51650,0.3001612166
2.51700,0.6053556243
2.51750,0.6053556243
2.51800,-0.005033191132
2.51850,-0.9206164142
2.51900,-1.225810822
2.51950,-0.3102275988
2.52000,0.910550032
2.52050,1.520938847
2.52100,1.21574444
2.52150,1.826133255
2.52200,3.657299701
2.52250,4.878077332
2.52300,4.572882924
2.52350,3.352105294
2.52400,2.131327663
2.52450,1.826133255
2.52500,1.826133255
2.52550,1.520938847
2.52600,0.3001612166
2.52650,-0.6154220065
2.52700,-0.9206164142
2.52750,-0.005033191132
2.52800,-0.3102275988
2.52850,-1.836199637
2.52900,-3.972560491
2.52950,-4.888143714
2.53000,-4.277754899
2.53050,-3.056977268
2.53100,-1.836199637
2.53150,-1.225810822
2.53200,-1.53100523
2.53250,-2.446588453
2.53300,-3.056977268
2.53350,-2.141394045
2.53400,-0.6154220065
2.53450,0.3001612166
2.53500,1.520938847
2.53550,1.826133255
2.53600,0.910550032
2.53650,-0.3102275988
2.53700,-0.3102275988
2.53750,0.6053556243
2.53800,0.910550032
2.53850,-0.005033191132
2.53900,-0.3102275988
2.53950,0.3001612166
2.54000,0.910550032
2.54050,0.3001612166
2.54100,-0.005033191132
2.54150,0.3001612166
2.54200,1.21574444
2.54250,0.6053556243
2.54300,-0.3102275988
2.54350,-0.6154220065
2.54400,-0.005033191132
2.54450,-0.3102275988
2.54500,-0.9206164142
2.54550,-1.225810822
2.54600,-0.3102275988
2.54650,0.3001612166
2.54700,0.3001612166
2.54750,-0.005033191132
2.54800,-0.005033191132
2.54850,-0.005033191132
2.54900,0.3001612166
2.54950,0.910550032
2.55000,0.910550032
2.55050,0.3001612166
2.55100,-0.3102275988
2.55150,-0.005033191132
2.55200,1.21574444
2.55250,1.826133255
2.55300,0.910550032
2.55350,-0.005033191132
2.55400,-0.005033191132
2.55450,0.3001612166
2.55500,0.910550032
2.55550,0.910550032
2.55600,0.3001612166
2.55650,-0.005033191132
2.55700,-0.005033191132
2.55750,-0.005033191132
2.55800,-0.3102275988
2.55850,-1.53100523
2.55900,-2.141394045
2.55950,-1.225810822
2.56000,0.3001612166
2.56050,0.910550032
2.56100,0.3001612166
2.56150,-0.3102275988
2.56200,-0.3102275988
2.56250,-0.005033191132
2.56300,1.21574444
2.56350,1.520938847
2.56400,0.6053556243
2.56450,-0.005033191132
2.56500,-0.6154220065
2.56550,-0.3102275988
2.56600,-0.005033191132
2.56650,-0.3102275988
2.56700,-0.6154220065
2.56750,-0.6154220065
2.56800,-0.6154220065
2.56850,-0.005033191132
2.56900,0.6053556243
2.56950,0.3001612166
2.57000,-0.005033191132
2.57050,-0.6154220065
2.57100,-0.005033191132
2.57150,0.910550032
2.57200,1.520938847
2.57250,1.21574444
2.57300,0.6053556243
2.57350,0.6053556243
2.57400,0.6053556243
2.57450,0.910550032
2.57500,2.131327663
2.57550,3.962494109
2.57600,5.18327174
2.57650,3.962494109
2.57700,2.131327663
2.57750,1.21574444
2.57800,2.131327663
2.57850,3.046910886
2.57900,2.741716478
2.57950,1.520938847
2.58000,0.3001612166
2.58050,-0.005033191132
2.58100,-0.9206164142
2.58150,-2.446588453
2.58200,-3.667366084
2.58250,-3.056977268
2.58300,-1.225810822
2.58350,-0.6154220065
2.58400,-1.53100523
2.58450,-2.75178286
2.58500,-2.446588453
2.58550,-0.9206164142
2.58600,-0.005033191132
2.58650,-0.3102275988
2.58700,-0.9206164142
2.58750,-0.6154220065
2.58800,-0.005033191132
2.58850,-0.3102275988
2.58900,-2.141394045
2.58950,-3.972560491
2.59000,-3.972560491
2.59050,-2.141394045
2.59100,-0.3102275988
2.59150,0.3001612166
2.59200,0.6053556243
2.59250,1.520938847
2.59300,1.826133255
2.59350,0.910550032
2.59400,-0.9206164142
2.59450,-1.836199637
2.59500,-1.225810822
2.59550,-0.6154220065
2.59600,-1.53100523
2.59650,-2.141394045
2.59700,-0.9206164142
2.59750,0.6053556243
2.59800,0.910550032
2.59850,-0.005033191132
2.59900,-0.9206164142
2.59950,-0.3102275988
2.60000,0.3001612166
2.60050,0.3001612166
2.60100,-0.005033191132
2.60150,-0.005033191132
2.60200,-0.3102275988
2.60250,-0.6154220065
2.60300,-0.005033191132
2.60350,0.910550032
2.60400,0.6053556243
2.60450,-0.6154220065
2.60500,-0.6154220065
2.60550,-0.005033191132
2.60600,-0.005033191132
2.60650,-1.53100523
2.60700,-1.53100523
2.60750,-0.005033191132
2.60800,0.910550032
2.60850,-0.005033191132
2.60900,-1.53100523
2.60950,-0.9206164142
2.61000,-0.005033191132
2.61050,-0.005033191132
2.61100,-0.005033191132
2.61150,0.3001612166
2.61200,0.6053556243
2.61250,-0.005033191132
2.61300,-0.6154220065
2.61350,-0.005033191132
2.61400,0.3001612166
2.61450,-0.005033191132
2.61500,-0.3102275988
2.61550,-0.005033191132
2.61600,0.910550032
2.61650,0.910550032
2.61700,0.3001612166
2.61750,0.3001612166
2.61800,0.3001612166
2.61850,-0.005033191132
2.61900,-1.225810822
2.61950,-0.6154220065
2.62000,0.3001612166
2.62050,0.6053556243
2.62100,-0.005033191132
2.62150,-0.3102275988
2.62200,0.3001612166
2.62250,1.520938847
2.62300,2.131327663
2.62350,1.520938847
2.62400,0.6053556243
2.62450,-0.3102275988
2.62500,-1.53100523
2.62550,-1.836199637
2.62600,-1.53100523
2.62650,-0.9206164142
2.62700,0.3001612166
2.62750,2.131327663
2.62800,3.962494109
2.62850,4.267688517
2.62900,2.741716478
2.62950,0.910550032
2.63000,0.3001612166
2.63050,0.3001612166
2.63100,-0.005033191132
2.63150,-0.9206164142
2.63200,-1.53100523
2.63250,-1.836199637
2.63300,-2.75178286
2.63350,-3.667366084
2.63400,-3.972560491
2.63450,-3.362171676
2.63500,-2.446588453
2.63550,-2.75178286
2.63600,-2.75178286
2.63650,-2.141394045
2.63700,-1.225810822
2.63750,-1.225810822
2.63800,-0.9206164142
2.63850,-0.005033191132
2.63900,0.910550032
2.63950,0.910550032
2.64000,-0.005033191132
2.64050,-0.3102275988
2.64100,0.3001612166
2.64150,1.520938847
2.64200,1.826133255
2.64250,0.910550032
2.64300,-0.005033191132
2.64350,0.6053556243
2.64400,1.826133255
2.64450,2.131327663
2.64500,0.3001612166
2.64550,-0.9206164142
2.64600,-0.6154220065
2.64650,0.910550032
2.64700,0.910550032
2.64750,-0.9206164142
2.64800,-1.53100523
2.64850,-0.005033191132
2.64900,1.21574444
2.64950,0.3001612166
2.65000,-0.9206164142
2.65050,-0.9206164142
2.65100,-0.005033191132
2.65150,-0.6154220065
2.65200,-0.9206164142
2.65250,-0.005033191132
2.65300,1.826133255
2.65350,0.910550032
2.65400,-0.6154220065
2.65450,-0.005033191132
2.65500,1.826133255
2.65550,1.826133255
2.65600,-0.005033191132
2.65650,-1.225810822
2.65700,-0.3102275988
2.65750,-0.005033191132
2.65800,-0.005033191132
2.65850,-0.005033191132
2.65900,1.21574444
2.65950,2.131327663
2.66000,1.826133255
2.66050,3.046910886
2.66100,5.793660555
2.66150,7.319632594
2.66200,6.098854963
2.66250,3.962494109
2.66300,3.352105294
2.66350,3.962494109
2.66400,3.657299701
2.66450,2.43652207
2.66500,1.21574444
2.66550,0.6053556243
2.66600,-0.005033191132
2.66650,-0.6154220065
2.66700,-2.446588453
2.66750,-3.667366084
2.66800,-3.056977268
2.66850,-1.225810822
2.66900,-0.005033191132
2.66950,-0.3102275988
2.67000,-2.75178286
2.67050,-3.972560491
2.67100,-3.056977268
2.67150,-2.141394045
2.67200,-2.446588453
2.67250,-2.75178286
2.67300,-2.446588453
2.67350,-1.836199637
2.67400,-2.75178286
2.67450,-4.277754899
2.67500,-4.888143714
2.67550,-5.193338122
2.67600,-4.888143714
2.67650,-4.888143714
2.67700,-4.277754899
2.67750,-3.362171676
2.67800,-3.056977268
2.67850,-2.141394045
2.67900,-0.9206164142
2.67950,-0.005033191132
2.68000,-0.005033191132
2.68050,-0.6154220065
2.68100,-0.6154220065
2.68150,0.3001612166
2.68200,0.910550032
2.68250,0.3001612166
2.68300,-0.005033191132
2.68350,0.910550032
2.68400,2.43652207
2.68450,2.741716478
2.68500,1.21574444
2.68550,0.3001612166
2.68600,1.520938847
2.68650,3.352105294
2.68700,3.046910886
2.68750,0.3001612166
2.68800,-1.225810822
2.68850,-0.9206164142
2.68900,0.6053556243
2.68950,0.910550032
2.69000,-0.3102275988
2.69050,-2.141394045
2.69100,-1.836199637
2.69150,-0.3102275988
2.69200,0.910550032
2.69250,0.6053556243
2.69300,-0.005033191132
2.69350,-0.005033191132
2.69400,0.910550032
2.69450,0.910550032
2.69500,-0.005033191132
2.69550,-0.9206164142
2.69600,-0.005033191132
2.69650,1.520938847
2.69700,0.910550032
2.69750,-0.3102275988
2.69800,-1.225810822
2.69850,-0.3102275988
2.69900,0.6053556243
2.69950,0.910550032
2.70000,0.6053556243
2.70050,0.910550032
2.70100,2.131327663
2.70150,3.046910886
2.70200,3.046910886
2.70250,2.741716478
2.70300,1.826133255
2.70350,0.910550032
2.70400,0.6053556243
2.70450,0.3001612166
2.70500,-0.005033191132
2.70550,-0.005033191132
2.70600,-0.005033191132
2.70650,-0.005033191132
2.70700,-0.005033191132
2.70750,-0.3102275988
2.70800,-0.3102275988
2.70850,-0.9206164142
2.70900,-1.53100523
2.70950,-1.53100523
2.71000,-0.6154220065
2.71050,-0.005033191132
2.71100,0.3001612166
2.71150,-0.005033191132
2.71200,0.3001612166
2.71250,1.21574444
2.71300,1.520938847
2.71350,1.21574444
2.71400,0.3001612166
2.71450,-0.3102275988
2.71500,-0.9206164142
2.71550,-1.225810822
2.71600,-0.9206164142
2.71650,-0.005033191132
2.71700,0.3001612166
2.71750,0.910550032
2.71800,0.910550032
2.71850,0.6053556243
2.71900,-0.005033191132
2.71950,-0.005033191132
2.72000,0.3001612166
2.72050,-0.005033191132
2.72100,-0.9206164142
2.72150,-1.53100523
2.72200,-0.005033191132
2.72250,2.131327663
2.72300,2.131327663
2.72350,0.3001612166
2.72400,-0.3102275988
2.72450,0.3001612166
2.72500,1.21574444
2.72550,0.6053556243
2.72600,-0.005033191132
2.72650,0.3001612166
2.72700,0.6053556243
2.72750,-0.005033191132
2.72800,-0.005033191132
2.72850,-0.005033191132
2.72900,-0.005033191132
2.72950,-1.225810822
2.73000,-1.53100523
2.73050,-0.9206164142
2.73100,-0.3102275988
2.73150,-1.225810822
2.73200,-1.225810822
2.73250,0.3001612166
2.73300,1.826133255
2.73350,0.6053556243
2.73400,-0.9206164142
2.73450,-0.005033191132
2.73500,1.826133255
2.73550,2.131327663
2.73600,0.3001612166
2.73650,-0.3102275988
2.73700,0.6053556243
2.73750,1.826133255
2.73800,1.520938847
2.73850,0.910550032
2.73900,0.910550032
2.73950,0.910550032
2.74000,0.3001612166
2.74050,-0.005033191132
2.74100,-0.6154220065
2.74150,-1.225810822
2.74200,-0.9206164142
2.74250,-0.005033191132
2.74300,0.6053556243
2.74350,-0.005033191132
2.74400,-0.9206164142
2.74450,-1.53100523
2.74500,-1.225810822
2.74550,-1.53100523
2.74600,-2.141394045
2.74650,-1.836199637
2.74700,-1.53100523
2.74750,-1.836199637
2.74800,-2.75178286
2.74850,-2.75178286
2.74900,-1.53100523
2.74950,-0.6154220065
2.75000,-0.6154220065
2.75050,-0.005033191132
2.75100,1.520938847
2.75150,3.046910886
2.75200,3.962494109
2.75250,4.267688517
2.75300,5.18327174
2.75350,5.18327174
2.75400,4.267688517
2.75450,3.046910886
2.75500,2.43652207
2.75550,2.43652207
2.75600,2.131327663
2.75650,0.3001612166
2.75700,-1.53100523
2.75750,-3.362171676
2.75800,-4.582949307
2.75850,-4.888143714
2.75900,-4.582949307
2.75950,-4.888143714
2.76000,-5.803726937
2.76050,-6.719310161
2.76100,-6.108921345
2.76150,-4.277754899
2.76200,-2.75178286
2.76250,-2.141394045
2.76300,-2.446588453
2.76350,-3.056977268
2.76400,-3.362171676
2.76450,-2.75178286
2.76500,-1.225810822
2.76550,-0.005033191132
2.76600,-0.3102275988
2.76650,-0.6154220065
2.76700,-0.005033191132
2.76750,0.910550032
2.76800,0.910550032
2.76850,0.3001612166
2.76900,0.6053556243
2.76950,1.520938847
2.77000,1.21574444
2.77050,-0.005033191132
2.77100,-0.6154220065
2.77150,-0.005033191132
2.77200,0.910550032
2.77250,0.6053556243
2.77300,-0.005033191132
2.77350,1.21574444
2.77400,3.046910886
2.77450,3.657299701
2.77500,2.741716478
2.77550,2.131327663
2.77600,2.741716478
2.77650,3.046910886
2.77700,2.43652207
2.77750,1.520938847
2.77800,1.21574444
2.77850,0.910550032
2.77900,0.3001612166
2.77950,-0.005033191132
2.78000,1.21574444
2.78050,2.741716478
2.78100,2.741716478
2.78150,1.520938847
2.78200,1.520938847
2.78250,3.657299701
2.78300,5.793660555
2.78350,6.098854963
2.78400,4.572882924
2.78450,3.352105294
2.78500,3.046910886
2.78550,2.43652207
2.78600,1.826133255
2.78650,1.826133255
2.78700,2.741716478
2.78750,2.741716478
2.78800,0.910550032
2.78850,-1.836199637
2.78900,-4.277754899
2.78950,-5.193338122
2.79000,-5.193338122
2.79050,-4.888143714
2.79100,-4.888143714
2.79150,-4.582949307
2.79200,-4.582949307
2.79250,-4.277754899
2.79300,-3.972560491
2.79350,-3.056977268
2.79400,-2.446588453
2.79450,-2.75178286
2.79500,-3.667366084
2.79550,-3.667366084
2.79600,-2.141394045
2.79650,-0.005033191132
2.79700,0.910550032
2.79750,0.910550032
2.79800,0.6053556243
2.79850,0.910550032
2.79900,1.826133255
2.79950,2.43652207
2.80000,2.741716478
2.80050,2.741716478
2.80100,1.826133255
2.80150,1.520938847
2.80200,1.826133255
2.80250,2.741716478
2.80300,2.741716478
2.80350,1.826133255
2.80400,0.6053556243
2.80450,-0.005033191132
2.80500,0.3001612166
2.80550,0.910550032
2.80600,0.6053556243
