type,name,time_units,begin_time,frequency,count,units
signal,"Noraxon Ultium-RT LAT. TRICEPS","s",0.00000,2000,53280,"uV"

time,value
0.00000,-1.556018664
0.00050,-1.556018664
0.00100,-1.556018664
0.00150,-2.16640748
0.00200,-2.471601887
0.00250,-3.081990703
0.00300,-4.302768334
0.00350,-4.913157149
0.00400,-3.997573926
0.00450,-2.471601887
0.00500,-1.556018664
0.00550,-0.3352410335
0.00600,0.8855365973
0.00650,2.411508636
0.00700,1.80111982
0.00750,-0.03004662585
0.00800,-0.945629849
0.00850,0.8855365973
0.00900,3.632286267
0.00950,4.54786949
0.01000,3.327091859
0.01050,1.495925413
0.01100,1.495925413
0.01150,2.106314228
0.01200,2.411508636
0.01250,1.80111982
0.01300,0.5803421896
0.01350,-0.03004662585
0.01400,-0.3352410335
0.01450,0.2751477819
0.01500,0.5803421896
0.01550,0.2751477819
0.01600,-0.6404354412
0.01650,-1.556018664
0.01700,-0.945629849
0.01750,-0.03004662585
0.01800,-0.03004662585
0.01850,-1.250824257
0.01900,-2.16640748
0.01950,-2.471601887
0.02000,-2.471601887
0.02050,-3.081990703
0.02100,-3.692379518
0.02150,-3.692379518
0.02200,-2.471601887
0.02250,-1.250824257
0.02300,-1.556018664
0.02350,-3.081990703
0.02400,-3.997573926
0.02450,-3.387185111
0.02500,-1.861213072
0.02550,-1.250824257
0.02600,-1.250824257
0.02650,-0.945629849
0.02700,-0.03004662585
0.02750,0.8855365973
0.02800,1.190731005
0.02850,0.2751477819
0.02900,-0.6404354412
0.02950,-0.945629849
0.03000,-0.945629849
0.03050,-1.250824257
0.03100,-2.16640748
0.03150,-2.776796295
0.03200,-1.861213072
0.03250,-0.6404354412
0.03300,-0.3352410335
0.03350,-1.861213072
0.03400,-3.387185111
0.03450,-2.776796295
0.03500,-0.945629849
0.03550,-0.3352410335
0.03600,-1.556018664
0.03650,-2.471601887
0.03700,-1.861213072
0.03750,-0.03004662585
0.03800,1.190731005
0.03850,1.495925413
0.03900,-0.03004662585
0.03950,-1.250824257
0.04000,-2.16640748
0.04050,-1.861213072
0.04100,-0.945629849
0.04150,-0.945629849
0.04200,-1.556018664
0.04250,-2.776796295
0.04300,-3.387185111
0.04350,-3.387185111
0.04400,-3.081990703
0.04450,-2.776796295
0.04500,-2.471601887
0.04550,-2.16640748
0.04600,-1.556018664
0.04650,-0.6404354412
0.04700,-0.03004662585
0.04750,-0.03004662585
0.04800,-0.03004662585
0.04850,-0.6404354412
0.04900,-1.556018664
0.04950,-2.471601887
0.05000,-3.081990703
0.05050,-3.081990703
0.05100,-3.387185111
0.05150,-3.692379518
0.05200,-2.776796295
0.05250,-0.6404354412
0.05300,1.190731005
0.05350,1.80111982
0.05400,1.495925413
0.05450,1.495925413
0.05500,1.495925413
0.05550,1.190731005
0.05600,-0.03004662585
0.05650,-0.6404354412
0.05700,-0.03004662585
0.05750,1.495925413
0.05800,2.411508636
0.05850,1.80111982
0.05900,0.8855365973
0.05950,0.8855365973
0.06000,1.190731005
0.06050,0.8855365973
0.06100,-0.03004662585
0.06150,-0.3352410335
0.06200,0.5803421896
0.06250,2.716703043
0.06300,3.937480674
0.06350,4.54786949
0.06400,4.853063897
0.06450,4.853063897
0.06500,3.937480674
0.06550,3.021897451
0.06600,2.716703043
0.06650,3.327091859
0.06700,2.716703043
0.06750,0.8855365973
0.06800,-0.03004662585
0.06850,-0.03004662585
0.06900,0.2751477819
0.06950,-0.03004662585
0.07000,-0.03004662585
0.07050,0.5803421896
0.07100,1.495925413
0.07150,1.190731005
0.07200,1.190731005
0.07250,3.021897451
0.07300,4.853063897
0.07350,5.158258305
0.07400,4.54786949
0.07450,4.853063897
0.07500,5.463452713
0.07550,4.853063897
0.07600,3.937480674
0.07650,3.632286267
0.07700,4.242675082
0.07750,4.54786949
0.07800,4.242675082
0.07850,3.632286267
0.07900,2.411508636
0.07950,1.190731005
0.08000,0.8855365973
0.08050,1.495925413
0.08100,1.80111982
0.08150,0.8855365973
0.08200,0.2751477819
0.08250,0.5803421896
0.08300,1.190731005
0.08350,1.190731005
0.08400,0.8855365973
0.08450,1.190731005
0.08500,1.80111982
0.08550,0.8855365973
0.08600,-0.6404354412
0.08650,-2.16640748
0.08700,-2.16640748
0.08750,-1.250824257
0.08800,-1.250824257
0.08850,-1.250824257
0.08900,-0.945629849
0.08950,-0.6404354412
0.09000,-1.250824257
0.09050,-1.861213072
0.09100,-2.471601887
0.09150,-2.16640748
0.09200,-1.250824257
0.09250,-0.945629849
0.09300,-1.250824257
0.09350,-1.861213072
0.09400,-1.556018664
0.09450,-0.6404354412
0.09500,-0.03004662585
0.09550,-0.6404354412
0.09600,-1.861213072
0.09650,-1.250824257
0.09700,-0.03004662585
0.09750,0.2751477819
0.09800,-0.6404354412
0.09850,-1.556018664
0.09900,-0.945629849
0.09950,0.5803421896
0.10000,0.5803421896
0.10050,-0.6404354412
0.10100,-1.861213072
0.10150,-1.861213072
0.10200,-0.945629849
0.10250,-1.250824257
0.10300,-2.776796295
0.10350,-3.081990703
0.10400,-2.16640748
0.10450,-1.556018664
0.10500,-1.861213072
0.10550,-2.16640748
0.10600,-1.861213072
0.10650,-1.556018664
0.10700,-1.861213072
0.10750,-2.471601887
0.10800,-2.471601887
0.10850,-1.861213072
0.10900,-1.861213072
0.10950,-1.861213072
0.11000,-1.250824257
0.11050,-0.03004662585
0.11100,0.2751477819
0.11150,-0.03004662585
0.11200,-0.03004662585
0.11250,-0.3352410335
0.11300,-0.6404354412
0.11350,-1.250824257
0.11400,-1.861213072
0.11450,-2.16640748
0.11500,-1.861213072
0.11550,-1.556018664
0.11600,-1.861213072
0.11650,-2.471601887
0.11700,-2.471601887
0.11750,-1.556018664
0.11800,-0.03004662585
0.11850,-0.03004662585
0.11900,-1.250824257
0.11950,-3.692379518
0.12000,-4.913157149
0.12050,-3.997573926
0.12100,-2.471601887
0.12150,-1.556018664
0.12200,-1.556018664
0.12250,-2.16640748
0.12300,-2.776796295
0.12350,-2.471601887
0.12400,-2.16640748
0.12450,-2.776796295
0.12500,-3.997573926
0.12550,-5.218351557
0.12600,-4.913157149
0.12650,-3.387185111
0.12700,-1.556018664
0.12750,-0.03004662585
0.12800,1.190731005
0.12850,3.021897451
0.12900,4.242675082
0.12950,4.242675082
0.13000,2.716703043
0.13050,1.495925413
0.13100,1.80111982
0.13150,3.021897451
0.13200,4.853063897
0.13250,5.463452713
0.13300,4.853063897
0.13350,3.937480674
0.13400,2.716703043
0.13450,1.495925413
0.13500,0.8855365973
0.13550,0.8855365973
0.13600,2.411508636
0.13650,4.54786949
0.13700,6.379035936
0.13750,6.684230344
0.13800,5.463452713
0.13850,4.54786949
0.13900,5.463452713
0.13950,7.294619159
0.14000,8.51539679
0.14050,7.905007974
0.14100,6.073841528
0.14150,4.242675082
0.14200,3.632286267
0.14250,3.632286267
0.14300,3.327091859
0.14350,2.106314228
0.14400,0.5803421896
0.14450,0.8855365973
0.14500,2.106314228
0.14550,2.716703043
0.14600,1.80111982
0.14650,0.5803421896
0.14700,0.5803421896
0.14750,1.190731005
0.14800,0.2751477819
0.14850,-1.250824257
0.14900,-2.16640748
0.14950,-0.945629849
0.15000,-0.03004662585
0.15050,-0.03004662585
0.15100,-0.03004662585
0.15150,0.8855365973
0.15200,0.8855365973
0.15250,-0.03004662585
0.15300,-1.250824257
0.15350,-1.556018664
0.15400,-1.556018664
0.15450,-1.250824257
0.15500,-1.861213072
0.15550,-2.471601887
0.15600,-3.387185111
0.15650,-3.997573926
0.15700,-3.997573926
0.15750,-3.692379518
0.15800,-3.997573926
0.15850,-4.913157149
0.15900,-4.607962741
0.15950,-3.081990703
0.16000,-2.16640748
0.16050,-2.776796295
0.16100,-3.997573926
0.16150,-3.692379518
0.16200,-2.16640748
0.16250,-1.250824257
0.16300,-2.16640748
0.16350,-3.692379518
0.16400,-4.302768334
0.16450,-4.302768334
0.16500,-4.607962741
0.16550,-5.218351557
0.16600,-4.913157149
0.16650,-4.302768334
0.16700,-3.997573926
0.16750,-4.607962741
0.16800,-5.218351557
0.16850,-5.523545964
0.16900,-5.523545964
0.16950,-4.913157149
0.17000,-4.302768334
0.17050,-3.387185111
0.17100,-3.081990703
0.17150,-3.387185111
0.17200,-3.997573926
0.17250,-3.997573926
0.17300,-3.692379518
0.17350,-3.692379518
0.17400,-3.692379518
0.17450,-3.692379518
0.17500,-3.387185111
0.17550,-3.081990703
0.17600,-2.776796295
0.17650,-2.776796295
0.17700,-2.776796295
0.17750,-3.081990703
0.17800,-3.387185111
0.17850,-3.387185111
0.17900,-2.776796295
0.17950,-1.861213072
0.18000,-1.250824257
0.18050,-0.6404354412
0.18100,-0.03004662585
0.18150,0.2751477819
0.18200,0.8855365973
0.18250,1.495925413
0.18300,2.411508636
0.18350,2.716703043
0.18400,2.106314228
0.18450,0.8855365973
0.18500,-0.03004662585
0.18550,-0.3352410335
0.18600,-0.3352410335
0.18650,-0.6404354412
0.18700,-1.556018664
0.18750,-2.471601887
0.18800,-2.776796295
0.18850,-2.16640748
0.18900,-1.250824257
0.18950,-0.945629849
0.19000,-0.3352410335
0.19050,0.5803421896
0.19100,2.411508636
0.19150,4.853063897
0.19200,7.599813567
0.19250,9.125785605
0.19300,9.125785605
0.19350,8.51539679
0.19400,8.210202382
0.19450,8.51539679
0.19500,8.51539679
0.19550,8.210202382
0.19600,8.51539679
0.19650,9.125785605
0.19700,8.51539679
0.19750,6.684230344
0.19800,4.54786949
0.19850,3.327091859
0.19900,3.021897451
0.19950,3.327091859
0.20000,4.242675082
0.20050,4.54786949
0.20100,3.937480674
0.20150,2.411508636
0.20200,2.106314228
0.20250,3.021897451
0.20300,3.632286267
0.20350,2.716703043
0.20400,1.495925413
0.20450,1.190731005
0.20500,1.495925413
0.20550,1.495925413
0.20600,1.190731005
0.20650,1.190731005
0.20700,0.8855365973
0.20750,0.5803421896
0.20800,0.2751477819
0.20850,0.5803421896
0.20900,1.495925413
0.20950,1.495925413
0.21000,0.5803421896
0.21050,-0.03004662585
0.21100,-0.03004662585
0.21150,-0.3352410335
0.21200,-1.556018664
0.21250,-2.776796295
0.21300,-2.471601887
0.21350,-1.250824257
0.21400,-0.945629849
0.21450,-1.556018664
0.21500,-1.861213072
0.21550,-1.556018664
0.21600,-0.6404354412
0.21650,-0.03004662585
0.21700,-0.03004662585
0.21750,-0.03004662585
0.21800,0.8855365973
0.21850,1.190731005
0.21900,1.190731005
0.21950,0.8855365973
0.22000,0.5803421896
0.22050,0.2751477819
0.22100,-0.03004662585
0.22150,0.5803421896
0.22200,1.495925413
0.22250,1.495925413
0.22300,-0.03004662585
0.22350,-1.556018664
0.22400,-1.556018664
0.22450,-0.03004662585
0.22500,0.8855365973
0.22550,-0.03004662585
0.22600,-1.250824257
0.22650,-1.556018664
0.22700,-1.250824257
0.22750,-1.250824257
0.22800,-1.556018664
0.22850,-1.556018664
0.22900,-1.250824257
0.22950,-1.861213072
0.23000,-2.471601887
0.23050,-1.861213072
0.23100,-0.945629849
0.23150,-0.6404354412
0.23200,-1.250824257
0.23250,-1.556018664
0.23300,-1.556018664
0.23350,-1.861213072
0.23400,-1.861213072
0.23450,-0.945629849
0.23500,-0.03004662585
0.23550,-0.03004662585
0.23600,-0.945629849
0.23650,-1.861213072
0.23700,-1.556018664
0.23750,-0.945629849
0.23800,-0.945629849
0.23850,-1.250824257
0.23900,-0.945629849
0.23950,-0.6404354412
0.24000,-0.945629849
0.24050,-1.861213072
0.24100,-2.16640748
0.24150,-0.945629849
0.24200,0.8855365973
0.24250,1.80111982
0.24300,0.8855365973
0.24350,-0.6404354412
0.24400,-1.250824257
0.24450,-0.945629849
0.24500,-1.250824257
0.24550,-1.861213072
0.24600,-2.471601887
0.24650,-2.471601887
0.24700,-2.16640748
0.24750,-2.16640748
0.24800,-1.556018664
0.24850,-0.03004662585
0.24900,0.5803421896
0.24950,0.2751477819
0.25000,-0.03004662585
0.25050,-0.3352410335
0.25100,-1.556018664
0.25150,-2.776796295
0.25200,-2.776796295
0.25250,-0.6404354412
0.25300,0.8855365973
0.25350,-0.03004662585
0.25400,-1.556018664
0.25450,-0.945629849
0.25500,0.8855365973
0.25550,1.495925413
0.25600,0.2751477819
0.25650,-0.3352410335
0.25700,-0.03004662585
0.25750,0.5803421896
0.25800,0.2751477819
0.25850,-0.3352410335
0.25900,-0.03004662585
0.25950,0.5803421896
0.26000,0.5803421896
0.26050,0.5803421896
0.26100,0.8855365973
0.26150,1.80111982
0.26200,1.80111982
0.26250,1.80111982
0.26300,2.106314228
0.26350,2.411508636
0.26400,2.411508636
0.26450,1.80111982
0.26500,1.190731005
0.26550,0.5803421896
0.26600,-0.03004662585
0.26650,-0.03004662585
0.26700,-0.03004662585
0.26750,0.2751477819
0.26800,0.2751477819
0.26850,0.2751477819
0.26900,0.8855365973
0.26950,1.190731005
0.27000,0.8855365973
0.27050,-0.03004662585
0.27100,-0.6404354412
0.27150,-0.945629849
0.27200,-0.945629849
0.27250,-0.6404354412
0.27300,-0.6404354412
0.27350,-0.6404354412
0.27400,-1.250824257
0.27450,-1.250824257
0.27500,-0.03004662585
0.27550,1.495925413
0.27600,2.716703043
0.27650,2.716703043
0.27700,2.411508636
0.27750,2.716703043
0.27800,2.411508636
0.27850,1.495925413
0.27900,1.190731005
0.27950,2.106314228
0.28000,3.021897451
0.28050,3.021897451
0.28100,1.80111982
0.28150,1.190731005
0.28200,0.8855365973
0.28250,0.2751477819
0.28300,-0.3352410335
0.28350,-0.03004662585
0.28400,0.5803421896
0.28450,-0.03004662585
0.28500,-2.16640748
0.28550,-2.16640748
0.28600,0.5803421896
0.28650,3.021897451
0.28700,2.716703043
0.28750,1.190731005
0.28800,1.495925413
0.28850,2.716703043
0.28900,1.80111982
0.28950,-0.3352410335
0.29000,-1.250824257
0.29050,-0.6404354412
0.29100,-0.6404354412
0.29150,-2.16640748
0.29200,-3.387185111
0.29250,-2.776796295
0.29300,-1.861213072
0.29350,-1.250824257
0.29400,-0.6404354412
0.29450,-0.03004662585
0.29500,-0.03004662585
0.29550,-0.3352410335
0.29600,-0.3352410335
0.29650,-0.03004662585
0.29700,0.2751477819
0.29750,-0.03004662585
0.29800,-1.250824257
0.29850,-1.861213072
0.29900,-1.556018664
0.29950,-0.945629849
0.30000,-0.6404354412
0.30050,-0.945629849
0.30100,-1.861213072
0.30150,-2.471601887
0.30200,-2.471601887
0.30250,-1.556018664
0.30300,-0.03004662585
0.30350,0.5803421896
0.30400,1.190731005
0.30450,1.190731005
0.30500,0.8855365973
0.30550,0.5803421896
0.30600,0.2751477819
0.30650,0.8855365973
0.30700,0.8855365973
0.30750,0.2751477819
0.30800,-0.03004662585
0.30850,0.2751477819
0.30900,1.495925413
0.30950,1.80111982
0.31000,1.190731005
0.31050,0.2751477819
0.31100,0.2751477819
0.31150,0.2751477819
0.31200,-0.03004662585
0.31250,-0.945629849
0.31300,-0.945629849
0.31350,-1.250824257
0.31400,-1.861213072
0.31450,-3.081990703
0.31500,-3.387185111
0.31550,-2.471601887
0.31600,-1.556018664
0.31650,-1.250824257
0.31700,-1.250824257
0.31750,-0.3352410335
0.31800,0.5803421896
0.31850,0.8855365973
0.31900,0.2751477819
0.31950,-0.3352410335
0.32000,-0.03004662585
0.32050,1.190731005
0.32100,2.106314228
0.32150,2.106314228
0.32200,0.8855365973
0.32250,0.2751477819
0.32300,0.5803421896
0.32350,0.8855365973
0.32400,0.2751477819
0.32450,-0.6404354412
0.32500,-1.250824257
0.32550,-0.6404354412
0.32600,-0.3352410335
0.32650,-0.6404354412
0.32700,-0.3352410335
0.32750,0.5803421896
0.32800,1.80111982
0.32850,0.8855365973
0.32900,-0.3352410335
0.32950,-1.250824257
0.33000,-0.3352410335
0.33050,-0.03004662585
0.33100,-0.03004662585
0.33150,-0.03004662585
0.33200,0.5803421896
0.33250,0.5803421896
0.33300,-0.3352410335
0.33350,-1.250824257
0.33400,-0.6404354412
0.33450,-0.03004662585
0.33500,-0.6404354412
0.33550,-2.471601887
0.33600,-2.776796295
0.33650,-1.861213072
0.33700,-1.250824257
0.33750,-1.861213072
0.33800,-2.16640748
0.33850,-0.03004662585
0.33900,2.716703043
0.33950,3.937480674
0.34000,2.716703043
0.34050,1.190731005
0.34100,0.5803421896
0.34150,0.2751477819
0.34200,-0.6404354412
0.34250,-2.471601887
0.34300,-3.081990703
0.34350,-2.776796295
0.34400,-2.471601887
0.34450,-2.16640748
0.34500,-1.861213072
0.34550,-2.16640748
0.34600,-2.776796295
0.34650,-2.776796295
0.34700,-1.556018664
0.34750,-0.6404354412
0.34800,-0.945629849
0.34850,-1.861213072
0.34900,-0.945629849
0.34950,0.2751477819
0.35000,0.2751477819
0.35050,-1.250824257
0.35100,-1.861213072
0.35150,-0.945629849
0.35200,-0.03004662585
0.35250,-0.6404354412
0.35300,-0.945629849
0.35350,-0.3352410335
0.35400,0.2751477819
0.35450,0.2751477819
0.35500,-0.03004662585
0.35550,0.2751477819
0.35600,0.8855365973
0.35650,0.5803421896
0.35700,0.2751477819
0.35750,-0.03004662585
0.35800,-0.03004662585
0.35850,-0.6404354412
0.35900,-0.3352410335
0.35950,0.5803421896
0.36000,0.8855365973
0.36050,-0.03004662585
0.36100,-0.945629849
0.36150,-0.6404354412
0.36200,0.2751477819
0.36250,0.2751477819
0.36300,-0.03004662585
0.36350,0.2751477819
0.36400,0.5803421896
0.36450,0.5803421896
0.36500,0.2751477819
0.36550,0.8855365973
0.36600,2.411508636
0.36650,3.327091859
0.36700,3.327091859
0.36750,2.411508636
0.36800,1.190731005
0.36850,-0.03004662585
0.36900,-0.6404354412
0.36950,0.2751477819
0.37000,1.80111982
0.37050,1.190731005
0.37100,-0.6404354412
0.37150,-1.861213072
0.37200,-0.945629849
0.37250,-0.03004662585
0.37300,-0.945629849
0.37350,-3.081990703
0.37400,-3.692379518
0.37450,-2.16640748
0.37500,-0.945629849
0.37550,-1.250824257
0.37600,-2.16640748
0.37650,-1.556018664
0.37700,-0.03004662585
0.37750,0.8855365973
0.37800,0.5803421896
0.37850,-0.3352410335
0.37900,-0.945629849
0.37950,-0.03004662585
0.38000,0.8855365973
0.38050,1.495925413
0.38100,1.495925413
0.38150,1.495925413
0.38200,1.190731005
0.38250,0.5803421896
0.38300,0.5803421896
0.38350,0.5803421896
0.38400,1.190731005
0.38450,1.495925413
0.38500,2.106314228
0.38550,2.106314228
0.38600,2.106314228
0.38650,2.411508636
0.38700,2.411508636
0.38750,2.106314228
0.38800,1.190731005
0.38850,0.2751477819
0.38900,0.2751477819
0.38950,0.2751477819
0.39000,-0.03004662585
0.39050,-0.3352410335
0.39100,-0.6404354412
0.39150,-0.3352410335
0.39200,-0.03004662585
0.39250,-0.03004662585
0.39300,-0.3352410335
0.39350,-0.03004662585
0.39400,-0.03004662585
0.39450,-0.03004662585
0.39500,-0.03004662585
0.39550,-0.03004662585
0.39600,-0.3352410335
0.39650,-0.6404354412
0.39700,-0.6404354412
0.39750,-0.6404354412
0.39800,-0.6404354412
0.39850,-0.945629849
0.39900,-0.6404354412
0.39950,0.2751477819
0.40000,0.8855365973
0.40050,0.5803421896
0.40100,-0.03004662585
0.40150,0.2751477819
0.40200,0.8855365973
0.40250,0.8855365973
0.40300,-0.03004662585
0.40350,-1.250824257
0.40400,-1.861213072
0.40450,-1.556018664
0.40500,-1.250824257
0.40550,-0.945629849
0.40600,-0.945629849
0.40650,-1.250824257
0.40700,-1.861213072
0.40750,-1.861213072
0.40800,-1.556018664
0.40850,-0.945629849
0.40900,-0.3352410335
0.40950,-0.3352410335
0.41000,-0.3352410335
0.41050,-0.6404354412
0.41100,-0.6404354412
0.41150,-0.945629849
0.41200,-1.250824257
0.41250,-1.250824257
0.41300,-0.03004662585
0.41350,1.190731005
0.41400,1.495925413
0.41450,0.5803421896
0.41500,-0.03004662585
0.41550,0.2751477819
0.41600,0.8855365973
0.41650,1.190731005
0.41700,0.2751477819
0.41750,-0.03004662585
0.41800,-0.03004662585
0.41850,-0.03004662585
0.41900,-0.3352410335
0.41950,-0.3352410335
0.42000,0.2751477819
0.42050,1.190731005
0.42100,0.8855365973
0.42150,-0.03004662585
0.42200,-0.945629849
0.42250,-0.945629849
0.42300,-0.03004662585
0.42350,0.2751477819
0.42400,-0.3352410335
0.42450,-1.861213072
0.42500,-2.776796295
0.42550,-2.16640748
0.42600,-0.03004662585
0.42650,1.495925413
0.42700,0.5803421896
0.42750,-0.945629849
0.42800,-1.861213072
0.42850,-1.250824257
0.42900,-0.03004662585
0.42950,-0.03004662585
0.43000,-0.6404354412
0.43050,-0.945629849
0.43100,-0.6404354412
0.43150,-0.3352410335
0.43200,-0.945629849
0.43250,-2.16640748
0.43300,-1.861213072
0.43350,-0.6404354412
0.43400,0.2751477819
0.43450,0.2751477819
0.43500,-0.03004662585
0.43550,-0.3352410335
0.43600,-0.03004662585
0.43650,0.2751477819
0.43700,0.8855365973
0.43750,1.80111982
0.43800,2.716703043
0.43850,2.716703043
0.43900,1.495925413
0.43950,0.2751477819
0.44000,0.2751477819
0.44050,0.5803421896
0.44100,0.2751477819
0.44150,-0.03004662585
0.44200,0.2751477819
0.44250,1.190731005
0.44300,1.80111982
0.44350,0.8855365973
0.44400,-0.03004662585
0.44450,-0.6404354412
0.44500,-0.945629849
0.44550,-0.945629849
0.44600,-0.945629849
0.44650,-1.556018664
0.44700,-1.861213072
0.44750,-2.16640748
0.44800,-2.471601887
0.44850,-2.471601887
0.44900,-2.776796295
0.44950,-3.387185111
0.45000,-3.387185111
0.45050,-2.776796295
0.45100,-1.861213072
0.45150,-0.945629849
0.45200,0.2751477819
0.45250,2.106314228
0.45300,4.242675082
0.45350,6.684230344
0.45400,8.51539679
0.45450,10.04136883
0.45500,10.95695205
0.45550,10.95695205
0.45600,9.736174421
0.45650,7.294619159
0.45700,4.54786949
0.45750,2.411508636
0.45800,0.8855365973
0.45850,-0.3352410335
0.45900,-1.250824257
0.45950,-1.556018664
0.46000,-1.250824257
0.46050,-1.556018664
0.46100,-1.861213072
0.46150,-2.471601887
0.46200,-2.471601887
0.46250,-2.776796295
0.46300,-3.081990703
0.46350,-3.692379518
0.46400,-3.081990703
0.46450,-1.556018664
0.46500,-0.3352410335
0.46550,-0.03004662585
0.46600,0.5803421896
0.46650,2.411508636
0.46700,3.632286267
0.46750,3.632286267
0.46800,2.411508636
0.46850,1.495925413
0.46900,1.80111982
0.46950,2.106314228
0.47000,2.106314228
0.47050,1.80111982
0.47100,1.80111982
0.47150,2.106314228
0.47200,1.495925413
0.47250,0.5803421896
0.47300,0.5803421896
0.47350,1.495925413
0.47400,2.716703043
0.47450,3.021897451
0.47500,2.106314228
0.47550,0.8855365973
0.47600,0.5803421896
0.47650,1.495925413
0.47700,1.80111982
0.47750,1.495925413
0.47800,1.190731005
0.47850,1.190731005
0.47900,0.5803421896
0.47950,-0.6404354412
0.48000,-1.250824257
0.48050,-0.3352410335
0.48100,1.190731005
0.48150,1.190731005
0.48200,-0.3352410335
0.48250,-1.861213072
0.48300,-1.250824257
0.48350,-0.03004662585
0.48400,0.2751477819
0.48450,-0.3352410335
0.48500,-1.556018664
0.48550,-1.861213072
0.48600,-1.556018664
0.48650,-1.556018664
0.48700,-1.861213072
0.48750,-1.861213072
0.48800,-0.6404354412
0.48850,0.8855365973
0.48900,1.495925413
0.48950,0.2751477819
0.49000,-1.250824257
0.49050,-2.471601887
0.49100,-1.556018664
0.49150,-0.03004662585
0.49200,0.5803421896
0.49250,0.5803421896
0.49300,0.2751477819
0.49350,0.2751477819
0.49400,0.2751477819
0.49450,0.2751477819
0.49500,-0.03004662585
0.49550,-0.3352410335
0.49600,-0.6404354412
0.49650,-0.6404354412
0.49700,-0.945629849
0.49750,-1.861213072
0.49800,-2.776796295
0.49850,-3.081990703
0.49900,-2.776796295
0.49950,-2.471601887
0.50000,-2.16640748
0.50050,-2.16640748
0.50100,-2.16640748
0.50150,-1.556018664
0.50200,-0.945629849
0.50250,-0.03004662585
0.50300,0.5803421896
0.50350,0.5803421896
0.50400,0.2751477819
0.50450,-0.03004662585
0.50500,-0.03004662585
0.50550,-0.03004662585
0.50600,-0.3352410335
0.50650,-0.945629849
0.50700,-1.556018664
0.50750,-1.250824257
0.50800,-0.945629849
0.50850,-0.6404354412
0.50900,-1.250824257
0.50950,-0.945629849
0.51000,-0.3352410335
0.51050,-0.03004662585
0.51100,-0.03004662585
0.51150,-0.03004662585
0.51200,-0.03004662585
0.51250,0.8855365973
0.51300,1.190731005
0.51350,1.190731005
0.51400,1.495925413
0.51450,1.80111982
0.51500,0.8855365973
0.51550,-0.03004662585
0.51600,-0.3352410335
0.51650,0.2751477819
0.51700,1.190731005
0.51750,1.495925413
0.51800,1.495925413
0.51850,0.8855365973
0.51900,0.5803421896
0.51950,0.2751477819
0.52000,0.2751477819
0.52050,0.2751477819
0.52100,0.5803421896
0.52150,1.190731005
0.52200,1.80111982
0.52250,1.190731005
0.52300,-1.250824257
0.52350,-3.387185111
0.52400,-3.692379518
0.52450,-2.471601887
0.52500,-2.471601887
0.52550,-3.081990703
0.52600,-3.692379518
0.52650,-3.387185111
0.52700,-3.387185111
0.52750,-3.387185111
0.52800,-3.081990703
0.52850,-2.776796295
0.52900,-3.081990703
0.52950,-3.997573926
0.53000,-4.302768334
0.53050,-3.692379518
0.53100,-3.387185111
0.53150,-3.692379518
0.53200,-3.692379518
0.53250,-3.692379518
0.53300,-3.997573926
0.53350,-4.302768334
0.53400,-3.692379518
0.53450,-2.16640748
0.53500,-1.250824257
0.53550,-1.250824257
0.53600,-0.945629849
0.53650,-0.03004662585
0.53700,0.2751477819
0.53750,-1.250824257
0.53800,-3.692379518
0.53850,-4.302768334
0.53900,-3.387185111
0.53950,-3.081990703
0.54000,-4.302768334
0.54050,-4.607962741
0.54100,-3.692379518
0.54150,-1.861213072
0.54200,-0.3352410335
0.54250,0.8855365973
0.54300,1.80111982
0.54350,1.190731005
0.54400,-0.03004662585
0.54450,-0.3352410335
0.54500,1.190731005
0.54550,3.327091859
0.54600,3.632286267
0.54650,3.327091859
0.54700,3.937480674
0.54750,6.073841528
0.54800,6.989424751
0.54850,6.684230344
0.54900,6.073841528
0.54950,6.379035936
0.55000,6.684230344
0.55050,6.073841528
0.55100,5.463452713
0.55150,5.463452713
0.55200,5.463452713
0.55250,4.242675082
0.55300,2.411508636
0.55350,1.190731005
0.55400,1.190731005
0.55450,1.190731005
0.55500,0.5803421896
0.55550,-0.03004662585
0.55600,0.2751477819
0.55650,1.80111982
0.55700,3.327091859
0.55750,3.937480674
0.55800,3.937480674
0.55850,3.327091859
0.55900,2.411508636
0.55950,0.5803421896
0.56000,-0.3352410335
0.56050,-0.945629849
0.56100,-0.6404354412
0.56150,-0.3352410335
0.56200,-0.03004662585
0.56250,-0.3352410335
0.56300,-0.03004662585
0.56350,-0.03004662585
0.56400,-0.03004662585
0.56450,-0.945629849
0.56500,-2.16640748
0.56550,-3.081990703
0.56600,-3.692379518
0.56650,-3.692379518
0.56700,-2.471601887
0.56750,-0.6404354412
0.56800,-0.03004662585
0.56850,-0.3352410335
0.56900,-0.945629849
0.56950,-1.861213072
0.57000,-2.776796295
0.57050,-3.692379518
0.57100,-2.776796295
0.57150,-1.250824257
0.57200,-0.3352410335
0.57250,-1.556018664
0.57300,-2.16640748
0.57350,-0.945629849
0.57400,0.5803421896
0.57450,0.8855365973
0.57500,-0.03004662585
0.57550,-0.3352410335
0.57600,-0.3352410335
0.57650,-1.250824257
0.57700,-2.471601887
0.57750,-2.16640748
0.57800,-0.3352410335
0.57850,-0.03004662585
0.57900,-0.3352410335
0.57950,-0.03004662585
0.58000,1.495925413
0.58050,2.411508636
0.58100,1.495925413
0.58150,0.5803421896
0.58200,0.8855365973
0.58250,0.8855365973
0.58300,-0.3352410335
0.58350,-1.861213072
0.58400,-1.556018664
0.58450,-0.3352410335
0.58500,-0.03004662585
0.58550,-0.945629849
0.58600,-1.861213072
0.58650,-1.861213072
0.58700,-0.945629849
0.58750,-0.6404354412
0.58800,-1.250824257
0.58850,-1.556018664
0.58900,-1.250824257
0.58950,-0.03004662585
0.59000,0.8855365973
0.59050,1.190731005
0.59100,0.8855365973
0.59150,0.5803421896
0.59200,-0.03004662585
0.59250,-0.3352410335
0.59300,-0.6404354412
0.59350,-0.3352410335
0.59400,-0.03004662585
0.59450,-0.3352410335
0.59500,-0.3352410335
0.59550,0.2751477819
0.59600,0.2751477819
0.59650,-0.6404354412
0.59700,-2.16640748
0.59750,-2.16640748
0.59800,-0.6404354412
0.59850,-0.03004662585
0.59900,-0.03004662585
0.59950,-0.03004662585
0.60000,0.8855365973
0.60050,1.80111982
0.60100,1.495925413
0.60150,1.495925413
0.60200,2.106314228
0.60250,2.106314228
0.60300,1.190731005
0.60350,1.190731005
0.60400,2.106314228
0.60450,2.411508636
0.60500,1.495925413
0.60550,1.190731005
0.60600,2.106314228
0.60650,2.411508636
0.60700,0.5803421896
0.60750,-0.945629849
0.60800,-0.945629849
0.60850,-0.3352410335
0.60900,-0.6404354412
0.60950,-1.250824257
0.61000,-1.250824257
0.61050,-0.6404354412
0.61100,-0.6404354412
0.61150,-0.03004662585
0.61200,0.8855365973
0.61250,1.190731005
0.61300,-0.03004662585
0.61350,-1.250824257
0.61400,-0.945629849
0.61450,-0.3352410335
0.61500,-1.250824257
0.61550,-1.861213072
0.61600,-0.3352410335
0.61650,1.80111982
0.61700,1.80111982
0.61750,-0.945629849
0.61800,-2.776796295
0.61850,-2.16640748
0.61900,-1.250824257
0.61950,-1.861213072
0.62000,-2.16640748
0.62050,-0.03004662585
0.62100,3.021897451
0.62150,3.937480674
0.62200,2.106314228
0.62250,0.8855365973
0.62300,1.495925413
0.62350,2.411508636
0.62400,1.495925413
0.62450,-0.3352410335
0.62500,-1.250824257
0.62550,-0.6404354412
0.62600,-0.03004662585
0.62650,0.5803421896
0.62700,2.106314228
0.62750,4.54786949
0.62800,6.379035936
0.62850,4.853063897
0.62900,1.80111982
0.62950,0.2751477819
0.63000,0.5803421896
0.63050,1.190731005
0.63100,0.8855365973
0.63150,0.2751477819
0.63200,0.2751477819
0.63250,0.2751477819
0.63300,0.2751477819
0.63350,-0.03004662585
0.63400,-0.3352410335
0.63450,-0.03004662585
0.63500,0.8855365973
0.63550,1.190731005
0.63600,1.190731005
0.63650,1.495925413
0.63700,2.411508636
0.63750,3.327091859
0.63800,3.937480674
0.63850,4.853063897
0.63900,5.76864712
0.63950,5.463452713
0.64000,3.632286267
0.64050,2.716703043
0.64100,3.937480674
0.64150,6.073841528
0.64200,6.379035936
0.64250,5.158258305
0.64300,4.853063897
0.64350,6.379035936
0.64400,7.294619159
0.64450,6.684230344
0.64500,6.684230344
0.64550,8.210202382
0.64600,10.04136883
0.64650,10.34656324
0.64700,9.736174421
0.64750,9.125785605
0.64800,9.430980013
0.64850,9.430980013
0.64900,8.820591197
0.64950,8.51539679
0.65000,8.51539679
0.65050,8.51539679
0.65100,8.51539679
0.65150,9.125785605
0.65200,9.430980013
0.65250,9.736174421
0.65300,9.125785605
0.65350,8.820591197
0.65400,8.210202382
0.65450,8.210202382
0.65500,7.905007974
0.65550,6.379035936
0.65600,4.242675082
0.65650,2.411508636
0.65700,0.8855365973
0.65750,-0.03004662585
0.65800,-1.861213072
0.65850,-3.997573926
0.65900,-5.828740372
0.65950,-7.965101226
0.66000,-11.62743412
0.66050,-16.20535023
0.66100,-21.39365516
0.66150,-26.27676569
0.66200,-30.5494874
0.66250,-32.68584825
0.66300,-32.07545943
0.66350,-28.41312654
0.66400,-23.83521043
0.66450,-20.17287753
0.66500,-18.03651668
0.66550,-16.51054464
0.66600,-15.28976701
0.66650,-14.37418379
0.66700,-13.15340616
0.66750,-11.93262853
0.66800,-11.32223971
0.66850,-11.32223971
0.66900,-11.93262853
0.66950,-12.54301734
0.67000,-11.93262853
0.67050,-10.7118509
0.67100,-9.185878857
0.67150,-8.575490041
0.67200,-8.575490041
0.67250,-7.965101226
0.67300,-7.354712411
0.67350,-7.965101226
0.67400,-8.880684449
0.67450,-9.185878857
0.67500,-9.185878857
0.67550,-9.185878857
0.67600,-9.491073265
0.67650,-8.880684449
0.67700,-7.354712411
0.67750,-5.828740372
0.67800,-4.607962741
0.67850,-3.692379518
0.67900,-3.081990703
0.67950,-3.387185111
0.68000,-3.997573926
0.68050,-3.692379518
0.68100,-2.776796295
0.68150,-2.471601887
0.68200,-2.776796295
0.68250,-2.16640748
0.68300,-1.250824257
0.68350,-0.3352410335
0.68400,-0.03004662585
0.68450,0.2751477819
0.68500,0.2751477819
0.68550,-0.03004662585
0.68600,-0.03004662585
0.68650,1.190731005
0.68700,2.716703043
0.68750,3.021897451
0.68800,2.106314228
0.68850,2.106314228
0.68900,2.411508636
0.68950,1.190731005
0.69000,-0.03004662585
0.69050,-0.03004662585
0.69100,2.106314228
0.69150,3.327091859
0.69200,2.716703043
0.69250,2.716703043
0.69300,4.242675082
0.69350,4.853063897
0.69400,4.54786949
0.69450,3.937480674
0.69500,4.54786949
0.69550,5.158258305
0.69600,5.158258305
0.69650,5.463452713
0.69700,5.76864712
0.69750,5.158258305
0.69800,3.632286267
0.69850,3.021897451
0.69900,4.242675082
0.69950,5.463452713
0.70000,5.158258305
0.70050,4.54786949
0.70100,5.463452713
0.70150,6.684230344
0.70200,6.379035936
0.70250,6.073841528
0.70300,6.073841528
0.70350,6.379035936
0.70400,5.463452713
0.70450,4.54786949
0.70500,4.242675082
0.70550,4.54786949
0.70600,4.54786949
0.70650,4.242675082
0.70700,3.632286267
0.70750,3.021897451
0.70800,1.80111982
0.70850,1.495925413
0.70900,2.716703043
0.70950,4.853063897
0.71000,5.463452713
0.71050,3.937480674
0.71100,2.411508636
0.71150,2.106314228
0.71200,3.327091859
0.71250,3.937480674
0.71300,3.632286267
0.71350,2.106314228
0.71400,1.190731005
0.71450,1.80111982
0.71500,3.021897451
0.71550,3.327091859
0.71600,2.411508636
0.71650,1.80111982
0.71700,1.80111982
0.71750,1.190731005
0.71800,-0.03004662585
0.71850,-0.03004662585
0.71900,1.80111982
0.71950,4.54786949
0.72000,4.853063897
0.72050,3.021897451
0.72100,2.411508636
0.72150,3.632286267
0.72200,5.158258305
0.72250,5.76864712
0.72300,5.463452713
0.72350,5.158258305
0.72400,4.853063897
0.72450,3.937480674
0.72500,3.327091859
0.72550,3.327091859
0.72600,2.716703043
0.72650,1.80111982
0.72700,0.5803421896
0.72750,-0.03004662585
0.72800,-0.03004662585
0.72850,-0.3352410335
0.72900,-0.03004662585
0.72950,0.8855365973
0.73000,1.80111982
0.73050,2.106314228
0.73100,3.021897451
0.73150,3.937480674
0.73200,3.937480674
0.73250,3.327091859
0.73300,3.632286267
0.73350,4.853063897
0.73400,5.76864712
0.73450,5.76864712
0.73500,6.379035936
0.73550,8.210202382
0.73600,9.736174421
0.73650,9.736174421
0.73700,10.04136883
0.73750,11.56734087
0.73800,14.00889613
0.73850,15.84006257
0.73900,17.06084021
0.73950,17.97642343
0.74000,17.67122902
0.74050,16.7556458
0.74100,16.45045139
0.74150,17.36603461
0.74200,17.36603461
0.74250,15.53486817
0.74300,13.39850731
0.74350,12.7881185
0.74400,12.48292409
0.74450,11.56734087
0.74500,10.04136883
0.74550,9.736174421
0.74600,9.736174421
0.74650,8.210202382
0.74700,5.463452713
0.74750,3.021897451
0.74800,1.495925413
0.74850,0.8855365973
0.74900,1.190731005
0.74950,1.190731005
0.75000,-0.6404354412
0.75050,-3.997573926
0.75100,-6.439129188
0.75150,-5.218351557
0.75200,-1.861213072
0.75250,0.5803421896
0.75300,2.716703043
0.75350,5.463452713
0.75400,7.294619159
0.75450,6.989424751
0.75500,5.76864712
0.75550,5.76864712
0.75600,5.463452713
0.75650,2.716703043
0.75700,-0.6404354412
0.75750,-1.556018664
0.75800,-0.6404354412
0.75850,-1.556018664
0.75900,-4.913157149
0.75950,-6.439129188
0.76000,-5.218351557
0.76050,-2.776796295
0.76100,-1.861213072
0.76150,-1.250824257
0.76200,-0.3352410335
0.76250,-0.945629849
0.76300,-3.692379518
0.76350,-7.049518003
0.76400,-10.7118509
0.76450,-15.28976701
0.76500,-19.86768313
0.76550,-21.69884957
0.76600,-19.25729431
0.76650,-15.59496142
0.76700,-14.9845726
0.76750,-16.51054464
0.76800,-18.03651668
0.76850,-20.47807194
0.76900,-24.75079365
0.76950,-30.5494874
0.77000,-34.21182029
0.77050,-35.43259792
0.77100,-35.43259792
0.77150,-34.5170147
0.77200,-32.38065384
0.77250,-28.71832095
0.77300,-25.66637687
0.77350,-25.66637687
0.77400,-27.19234891
0.77450,-28.41312654
0.77500,-27.80273773
0.77550,-25.66637687
0.77600,-24.14040483
0.77650,-22.9196272
0.77700,-22.00404398
0.77750,-20.47807194
0.77800,-19.56248872
0.77850,-18.9520999
0.77900,-16.81573905
0.77950,-13.15340616
0.78000,-11.0170453
0.78050,-11.93262853
0.78100,-13.76379497
0.78150,-14.37418379
0.78200,-13.15340616
0.78250,-12.84821175
0.78300,-13.76379497
0.78350,-13.45860056
0.78400,-11.93262853
0.78450,-10.40665649
0.78500,-9.796267672
0.78550,-8.575490041
0.78600,-6.744323595
0.78650,-5.218351557
0.78700,-3.997573926
0.78750,-2.16640748
0.78800,-0.6404354412
0.78850,-0.03004662585
0.78900,0.5803421896
0.78950,1.80111982
0.79000,3.327091859
0.79050,3.937480674
0.79100,3.632286267
0.79150,4.54786949
0.79200,6.073841528
0.79250,7.294619159
0.79300,7.599813567
0.79350,7.294619159
0.79400,7.599813567
0.79450,7.599813567
0.79500,7.294619159
0.79550,7.599813567
0.79600,7.905007974
0.79650,7.905007974
0.79700,6.989424751
0.79750,6.073841528
0.79800,5.76864712
0.79850,6.684230344
0.79900,7.905007974
0.79950,9.430980013
0.80000,9.430980013
0.80050,8.51539679
0.80100,7.599813567
0.80150,7.905007974
0.80200,9.430980013
0.80250,9.736174421
0.80300,8.820591197
0.80350,7.905007974
0.80400,7.599813567
0.80450,7.294619159
0.80500,6.989424751
0.80550,6.989424751
0.80600,7.599813567
0.80650,7.905007974
0.80700,7.905007974
0.80750,8.820591197
0.80800,10.34656324
0.80850,11.87253527
0.80900,11.87253527
0.80950,11.26214646
0.81000,10.65175764
0.81050,11.56734087
0.81100,13.09331291
0.81150,14.61928494
0.81200,14.00889613
0.81250,11.56734087
0.81300,8.820591197
0.81350,7.905007974
0.81400,9.736174421
0.81450,13.09331291
0.81500,15.53486817
0.81550,16.7556458
0.81600,17.67122902
0.81650,17.97642343
0.81700,17.36603461
0.81750,16.45045139
0.81800,16.7556458
0.81850,17.97642343
0.81900,18.58681224
0.81950,17.97642343
0.82000,16.7556458
0.82050,15.84006257
0.82100,15.22967376
0.82150,14.92447935
0.82200,14.92447935
0.82250,14.00889613
0.82300,12.48292409
0.82350,11.56734087
0.82400,11.26214646
0.82450,11.26214646
0.82500,10.34656324
0.82550,9.125785605
0.82600,9.430980013
0.82650,10.34656324
0.82700,11.56734087
0.82750,12.7881185
0.82800,13.09331291
0.82850,11.56734087
0.82900,7.599813567
0.82950,3.632286267
0.83000,1.190731005
0.83050,0.2751477819
0.83100,-0.6404354412
0.83150,-0.945629849
0.83200,-1.250824257
0.83250,-2.471601887
0.83300,-5.218351557
0.83350,-7.354712411
0.83400,-7.354712411
0.83450,-6.13393478
0.83500,-4.913157149
0.83550,-4.302768334
0.83600,-3.387185111
0.83650,-2.471601887
0.83700,-2.471601887
0.83750,-2.776796295
0.83800,-2.471601887
0.83850,-2.471601887
0.83900,-4.607962741
0.83950,-7.659906818
0.84000,-8.575490041
0.84050,-8.270295634
0.84100,-9.491073265
0.84150,-13.45860056
0.84200,-16.51054464
0.84250,-16.20535023
0.84300,-13.15340616
0.84350,-11.32223971
0.84400,-12.23782293
0.84450,-14.6793782
0.84500,-14.9845726
0.84550,-13.15340616
0.84600,-11.32223971
0.84650,-11.62743412
0.84700,-12.23782293
0.84750,-11.62743412
0.84800,-10.40665649
0.84850,-10.7118509
0.84900,-12.54301734
0.84950,-13.15340616
0.85000,-11.32223971
0.85050,-7.659906818
0.85100,-3.387185111
0.85150,0.5803421896
0.85200,3.632286267
0.85250,4.54786949
0.85300,3.937480674
0.85350,3.937480674
0.85400,4.54786949
0.85450,4.242675082
0.85500,3.021897451
0.85550,2.106314228
0.85600,2.411508636
0.85650,2.411508636
0.85700,1.495925413
0.85750,2.106314228
0.85800,4.54786949
0.85850,7.294619159
0.85900,8.51539679
0.85950,9.125785605
0.86000,10.65175764
0.86050,13.09331291
0.86100,14.92447935
0.86150,14.92447935
0.86200,14.00889613
0.86250,12.48292409
0.86300,11.26214646
0.86350,10.04136883
0.86400,7.599813567
0.86450,3.021897451
0.86500,-2.776796295
0.86550,-7.659906818
0.86600,-11.0170453
0.86650,-14.6793782
0.86700,-18.9520999
0.86750,-22.30923839
0.86800,-23.22482161
0.86850,-20.78326635
0.86900,-17.12093346
0.86950,-13.76379497
0.87000,-12.84821175
0.87050,-13.76379497
0.87100,-14.9845726
0.87150,-14.9845726
0.87200,-14.37418379
0.87250,-14.37418379
0.87300,-14.6793782
0.87350,-15.28976701
0.87400,-14.6793782
0.87450,-13.45860056
0.87500,-11.0170453
0.87550,-8.575490041
0.87600,-7.354712411
0.87650,-7.354712411
0.87700,-7.354712411
0.87750,-5.828740372
0.87800,-3.081990703
0.87850,-0.6404354412
0.87900,-0.3352410335
0.87950,-0.945629849
0.88000,-1.250824257
0.88050,-0.6404354412
0.88100,-0.3352410335
0.88150,-0.945629849
0.88200,-1.556018664
0.88250,-1.250824257
0.88300,-0.3352410335
0.88350,0.2751477819
0.88400,1.495925413
0.88450,2.716703043
0.88500,3.937480674
0.88550,3.021897451
0.88600,0.8855365973
0.88650,-0.03004662585
0.88700,1.495925413
0.88750,3.632286267
0.88800,4.54786949
0.88850,5.158258305
0.88900,7.294619159
0.88950,9.430980013
0.89000,9.125785605
0.89050,7.905007974
0.89100,7.599813567
0.89150,8.210202382
0.89200,7.905007974
0.89250,6.379035936
0.89300,6.073841528
0.89350,6.684230344
0.89400,6.073841528
0.89450,4.242675082
0.89500,3.937480674
0.89550,5.463452713
0.89600,6.073841528
0.89650,4.853063897
0.89700,4.242675082
0.89750,4.242675082
0.89800,4.242675082
0.89850,3.937480674
0.89900,4.54786949
0.89950,6.684230344
0.90000,7.599813567
0.90050,6.379035936
0.90100,4.853063897
0.90150,5.463452713
0.90200,6.379035936
0.90250,5.463452713
0.90300,3.327091859
0.90350,2.411508636
0.90400,3.327091859
0.90450,3.937480674
0.90500,3.632286267
0.90550,3.632286267
0.90600,4.242675082
0.90650,4.242675082
0.90700,3.632286267
0.90750,2.716703043
0.90800,2.106314228
0.90850,2.106314228
0.90900,2.411508636
0.90950,2.411508636
0.91000,2.411508636
0.91050,2.411508636
0.91100,3.327091859
0.91150,3.632286267
0.91200,3.632286267
0.91250,3.021897451
0.91300,3.327091859
0.91350,4.242675082
0.91400,5.76864712
0.91450,6.684230344
0.91500,7.599813567
0.91550,8.210202382
0.91600,9.430980013
0.91650,10.34656324
0.91700,11.26214646
0.91750,10.65175764
0.91800,8.820591197
0.91850,7.294619159
0.91900,8.210202382
0.91950,11.87253527
0.92000,17.36603461
0.92050,21.02836751
0.92100,22.24914514
0.92150,21.94395073
0.92200,22.55433954
0.92250,24.08031158
0.92300,23.77511717
0.92350,20.7231731
0.92400,17.06084021
0.92450,15.53486817
0.92500,15.84006257
0.92550,15.53486817
0.92600,13.70370172
0.92650,12.48292409
0.92700,12.48292409
0.92750,12.17772968
0.92800,11.26214646
0.92850,10.95695205
0.92900,11.87253527
0.92950,12.48292409
0.93000,10.65175764
0.93050,7.294619159
0.93100,3.327091859
0.93150,-0.03004662585
0.93200,-4.607962741
0.93250,-11.0170453
0.93300,-20.47807194
0.93350,-31.15987621
0.93400,-40.31570844
0.93450,-44.58843015
0.93500,-44.89362456
0.93550,-43.67284693
0.93600,-43.36765252
0.93650,-42.7572637
0.93700,-41.23129167
0.93750,-39.40012522
0.93800,-38.484542
0.93850,-37.56895877
0.93900,-37.26376437
0.93950,-36.34818114
0.94000,-35.43259792
0.94050,-32.99104266
0.94100,-30.24429299
0.94150,-28.41312654
0.94200,-27.19234891
0.94250,-25.66637687
0.94300,-23.83521043
0.94350,-22.00404398
0.94400,-19.86768313
0.94450,-17.42612786
0.94500,-14.6793782
0.94550,-13.15340616
0.94600,-12.23782293
0.94650,-10.7118509
0.94700,-8.270295634
0.94750,-6.744323595
0.94800,-5.828740372
0.94850,-4.607962741
0.94900,-3.081990703
0.94950,-1.861213072
0.95000,-1.556018664
0.95050,-1.861213072
0.95100,-1.250824257
0.95150,-0.03004662585
0.95200,0.5803421896
0.95250,1.190731005
0.95300,1.80111982
0.95350,2.106314228
0.95400,2.106314228
0.95450,2.716703043
0.95500,4.242675082
0.95550,6.073841528
0.95600,8.210202382
0.95650,8.820591197
0.95700,7.905007974
0.95750,6.379035936
0.95800,6.073841528
0.95850,6.989424751
0.95900,7.599813567
0.95950,6.684230344
0.96000,5.463452713
0.96050,5.76864712
0.96100,6.684230344
0.96150,6.989424751
0.96200,6.073841528
0.96250,5.76864712
0.96300,6.379035936
0.96350,6.684230344
0.96400,6.073841528
0.96450,5.463452713
0.96500,5.76864712
0.96550,6.989424751
0.96600,7.599813567
0.96650,6.684230344
0.96700,5.463452713
0.96750,4.853063897
0.96800,4.54786949
0.96850,4.242675082
0.96900,3.327091859
0.96950,3.021897451
0.97000,3.937480674
0.97050,4.54786949
0.97100,3.937480674
0.97150,3.021897451
0.97200,2.716703043
0.97250,3.327091859
0.97300,3.327091859
0.97350,3.021897451
0.97400,3.632286267
0.97450,4.853063897
0.97500,5.76864712
0.97550,6.073841528
0.97600,6.073841528
0.97650,6.073841528
0.97700,5.76864712
0.97750,4.853063897
0.97800,4.54786949
0.97850,6.073841528
0.97900,8.820591197
0.97950,10.65175764
0.98000,10.65175764
0.98050,9.125785605
0.98100,7.905007974
0.98150,6.684230344
0.98200,5.76864712
0.98250,4.853063897
0.98300,4.242675082
0.98350,4.54786949
0.98400,3.937480674
0.98450,2.716703043
0.98500,1.80111982
0.98550,2.716703043
0.98600,3.632286267
0.98650,3.021897451
0.98700,1.190731005
0.98750,0.5803421896
0.98800,1.495925413
0.98850,2.716703043
0.98900,2.106314228
0.98950,0.8855365973
0.99000,0.8855365973
0.99050,1.80111982
0.99100,2.106314228
0.99150,1.190731005
0.99200,0.8855365973
0.99250,1.495925413
0.99300,2.106314228
0.99350,2.106314228
0.99400,1.495925413
0.99450,1.495925413
0.99500,2.411508636
0.99550,3.021897451
0.99600,2.716703043
0.99650,1.495925413
0.99700,-0.03004662585
0.99750,-0.03004662585
0.99800,-0.03004662585
0.99850,0.2751477819
0.99900,0.5803421896
0.99950,-0.03004662585
1.00000,-0.3352410335
1.00050,-0.6404354412
1.00100,-0.03004662585
1.00150,1.495925413
1.00200,2.716703043
1.00250,3.327091859
1.00300,3.632286267
1.00350,4.242675082
1.00400,5.76864712
1.00450,6.989424751
1.00500,7.294619159
1.00550,6.379035936
1.00600,5.158258305
1.00650,4.54786949
1.00700,4.853063897
1.00750,6.073841528
1.00800,7.905007974
1.00850,9.736174421
1.00900,10.04136883
1.00950,9.125785605
1.01000,8.51539679
1.01050,8.51539679
1.01100,9.125785605
1.01150,10.04136883
1.01200,10.65175764
1.01250,9.736174421
1.01300,6.989424751
1.01350,3.021897451
1.01400,0.2751477819
1.01450,-0.3352410335
1.01500,-0.3352410335
1.01550,-0.6404354412
1.01600,-0.3352410335
1.01650,0.8855365973
1.01700,2.106314228
1.01750,2.106314228
1.01800,1.495925413
1.01850,0.8855365973
1.01900,0.2751477819
1.01950,-0.03004662585
1.02000,-0.945629849
1.02050,-1.556018664
1.02100,-2.471601887
1.02150,-3.387185111
1.02200,-4.607962741
1.02250,-5.523545964
1.02300,-6.744323595
1.02350,-8.575490041
1.02400,-10.10146208
1.02450,-11.32223971
1.02500,-11.93262853
1.02550,-11.0170453
1.02600,-8.270295634
1.02650,-5.218351557
1.02700,-3.692379518
1.02750,-3.387185111
1.02800,-2.776796295
1.02850,-2.471601887
1.02900,-3.997573926
1.02950,-6.13393478
1.03000,-6.439129188
1.03050,-4.607962741
1.03100,-4.302768334
1.03150,-5.523545964
1.03200,-5.218351557
1.03250,-3.081990703
1.03300,-1.861213072
1.03350,-3.387185111
1.03400,-4.913157149
1.03450,-4.302768334
1.03500,-3.081990703
1.03550,-3.387185111
1.03600,-4.607962741
1.03650,-4.607962741
1.03700,-3.692379518
1.03750,-3.692379518
1.03800,-4.302768334
1.03850,-3.997573926
1.03900,-3.081990703
1.03950,-2.776796295
1.04000,-2.776796295
1.04050,-2.16640748
1.04100,-0.6404354412
1.04150,-0.03004662585
1.04200,-0.6404354412
1.04250,-1.556018664
1.04300,-1.861213072
1.04350,-2.16640748
1.04400,-2.776796295
1.04450,-3.387185111
1.04500,-2.776796295
1.04550,-2.16640748
1.04600,-2.16640748
1.04650,-3.387185111
1.04700,-3.997573926
1.04750,-3.081990703
1.04800,-1.556018664
1.04850,-1.250824257
1.04900,-2.471601887
1.04950,-3.387185111
1.05000,-3.081990703
1.05050,-2.16640748
1.05100,-2.16640748
1.05150,-3.081990703
1.05200,-3.387185111
1.05250,-2.471601887
1.05300,-1.556018664
1.05350,-1.861213072
1.05400,-2.776796295
1.05450,-2.776796295
1.05500,-1.861213072
1.05550,-0.945629849
1.05600,-1.556018664
1.05650,-3.692379518
1.05700,-4.607962741
1.05750,-3.692379518
1.05800,-2.471601887
1.05850,-3.081990703
1.05900,-4.607962741
1.05950,-5.218351557
1.06000,-4.607962741
1.06050,-4.302768334
1.06100,-4.913157149
1.06150,-5.523545964
1.06200,-5.218351557
1.06250,-4.607962741
1.06300,-4.607962741
1.06350,-4.607962741
1.06400,-4.607962741
1.06450,-4.607962741
1.06500,-4.913157149
1.06550,-3.997573926
1.06600,-2.776796295
1.06650,-2.471601887
1.06700,-3.692379518
1.06750,-4.607962741
1.06800,-3.692379518
1.06850,-2.16640748
1.06900,-1.556018664
1.06950,-1.861213072
1.07000,-1.250824257
1.07050,0.2751477819
1.07100,2.106314228
1.07150,3.021897451
1.07200,4.853063897
1.07250,7.294619159
1.07300,8.51539679
1.07350,7.599813567
1.07400,6.379035936
1.07450,6.684230344
1.07500,7.599813567
1.07550,7.294619159
1.07600,6.989424751
1.07650,8.210202382
1.07700,10.34656324
1.07750,11.26214646
1.07800,10.04136883
1.07850,8.820591197
1.07900,8.210202382
1.07950,7.905007974
1.08000,7.294619159
1.08050,6.073841528
1.08100,5.463452713
1.08150,4.853063897
1.08200,3.937480674
1.08250,1.80111982
1.08300,0.2751477819
1.08350,-0.03004662585
1.08400,-0.03004662585
1.08450,-0.03004662585
1.08500,-0.03004662585
1.08550,-0.03004662585
1.08600,1.190731005
1.08650,2.411508636
1.08700,3.021897451
1.08750,3.021897451
1.08800,1.80111982
1.08850,0.8855365973
1.08900,1.190731005
1.08950,2.411508636
1.09000,2.716703043
1.09050,0.8855365973
1.09100,-1.556018664
1.09150,-2.776796295
1.09200,-1.861213072
1.09250,-0.945629849
1.09300,-1.556018664
1.09350,-2.471601887
1.09400,-3.081990703
1.09450,-3.997573926
1.09500,-5.218351557
1.09550,-5.523545964
1.09600,-4.302768334
1.09650,-2.776796295
1.09700,-3.387185111
1.09750,-4.913157149
1.09800,-5.523545964
1.09850,-4.607962741
1.09900,-3.997573926
1.09950,-3.692379518
1.10000,-3.081990703
1.10050,-2.16640748
1.10100,-2.471601887
1.10150,-3.997573926
1.10200,-3.997573926
1.10250,-2.16640748
1.10300,-0.03004662585
1.10350,-0.3352410335
1.10400,-1.556018664
1.10450,-1.556018664
1.10500,-1.250824257
1.10550,-3.081990703
1.10600,-6.13393478
1.10650,-7.354712411
1.10700,-6.439129188
1.10750,-4.913157149
1.10800,-4.607962741
1.10850,-4.607962741
1.10900,-3.081990703
1.10950,-1.250824257
1.11000,-0.3352410335
1.11050,-1.250824257
1.11100,-2.471601887
1.11150,-3.081990703
1.11200,-3.081990703
1.11250,-2.16640748
1.11300,-1.556018664
1.11350,-1.556018664
1.11400,-2.16640748
1.11450,-1.861213072
1.11500,-0.945629849
1.11550,-0.3352410335
1.11600,-0.6404354412
1.11650,-1.250824257
1.11700,-0.03004662585
1.11750,1.80111982
1.11800,2.411508636
1.11850,1.495925413
1.11900,0.2751477819
1.11950,0.5803421896
1.12000,0.8855365973
1.12050,0.5803421896
1.12100,0.2751477819
1.12150,0.2751477819
1.12200,1.495925413
1.12250,2.716703043
1.12300,3.327091859
1.12350,1.80111982
1.12400,-0.3352410335
1.12450,-1.861213072
1.12500,-1.250824257
1.12550,-0.3352410335
1.12600,-0.945629849
1.12650,-1.861213072
1.12700,-1.250824257
1.12750,0.5803421896
1.12800,1.495925413
1.12850,0.5803421896
1.12900,-0.03004662585
1.12950,-0.03004662585
1.13000,0.5803421896
1.13050,0.8855365973
1.13100,1.190731005
1.13150,1.80111982
1.13200,2.106314228
1.13250,2.716703043
1.13300,3.327091859
1.13350,3.937480674
1.13400,3.632286267
1.13450,2.411508636
1.13500,2.106314228
1.13550,3.327091859
1.13600,4.54786949
1.13650,4.54786949
1.13700,4.242675082
1.13750,4.242675082
1.13800,4.54786949
1.13850,3.937480674
1.13900,3.021897451
1.13950,2.411508636
1.14000,2.106314228
1.14050,1.80111982
1.14100,1.80111982
1.14150,0.8855365973
1.14200,-0.03004662585
1.14250,-1.250824257
1.14300,-0.6404354412
1.14350,0.2751477819
1.14400,0.5803421896
1.14450,-0.03004662585
1.14500,0.2751477819
1.14550,2.106314228
1.14600,3.021897451
1.14650,1.495925413
1.14700,-0.6404354412
1.14750,-1.250824257
1.14800,-0.3352410335
1.14850,0.2751477819
1.14900,0.2751477819
1.14950,-0.03004662585
1.15000,-0.945629849
1.15050,-2.16640748
1.15100,-1.861213072
1.15150,-0.03004662585
1.15200,2.106314228
1.15250,2.106314228
1.15300,1.495925413
1.15350,2.106314228
1.15400,3.937480674
1.15450,4.242675082
1.15500,2.106314228
1.15550,0.2751477819
1.15600,0.2751477819
1.15650,0.8855365973
1.15700,1.80111982
1.15750,3.021897451
1.15800,4.54786949
1.15850,4.853063897
1.15900,3.937480674
1.15950,4.242675082
1.16000,6.989424751
1.16050,10.04136883
1.16100,10.65175764
1.16150,10.34656324
1.16200,10.04136883
1.16250,10.34656324
1.16300,10.65175764
1.16350,10.95695205
1.16400,12.17772968
1.16450,12.17772968
1.16500,10.65175764
1.16550,8.820591197
1.16600,8.51539679
1.16650,9.125785605
1.16700,9.125785605
1.16750,8.51539679
1.16800,7.294619159
1.16850,6.684230344
1.16900,7.599813567
1.16950,9.125785605
1.17000,10.34656324
1.17050,9.430980013
1.17100,7.294619159
1.17150,6.073841528
1.17200,5.463452713
1.17250,4.54786949
1.17300,2.716703043
1.17350,1.495925413
1.17400,1.190731005
1.17450,-0.03004662585
1.17500,-2.471601887
1.17550,-3.692379518
1.17600,-3.692379518
1.17650,-4.302768334
1.17700,-7.049518003
1.17750,-9.185878857
1.17800,-10.40665649
1.17850,-11.62743412
1.17900,-13.76379497
1.17950,-14.9845726
1.18000,-14.37418379
1.18050,-13.15340616
1.18100,-13.15340616
1.18150,-14.37418379
1.18200,-15.28976701
1.18250,-15.28976701
1.18300,-14.6793782
1.18350,-13.45860056
1.18400,-12.23782293
1.18450,-12.54301734
1.18500,-13.76379497
1.18550,-14.37418379
1.18600,-13.45860056
1.18650,-12.23782293
1.18700,-11.93262853
1.18750,-11.32223971
1.18800,-9.796267672
1.18850,-8.270295634
1.18900,-7.965101226
1.18950,-8.575490041
1.19000,-8.270295634
1.19050,-7.659906818
1.19100,-7.049518003
1.19150,-6.744323595
1.19200,-5.828740372
1.19250,-4.913157149
1.19300,-4.913157149
1.19350,-4.607962741
1.19400,-3.081990703
1.19450,-1.250824257
1.19500,-0.03004662585
1.19550,0.2751477819
1.19600,0.5803421896
1.19650,0.8855365973
1.19700,0.8855365973
1.19750,0.8855365973
1.19800,1.495925413
1.19850,1.190731005
1.19900,0.2751477819
1.19950,-0.03004662585
1.20000,0.8855365973
1.20050,1.80111982
1.20100,1.190731005
1.20150,0.5803421896
1.20200,1.80111982
1.20250,3.327091859
1.20300,2.716703043
1.20350,0.2751477819
1.20400,-0.03004662585
1.20450,0.8855365973
1.20500,2.411508636
1.20550,2.411508636
1.20600,1.495925413
1.20650,2.716703043
1.20700,4.853063897
1.20750,6.073841528
1.20800,4.853063897
1.20850,2.716703043
1.20900,1.495925413
1.20950,0.8855365973
1.21000,0.8855365973
1.21050,0.8855365973
1.21100,1.495925413
1.21150,1.80111982
1.21200,1.190731005
1.21250,0.2751477819
1.21300,-0.03004662585
1.21350,1.495925413
1.21400,2.716703043
1.21450,3.021897451
1.21500,2.106314228
1.21550,1.495925413
1.21600,2.106314228
1.21650,2.716703043
1.21700,1.80111982
1.21750,0.5803421896
1.21800,0.2751477819
1.21850,1.190731005
1.21900,1.80111982
1.21950,1.190731005
1.22000,0.2751477819
1.22050,0.2751477819
1.22100,0.8855365973
1.22150,0.8855365973
1.22200,1.190731005
1.22250,1.80111982
1.22300,1.80111982
1.22350,0.8855365973
1.22400,0.2751477819
1.22450,0.8855365973
1.22500,1.495925413
1.22550,0.8855365973
1.22600,-0.03004662585
1.22650,-0.03004662585
1.22700,0.8855365973
1.22750,1.190731005
1.22800,0.8855365973
1.22850,0.8855365973
1.22900,1.190731005
1.22950,1.495925413
1.23000,1.190731005
1.23050,0.8855365973
1.23100,0.8855365973
1.23150,-0.03004662585
1.23200,-0.945629849
1.23250,-0.3352410335
1.23300,1.80111982
1.23350,3.021897451
1.23400,1.80111982
1.23450,-0.03004662585
1.23500,-0.03004662585
1.23550,1.495925413
1.23600,2.106314228
1.23650,0.8855365973
1.23700,-0.3352410335
1.23750,-0.3352410335
1.23800,-0.03004662585
1.23850,-0.03004662585
1.23900,-0.6404354412
1.23950,-1.250824257
1.24000,-1.250824257
1.24050,-1.250824257
1.24100,-1.250824257
1.24150,-0.6404354412
1.24200,-0.03004662585
1.24250,-0.03004662585
1.24300,-1.556018664
1.24350,-2.471601887
1.24400,-1.861213072
1.24450,-0.6404354412
1.24500,-0.6404354412
1.24550,-1.861213072
1.24600,-2.16640748
1.24650,-1.250824257
1.24700,-0.3352410335
1.24750,0.2751477819
1.24800,1.190731005
1.24850,2.411508636
1.24900,3.021897451
1.24950,2.106314228
1.25000,0.8855365973
1.25050,0.2751477819
1.25100,-0.03004662585
1.25150,-0.3352410335
1.25200,-0.6404354412
1.25250,-0.03004662585
1.25300,0.5803421896
1.25350,1.80111982
1.25400,2.411508636
1.25450,3.327091859
1.25500,3.021897451
1.25550,1.80111982
1.25600,0.8855365973
1.25650,0.8855365973
1.25700,0.8855365973
1.25750,-0.03004662585
1.25800,-0.6404354412
1.25850,-0.6404354412
1.25900,0.2751477819
1.25950,2.106314228
1.26000,4.242675082
1.26050,6.379035936
1.26100,7.599813567
1.26150,8.210202382
1.26200,8.51539679
1.26250,9.125785605
1.26300,9.430980013
1.26350,9.430980013
1.26400,8.210202382
1.26450,6.684230344
1.26500,5.76864712
1.26550,5.158258305
1.26600,4.54786949
1.26650,4.54786949
1.26700,5.158258305
1.26750,6.073841528
1.26800,5.76864712
1.26850,4.242675082
1.26900,3.632286267
1.26950,4.242675082
1.27000,4.853063897
1.27050,3.937480674
1.27100,2.411508636
1.27150,2.106314228
1.27200,3.021897451
1.27250,3.632286267
1.27300,3.021897451
1.27350,3.021897451
1.27400,4.242675082
1.27450,4.853063897
1.27500,3.937480674
1.27550,2.106314228
1.27600,0.2751477819
1.27650,-0.6404354412
1.27700,-1.861213072
1.27750,-4.607962741
1.27800,-7.659906818
1.27850,-9.491073265
1.27900,-9.491073265
1.27950,-8.880684449
1.28000,-9.491073265
1.28050,-12.23782293
1.28100,-14.37418379
1.28150,-14.06898938
1.28200,-11.62743412
1.28250,-9.491073265
1.28300,-8.880684449
1.28350,-8.880684449
1.28400,-7.659906818
1.28450,-5.828740372
1.28500,-4.302768334
1.28550,-3.387185111
1.28600,-3.387185111
1.28650,-4.302768334
1.28700,-4.913157149
1.28750,-4.913157149
1.28800,-4.607962741
1.28850,-4.302768334
1.28900,-4.607962741
1.28950,-4.302768334
1.29000,-3.692379518
1.29050,-3.081990703
1.29100,-3.081990703
1.29150,-3.387185111
1.29200,-3.997573926
1.29250,-3.997573926
1.29300,-3.387185111
1.29350,-2.471601887
1.29400,-1.556018664
1.29450,-0.945629849
1.29500,-0.6404354412
1.29550,-0.6404354412
1.29600,-0.3352410335
1.29650,0.2751477819
1.29700,1.495925413
1.29750,2.106314228
1.29800,1.80111982
1.29850,0.5803421896
1.29900,-0.3352410335
1.29950,-0.6404354412
1.30000,-0.03004662585
1.30050,-0.03004662585
1.30100,-0.6404354412
1.30150,-1.556018664
1.30200,-0.945629849
1.30250,-0.03004662585
1.30300,-0.03004662585
1.30350,-0.945629849
1.30400,-1.250824257
1.30450,-0.6404354412
1.30500,-0.3352410335
1.30550,-0.6404354412
1.30600,-0.6404354412
1.30650,-0.3352410335
1.30700,-0.3352410335
1.30750,-0.945629849
1.30800,-0.3352410335
1.30850,0.8855365973
1.30900,1.495925413
1.30950,-0.03004662585
1.31000,-1.250824257
1.31050,-1.250824257
1.31100,-0.03004662585
1.31150,0.5803421896
1.31200,0.5803421896
1.31250,0.5803421896
1.31300,1.190731005
1.31350,2.106314228
1.31400,2.716703043
1.31450,3.632286267
1.31500,3.937480674
1.31550,3.327091859
1.31600,1.80111982
1.31650,0.8855365973
1.31700,0.5803421896
1.31750,0.5803421896
1.31800,0.8855365973
1.31850,1.190731005
1.31900,1.80111982
1.31950,2.106314228
1.32000,1.80111982
1.32050,0.8855365973
1.32100,-0.03004662585
1.32150,-0.3352410335
1.32200,-0.03004662585
1.32250,0.5803421896
1.32300,0.5803421896
1.32350,-0.03004662585
1.32400,0.2751477819
1.32450,1.80111982
1.32500,3.021897451
1.32550,2.411508636
1.32600,1.190731005
1.32650,0.8855365973
1.32700,1.80111982
1.32750,3.021897451
1.32800,3.021897451
1.32850,1.80111982
1.32900,0.8855365973
1.32950,1.495925413
1.33000,2.411508636
1.33050,2.411508636
1.33100,1.495925413
1.33150,0.5803421896
1.33200,0.8855365973
1.33250,2.106314228
1.33300,1.495925413
1.33350,-0.03004662585
1.33400,-0.945629849
1.33450,-0.03004662585
1.33500,0.5803421896
1.33550,-0.945629849
1.33600,-3.081990703
1.33650,-3.387185111
1.33700,-0.945629849
1.33750,-0.03004662585
1.33800,-0.3352410335
1.33850,-0.945629849
1.33900,-0.6404354412
1.33950,-0.6404354412
1.34000,-1.556018664
1.34050,-2.16640748
1.34100,-0.3352410335
1.34150,1.190731005
1.34200,0.5803421896
1.34250,-1.861213072
1.34300,-3.692379518
1.34350,-2.776796295
1.34400,-1.556018664
1.34450,-1.556018664
1.34500,-1.861213072
1.34550,-1.250824257
1.34600,-0.03004662585
1.34650,0.5803421896
1.34700,1.190731005
1.34750,2.716703043
1.34800,3.632286267
1.34850,2.716703043
1.34900,0.5803421896
1.34950,-0.03004662585
1.35000,0.8855365973
1.35050,2.716703043
1.35100,3.021897451
1.35150,1.80111982
1.35200,0.2751477819
1.35250,0.2751477819
1.35300,1.190731005
1.35350,2.106314228
1.35400,2.411508636
1.35450,2.106314228
1.35500,1.495925413
1.35550,1.495925413
1.35600,2.716703043
1.35650,3.937480674
1.35700,3.327091859
1.35750,1.190731005
1.35800,-0.03004662585
1.35850,0.8855365973
1.35900,1.495925413
1.35950,1.190731005
1.36000,0.2751477819
1.36050,1.190731005
1.36100,2.106314228
1.36150,1.495925413
1.36200,0.2751477819
1.36250,0.2751477819
1.36300,1.190731005
1.36350,0.8855365973
1.36400,-0.3352410335
1.36450,-0.3352410335
1.36500,0.8855365973
1.36550,1.495925413
1.36600,0.2751477819
1.36650,-0.03004662585
1.36700,1.190731005
1.36750,2.716703043
1.36800,2.106314228
1.36850,-0.03004662585
1.36900,-0.3352410335
1.36950,0.2751477819
1.37000,0.8855365973
1.37050,0.2751477819
1.37100,-0.3352410335
1.37150,-0.945629849
1.37200,-0.945629849
1.37250,-1.250824257
1.37300,-1.250824257
1.37350,-0.945629849
1.37400,-0.945629849
1.37450,-1.250824257
1.37500,-1.250824257
1.37550,-1.250824257
1.37600,-1.250824257
1.37650,-1.250824257
1.37700,-0.3352410335
1.37750,-0.03004662585
1.37800,0.5803421896
1.37850,0.8855365973
1.37900,1.190731005
1.37950,1.495925413
1.38000,1.190731005
1.38050,0.5803421896
1.38100,0.2751477819
1.38150,0.5803421896
1.38200,1.190731005
1.38250,2.106314228
1.38300,2.716703043
1.38350,3.021897451
1.38400,2.716703043
1.38450,2.106314228
1.38500,1.495925413
1.38550,0.5803421896
1.38600,-0.03004662585
1.38650,-0.6404354412
1.38700,-0.3352410335
1.38750,-0.03004662585
1.38800,-0.03004662585
1.38850,-0.3352410335
1.38900,-1.556018664
1.38950,-2.471601887
1.39000,-2.471601887
1.39050,-1.861213072
1.39100,-0.6404354412
1.39150,-0.6404354412
1.39200,-0.945629849
1.39250,-0.945629849
1.39300,-0.3352410335
1.39350,-0.3352410335
1.39400,-0.6404354412
1.39450,-0.945629849
1.39500,-0.945629849
1.39550,-0.6404354412
1.39600,-0.03004662585
1.39650,1.190731005
1.39700,2.106314228
1.39750,1.495925413
1.39800,0.5803421896
1.39850,0.5803421896
1.39900,0.8855365973
1.39950,0.2751477819
1.40000,-1.556018664
1.40050,-3.387185111
1.40100,-3.692379518
1.40150,-3.692379518
1.40200,-4.302768334
1.40250,-4.913157149
1.40300,-5.218351557
1.40350,-4.607962741
1.40400,-4.302768334
1.40450,-4.607962741
1.40500,-4.302768334
1.40550,-3.997573926
1.40600,-3.692379518
1.40650,-4.302768334
1.40700,-5.218351557
1.40750,-5.218351557
1.40800,-3.997573926
1.40850,-2.776796295
1.40900,-3.387185111
1.40950,-4.302768334
1.41000,-4.913157149
1.41050,-4.302768334
1.41100,-3.692379518
1.41150,-3.387185111
1.41200,-2.776796295
1.41250,-2.16640748
1.41300,-2.16640748
1.41350,-2.776796295
1.41400,-2.471601887
1.41450,-1.250824257
1.41500,-0.6404354412
1.41550,-1.556018664
1.41600,-2.16640748
1.41650,-1.250824257
1.41700,-0.03004662585
1.41750,-0.03004662585
1.41800,-0.945629849
1.41850,-0.6404354412
1.41900,0.2751477819
1.41950,1.190731005
1.42000,1.80111982
1.42050,2.411508636
1.42100,2.411508636
1.42150,1.190731005
1.42200,-0.03004662585
1.42250,-0.03004662585
1.42300,0.2751477819
1.42350,0.5803421896
1.42400,0.8855365973
1.42450,1.495925413
1.42500,2.106314228
1.42550,1.80111982
1.42600,0.5803421896
1.42650,0.2751477819
1.42700,0.5803421896
1.42750,-0.03004662585
1.42800,-1.556018664
1.42850,-2.16640748
1.42900,-1.861213072
1.42950,-1.861213072
1.43000,-2.776796295
1.43050,-3.997573926
1.43100,-4.302768334
1.43150,-3.997573926
1.43200,-3.692379518
1.43250,-2.776796295
1.43300,-0.945629849
1.43350,0.2751477819
1.43400,1.495925413
1.43450,2.716703043
1.43500,4.853063897
1.43550,6.989424751
1.43600,8.51539679
1.43650,8.820591197
1.43700,8.51539679
1.43750,7.599813567
1.43800,6.379035936
1.43850,5.463452713
1.43900,4.853063897
1.43950,4.853063897
1.44000,5.158258305
1.44050,5.463452713
1.44100,5.76864712
1.44150,5.76864712
1.44200,5.76864712
1.44250,4.54786949
1.44300,3.021897451
1.44350,2.106314228
1.44400,2.411508636
1.44450,2.411508636
1.44500,0.8855365973
1.44550,-0.945629849
1.44600,-1.556018664
1.44650,-0.03004662585
1.44700,0.8855365973
1.44750,1.190731005
1.44800,1.190731005
1.44850,1.80111982
1.44900,2.411508636
1.44950,2.411508636
1.45000,2.411508636
1.45050,2.411508636
1.45100,1.80111982
1.45150,1.190731005
1.45200,1.495925413
1.45250,3.021897451
1.45300,3.937480674
1.45350,3.327091859
1.45400,2.716703043
1.45450,2.716703043
1.45500,2.716703043
1.45550,2.106314228
1.45600,2.106314228
1.45650,3.021897451
1.45700,3.021897451
1.45750,2.411508636
1.45800,2.716703043
1.45850,3.632286267
1.45900,3.021897451
1.45950,1.190731005
1.46000,0.2751477819
1.46050,1.190731005
1.46100,2.411508636
1.46150,1.80111982
1.46200,0.8855365973
1.46250,1.190731005
1.46300,1.495925413
1.46350,0.2751477819
1.46400,-0.6404354412
1.46450,-0.6404354412
1.46500,0.2751477819
1.46550,0.2751477819
1.46600,-0.6404354412
1.46650,-1.861213072
1.46700,-2.776796295
1.46750,-3.997573926
1.46800,-5.523545964
1.46850,-7.354712411
1.46900,-7.965101226
1.46950,-7.659906818
1.47000,-7.354712411
1.47050,-7.354712411
1.47100,-8.575490041
1.47150,-10.10146208
1.47200,-11.0170453
1.47250,-11.62743412
1.47300,-11.93262853
1.47350,-11.0170453
1.47400,-8.880684449
1.47450,-6.439129188
1.47500,-5.828740372
1.47550,-7.354712411
1.47600,-8.880684449
1.47650,-7.659906818
1.47700,-5.523545964
1.47750,-3.692379518
1.47800,-2.776796295
1.47850,-2.471601887
1.47900,-2.776796295
1.47950,-3.997573926
1.48000,-4.913157149
1.48050,-4.302768334
1.48100,-3.081990703
1.48150,-2.471601887
1.48200,-2.16640748
1.48250,-1.250824257
1.48300,0.2751477819
1.48350,1.190731005
1.48400,-0.03004662585
1.48450,-0.945629849
1.48500,-0.6404354412
1.48550,0.2751477819
1.48600,0.2751477819
1.48650,-0.3352410335
1.48700,-0.945629849
1.48750,-0.3352410335
1.48800,-0.03004662585
1.48850,-0.03004662585
1.48900,-0.03004662585
1.48950,1.190731005
1.49000,2.411508636
1.49050,1.495925413
1.49100,-0.3352410335
1.49150,-0.6404354412
1.49200,0.2751477819
1.49250,0.8855365973
1.49300,-0.3352410335
1.49350,-1.556018664
1.49400,-0.945629849
1.49450,0.2751477819
1.49500,0.5803421896
1.49550,0.2751477819
1.49600,-0.03004662585
1.49650,-0.3352410335
1.49700,-0.6404354412
1.49750,-0.3352410335
1.49800,-0.03004662585
1.49850,-0.03004662585
1.49900,-0.945629849
1.49950,-2.16640748
1.50000,-1.556018664
1.50050,-0.03004662585
1.50100,0.5803421896
1.50150,1.190731005
1.50200,1.495925413
1.50250,1.495925413
1.50300,2.106314228
1.50350,2.716703043
1.50400,3.937480674
1.50450,4.853063897
1.50500,4.54786949
1.50550,3.937480674
1.50600,4.242675082
1.50650,4.853063897
1.50700,5.463452713
1.50750,5.463452713
1.50800,6.073841528
1.50850,6.684230344
1.50900,6.684230344
1.50950,5.463452713
1.51000,3.327091859
1.51050,1.495925413
1.51100,1.495925413
1.51150,3.021897451
1.51200,4.54786949
1.51250,3.937480674
1.51300,2.716703043
1.51350,2.411508636
1.51400,3.632286267
1.51450,4.242675082
1.51500,2.716703043
1.51550,1.495925413
1.51600,2.106314228
1.51650,3.937480674
1.51700,4.242675082
1.51750,3.327091859
1.51800,3.021897451
1.51850,3.632286267
1.51900,4.242675082
1.51950,3.632286267
1.52000,2.106314228
1.52050,1.190731005
1.52100,1.190731005
1.52150,1.80111982
1.52200,1.80111982
1.52250,1.190731005
1.52300,0.5803421896
1.52350,0.2751477819
1.52400,-0.03004662585
1.52450,-0.3352410335
1.52500,-1.556018664
1.52550,-1.861213072
1.52600,-0.945629849
1.52650,-0.03004662585
1.52700,0.2751477819
1.52750,0.5803421896
1.52800,1.495925413
1.52850,2.106314228
1.52900,1.495925413
1.52950,-0.03004662585
1.53000,-0.03004662585
1.53050,2.106314228
1.53100,3.632286267
1.53150,3.021897451
1.53200,1.80111982
1.53250,1.495925413
1.53300,2.106314228
1.53350,1.80111982
1.53400,0.5803421896
1.53450,-0.03004662585
1.53500,0.5803421896
1.53550,1.495925413
1.53600,1.80111982
1.53650,1.80111982
1.53700,1.495925413
1.53750,1.495925413
1.53800,1.190731005
1.53850,1.495925413
1.53900,2.411508636
1.53950,2.716703043
1.54000,1.190731005
1.54050,-0.3352410335
1.54100,-0.6404354412
1.54150,0.2751477819
1.54200,1.190731005
1.54250,0.2751477819
1.54300,-0.945629849
1.54350,-1.861213072
1.54400,-1.861213072
1.54450,-2.16640748
1.54500,-3.387185111
1.54550,-4.302768334
1.54600,-3.997573926
1.54650,-2.776796295
1.54700,-1.556018664
1.54750,-1.556018664
1.54800,-2.471601887
1.54850,-2.776796295
1.54900,-3.081990703
1.54950,-3.081990703
1.55000,-3.081990703
1.55050,-2.776796295
1.55100,-2.471601887
1.55150,-2.16640748
1.55200,-2.471601887
1.55250,-2.776796295
1.55300,-2.471601887
1.55350,-2.16640748
1.55400,-1.556018664
1.55450,-1.556018664
1.55500,-1.556018664
1.55550,-2.16640748
1.55600,-3.387185111
1.55650,-4.607962741
1.55700,-4.607962741
1.55750,-3.387185111
1.55800,-2.16640748
1.55850,-3.081990703
1.55900,-4.913157149
1.55950,-5.218351557
1.56000,-3.692379518
1.56050,-1.556018664
1.56100,-0.6404354412
1.56150,-1.556018664
1.56200,-3.387185111
1.56250,-3.692379518
1.56300,-2.471601887
1.56350,-1.250824257
1.56400,-0.945629849
1.56450,-0.6404354412
1.56500,0.2751477819
1.56550,1.495925413
1.56600,1.190731005
1.56650,-0.6404354412
1.56700,-0.945629849
1.56750,0.5803421896
1.56800,1.80111982
1.56850,-0.03004662585
1.56900,-2.471601887
1.56950,-2.776796295
1.57000,-0.6404354412
1.57050,-0.03004662585
1.57100,-0.3352410335
1.57150,-0.6404354412
1.57200,-0.03004662585
1.57250,0.2751477819
1.57300,-0.03004662585
1.57350,-0.6404354412
1.57400,-0.03004662585
1.57450,0.5803421896
1.57500,0.2751477819
1.57550,-0.3352410335
1.57600,-0.6404354412
1.57650,-0.03004662585
1.57700,0.5803421896
1.57750,1.495925413
1.57800,1.495925413
1.57850,0.8855365973
1.57900,-0.03004662585
1.57950,-0.3352410335
1.58000,-1.556018664
1.58050,-2.471601887
1.58100,-2.471601887
1.58150,-1.250824257
1.58200,-0.945629849
1.58250,-2.16640748
1.58300,-3.081990703
1.58350,-2.16640748
1.58400,-0.3352410335
1.58450,0.2751477819
1.58500,0.5803421896
1.58550,1.190731005
1.58600,2.411508636
1.58650,3.021897451
1.58700,3.937480674
1.58750,4.54786949
1.58800,4.54786949
1.58850,3.327091859
1.58900,2.411508636
1.58950,3.021897451
1.59000,3.632286267
1.59050,2.716703043
1.59100,1.190731005
1.59150,0.8855365973
1.59200,1.495925413
1.59250,1.80111982
1.59300,2.411508636
1.59350,3.937480674
1.59400,4.54786949
1.59450,3.327091859
1.59500,1.190731005
1.59550,0.5803421896
1.59600,0.8855365973
1.59650,-0.03004662585
1.59700,-1.861213072
1.59750,-1.556018664
1.59800,-0.03004662585
1.59850,0.2751477819
1.59900,-0.945629849
1.59950,-1.556018664
1.60000,-0.03004662585
1.60050,1.495925413
1.60100,1.190731005
1.60150,0.5803421896
1.60200,0.8855365973
1.60250,1.190731005
1.60300,0.5803421896
1.60350,0.2751477819
1.60400,0.8855365973
1.60450,0.8855365973
1.60500,-0.03004662585
1.60550,-0.945629849
1.60600,-0.3352410335
1.60650,0.5803421896
1.60700,0.5803421896
1.60750,-0.03004662585
1.60800,-1.556018664
1.60850,-3.081990703
1.60900,-3.692379518
1.60950,-2.471601887
1.61000,-0.6404354412
1.61050,-0.945629849
1.61100,-2.471601887
1.61150,-3.081990703
1.61200,-2.16640748
1.61250,-1.861213072
1.61300,-2.776796295
1.61350,-2.471601887
1.61400,-0.6404354412
1.61450,0.5803421896
1.61500,0.5803421896
1.61550,0.2751477819
1.61600,0.2751477819
1.61650,-0.03004662585
1.61700,-1.861213072
1.61750,-3.081990703
1.61800,-1.861213072
1.61850,-0.6404354412
1.61900,-0.3352410335
1.61950,-0.3352410335
1.62000,0.2751477819
1.62050,1.190731005
1.62100,-0.03004662585
1.62150,-1.556018664
1.62200,-2.16640748
1.62250,-1.861213072
1.62300,-1.861213072
1.62350,-2.471601887
1.62400,-1.556018664
1.62450,-0.03004662585
1.62500,0.2751477819
1.62550,-0.3352410335
1.62600,-1.250824257
1.62650,-1.250824257
1.62700,-0.03004662585
1.62750,0.5803421896
1.62800,0.5803421896
1.62850,-0.03004662585
1.62900,-0.03004662585
1.62950,0.2751477819
1.63000,0.8855365973
1.63050,0.5803421896
1.63100,-0.3352410335
1.63150,-0.6404354412
1.63200,-0.6404354412
1.63250,-1.861213072
1.63300,-3.081990703
1.63350,-2.776796295
1.63400,-1.250824257
1.63450,-0.6404354412
1.63500,-0.945629849
1.63550,-0.03004662585
1.63600,1.80111982
1.63650,3.021897451
1.63700,1.495925413
1.63750,-0.03004662585
1.63800,0.5803421896
1.63850,1.495925413
1.63900,1.495925413
1.63950,0.5803421896
1.64000,0.8855365973
1.64050,1.495925413
1.64100,0.5803421896
1.64150,-1.250824257
1.64200,-2.16640748
1.64250,-0.945629849
1.64300,0.2751477819
1.64350,-0.03004662585
1.64400,-0.6404354412
1.64450,-0.945629849
1.64500,-0.3352410335
1.64550,-0.6404354412
1.64600,-1.556018664
1.64650,-2.471601887
1.64700,-2.471601887
1.64750,-2.16640748
1.64800,-2.16640748
1.64850,-1.861213072
1.64900,-1.556018664
1.64950,-1.861213072
1.65000,-2.16640748
1.65050,-1.861213072
1.65100,-1.250824257
1.65150,-1.250824257
1.65200,-3.081990703
1.65250,-4.607962741
1.65300,-3.692379518
1.65350,-1.861213072
1.65400,-1.556018664
1.65450,-2.471601887
1.65500,-2.16640748
1.65550,-0.3352410335
1.65600,0.2751477819
1.65650,-0.6404354412
1.65700,-2.16640748
1.65750,-1.861213072
1.65800,-0.945629849
1.65850,-0.6404354412
1.65900,-0.3352410335
1.65950,0.5803421896
1.66000,2.106314228
1.66050,3.327091859
1.66100,3.327091859
1.66150,3.327091859
1.66200,2.716703043
1.66250,2.106314228
1.66300,2.411508636
1.66350,3.937480674
1.66400,4.853063897
1.66450,4.853063897
1.66500,3.937480674
1.66550,3.021897451
1.66600,2.411508636
1.66650,2.106314228
1.66700,2.411508636
1.66750,3.327091859
1.66800,3.021897451
1.66850,1.80111982
1.66900,0.2751477819
1.66950,-0.03004662585
1.67000,1.190731005
1.67050,1.495925413
1.67100,0.2751477819
1.67150,-1.556018664
1.67200,-2.776796295
1.67250,-1.250824257
1.67300,1.190731005
1.67350,3.327091859
1.67400,4.242675082
1.67450,3.937480674
1.67500,3.327091859
1.67550,2.106314228
1.67600,1.190731005
1.67650,0.5803421896
1.67700,0.5803421896
1.67750,1.495925413
1.67800,2.716703043
1.67850,3.632286267
1.67900,3.632286267
1.67950,2.716703043
1.68000,2.106314228
1.68050,1.80111982
1.68100,2.106314228
1.68150,2.411508636
1.68200,2.411508636
1.68250,2.411508636
1.68300,2.106314228
1.68350,1.80111982
1.68400,1.190731005
1.68450,0.5803421896
1.68500,-0.03004662585
1.68550,-0.03004662585
1.68600,-0.03004662585
1.68650,0.2751477819
1.68700,-0.03004662585
1.68750,-0.03004662585
1.68800,1.190731005
1.68850,3.632286267
1.68900,4.853063897
1.68950,3.632286267
1.69000,1.495925413
1.69050,-0.03004662585
1.69100,-2.16640748
1.69150,-4.302768334
1.69200,-5.218351557
1.69250,-3.997573926
1.69300,-2.16640748
1.69350,-1.556018664
1.69400,-1.556018664
1.69450,-0.3352410335
1.69500,0.8855365973
1.69550,1.80111982
1.69600,1.495925413
1.69650,0.5803421896
1.69700,-0.03004662585
1.69750,-0.945629849
1.69800,-2.16640748
1.69850,-2.776796295
1.69900,-2.776796295
1.69950,-2.16640748
1.70000,-1.861213072
1.70050,-1.250824257
1.70100,-1.556018664
1.70150,-2.471601887
1.70200,-2.776796295
1.70250,-2.471601887
1.70300,-2.16640748
1.70350,-3.387185111
1.70400,-5.218351557
1.70450,-5.828740372
1.70500,-5.523545964
1.70550,-4.913157149
1.70600,-3.997573926
1.70650,-2.471601887
1.70700,-1.861213072
1.70750,-2.776796295
1.70800,-4.302768334
1.70850,-4.607962741
1.70900,-2.471601887
1.70950,-1.250824257
1.71000,-2.16640748
1.71050,-3.081990703
1.71100,-2.471601887
1.71150,-0.945629849
1.71200,-0.945629849
1.71250,-1.861213072
1.71300,-1.250824257
1.71350,-0.03004662585
1.71400,0.5803421896
1.71450,-0.3352410335
1.71500,-0.6404354412
1.71550,0.2751477819
1.71600,1.190731005
1.71650,0.5803421896
1.71700,-0.3352410335
1.71750,-0.6404354412
1.71800,-0.03004662585
1.71850,1.495925413
1.71900,1.80111982
1.71950,1.190731005
1.72000,-0.03004662585
1.72050,-0.945629849
1.72100,-0.6404354412
1.72150,-0.03004662585
1.72200,0.5803421896
1.72250,0.2751477819
1.72300,-0.03004662585
1.72350,-0.03004662585
1.72400,-0.03004662585
1.72450,-0.03004662585
1.72500,-0.03004662585
1.72550,-0.3352410335
1.72600,-0.945629849
1.72650,-0.945629849
1.72700,-0.03004662585
1.72750,0.2751477819
1.72800,0.2751477819
1.72850,-0.03004662585
1.72900,-0.3352410335
1.72950,-0.03004662585
1.73000,0.5803421896
1.73050,0.8855365973
1.73100,0.8855365973
1.73150,0.5803421896
1.73200,0.2751477819
1.73250,-0.03004662585
1.73300,-0.03004662585
1.73350,-0.03004662585
1.73400,-0.03004662585
1.73450,0.2751477819
1.73500,0.2751477819
1.73550,0.2751477819
1.73600,-0.03004662585
1.73650,0.5803421896
1.73700,1.80111982
1.73750,3.021897451
1.73800,3.021897451
1.73850,2.716703043
1.73900,2.716703043
1.73950,4.54786949
1.74000,6.684230344
1.74050,6.989424751
1.74100,5.76864712
1.74150,4.853063897
1.74200,5.463452713
1.74250,6.379035936
1.74300,6.073841528
1.74350,4.242675082
1.74400,2.716703043
1.74450,2.716703043
1.74500,3.632286267
1.74550,3.937480674
1.74600,3.937480674
1.74650,3.937480674
1.74700,4.54786949
1.74750,5.76864712
1.74800,5.76864712
1.74850,4.853063897
1.74900,3.937480674
1.74950,4.54786949
1.75000,6.379035936
1.75050,7.599813567
1.75100,7.294619159
1.75150,7.294619159
1.75200,7.599813567
1.75250,7.905007974
1.75300,7.294619159
1.75350,6.684230344
1.75400,6.684230344
1.75450,6.073841528
1.75500,5.158258305
1.75550,4.54786949
1.75600,6.379035936
1.75650,7.905007974
1.75700,7.599813567
1.75750,5.463452713
1.75800,3.632286267
1.75850,3.632286267
1.75900,3.937480674
1.75950,3.632286267
1.76000,2.106314228
1.76050,-0.945629849
1.76100,-5.218351557
1.76150,-9.185878857
1.76200,-12.23782293
1.76250,-14.06898938
1.76300,-15.59496142
1.76350,-17.42612786
1.76400,-18.6469055
1.76450,-17.42612786
1.76500,-14.9845726
1.76550,-13.45860056
1.76600,-13.45860056
1.76650,-13.15340616
1.76700,-10.7118509
1.76750,-6.744323595
1.76800,-3.997573926
1.76850,-3.692379518
1.76900,-5.218351557
1.76950,-6.13393478
1.77000,-6.13393478
1.77050,-5.523545964
1.77100,-5.218351557
1.77150,-4.913157149
1.77200,-4.913157149
1.77250,-4.913157149
1.77300,-4.302768334
1.77350,-4.302768334
1.77400,-4.913157149
1.77450,-4.913157149
1.77500,-3.997573926
1.77550,-2.471601887
1.77600,-2.16640748
1.77650,-3.081990703
1.77700,-3.081990703
1.77750,-2.16640748
1.77800,-1.250824257
1.77850,-1.556018664
1.77900,-2.471601887
1.77950,-2.471601887
1.78000,-1.556018664
1.78050,-0.945629849
1.78100,-0.6404354412
1.78150,-0.03004662585
1.78200,0.5803421896
1.78250,0.8855365973
1.78300,0.5803421896
1.78350,-0.03004662585
1.78400,-1.556018664
1.78450,-2.16640748
1.78500,-1.556018664
1.78550,-0.6404354412
1.78600,-0.945629849
1.78650,-1.556018664
1.78700,-1.556018664
1.78750,-0.3352410335
1.78800,0.5803421896
1.78850,0.8855365973
1.78900,1.190731005
1.78950,1.495925413
1.79000,1.495925413
1.79050,0.2751477819
1.79100,-1.250824257
1.79150,-2.471601887
1.79200,-2.776796295
1.79250,-2.776796295
1.79300,-2.776796295
1.79350,-2.471601887
1.79400,-1.861213072
1.79450,-1.861213072
1.79500,-2.16640748
1.79550,-2.471601887
1.79600,-2.471601887
1.79650,-1.861213072
1.79700,-0.945629849
1.79750,-0.6404354412
1.79800,-0.6404354412
1.79850,-1.250824257
1.79900,-1.250824257
1.79950,-0.03004662585
1.80000,1.190731005
1.80050,2.411508636
1.80100,3.327091859
1.80150,4.242675082
1.80200,4.853063897
1.80250,4.242675082
1.80300,3.327091859
1.80350,2.411508636
1.80400,2.411508636
1.80450,3.021897451
1.80500,4.242675082
1.80550,5.158258305
1.80600,5.463452713
1.80650,5.463452713
1.80700,5.463452713
1.80750,5.158258305
1.80800,4.853063897
1.80850,4.242675082
1.80900,3.632286267
1.80950,4.242675082
1.81000,5.158258305
1.81050,5.463452713
1.81100,4.853063897
1.81150,3.937480674
1.81200,3.021897451
1.81250,3.021897451
1.81300,3.021897451
1.81350,2.411508636
1.81400,1.495925413
1.81450,0.8855365973
1.81500,1.190731005
1.81550,1.80111982
1.81600,1.495925413
1.81650,0.5803421896
1.81700,0.8855365973
1.81750,2.106314228
1.81800,3.021897451
1.81850,2.716703043
1.81900,1.80111982
1.81950,0.8855365973
1.82000,0.2751477819
1.82050,0.2751477819
1.82100,-0.03004662585
1.82150,-0.6404354412
1.82200,-1.250824257
1.82250,-0.6404354412
1.82300,0.8855365973
1.82350,1.80111982
1.82400,1.190731005
1.82450,-0.03004662585
1.82500,-0.03004662585
1.82550,-0.03004662585
1.82600,-0.03004662585
1.82650,-0.03004662585
1.82700,0.2751477819
1.82750,0.8855365973
1.82800,-0.03004662585
1.82850,-0.945629849
1.82900,-0.6404354412
1.82950,-0.03004662585
1.83000,-0.6404354412
1.83050,-1.556018664
1.83100,-1.556018664
1.83150,-1.250824257
1.83200,-1.556018664
1.83250,-2.471601887
1.83300,-1.556018664
1.83350,0.2751477819
1.83400,2.716703043
1.83450,4.242675082
1.83500,6.379035936
1.83550,9.430980013
1.83600,10.34656324
1.83650,8.820591197
1.83700,6.684230344
1.83750,6.379035936
1.83800,6.684230344
1.83850,6.073841528
1.83900,5.76864712
1.83950,6.073841528
1.84000,6.684230344
1.84050,5.158258305
1.84100,3.937480674
1.84150,4.54786949
1.84200,6.073841528
1.84250,6.073841528
1.84300,5.463452713
1.84350,5.76864712
1.84400,7.905007974
1.84450,8.820591197
1.84500,7.599813567
1.84550,6.379035936
1.84600,6.379035936
1.84650,5.76864712
1.84700,3.021897451
1.84750,-0.03004662585
1.84800,-2.776796295
1.84850,-5.218351557
1.84900,-9.185878857
1.84950,-13.15340616
1.85000,-15.90015583
1.85050,-17.42612786
1.85100,-18.34171109
1.85150,-19.25729431
1.85200,-19.25729431
1.85250,-18.9520999
1.85300,-18.9520999
1.85350,-18.9520999
1.85400,-17.42612786
1.85450,-14.37418379
1.85500,-11.93262853
1.85550,-11.32223971
1.85600,-11.93262853
1.85650,-12.84821175
1.85700,-12.54301734
1.85750,-11.32223971
1.85800,-10.7118509
1.85850,-11.0170453
1.85900,-11.0170453
1.85950,-8.880684449
1.86000,-5.218351557
1.86050,-2.16640748
1.86100,-0.6404354412
1.86150,0.5803421896
1.86200,3.021897451
1.86250,4.853063897
1.86300,4.54786949
1.86350,2.106314228
1.86400,0.8855365973
1.86450,1.495925413
1.86500,1.80111982
1.86550,1.190731005
1.86600,0.5803421896
1.86650,0.2751477819
1.86700,-0.03004662585
1.86750,-0.6404354412
1.86800,-1.250824257
1.86850,-0.945629849
1.86900,-0.3352410335
1.86950,-0.03004662585
1.87000,-0.03004662585
1.87050,-0.03004662585
1.87100,0.2751477819
1.87150,1.190731005
1.87200,2.106314228
1.87250,2.411508636
1.87300,2.106314228
1.87350,2.106314228
1.87400,2.716703043
1.87450,4.853063897
1.87500,6.073841528
1.87550,5.463452713
1.87600,3.327091859
1.87650,1.495925413
1.87700,1.190731005
1.87750,1.495925413
1.87800,1.190731005
1.87850,-0.03004662585
1.87900,-0.6404354412
1.87950,-0.3352410335
1.88000,0.8855365973
1.88050,2.411508636
1.88100,2.716703043
1.88150,2.411508636
1.88200,2.106314228
1.88250,2.106314228
1.88300,2.106314228
1.88350,1.80111982
1.88400,2.106314228
1.88450,2.411508636
1.88500,2.411508636
1.88550,1.80111982
1.88600,0.5803421896
1.88650,-0.6404354412
1.88700,-1.250824257
1.88750,-1.250824257
1.88800,-0.6404354412
1.88850,-0.03004662585
1.88900,-0.03004662585
1.88950,-0.3352410335
1.89000,-0.945629849
1.89050,-0.945629849
1.89100,-0.6404354412
1.89150,-0.3352410335
1.89200,-0.3352410335
1.89250,-0.03004662585
1.89300,-0.03004662585
1.89350,-0.03004662585
1.89400,-0.3352410335
1.89450,-0.03004662585
1.89500,2.106314228
1.89550,4.54786949
1.89600,5.158258305
1.89650,4.54786949
1.89700,3.632286267
1.89750,3.937480674
1.89800,4.54786949
1.89850,5.158258305
1.89900,5.463452713
1.89950,5.463452713
1.90000,4.853063897
1.90050,3.327091859
1.90100,1.495925413
1.90150,0.2751477819
1.90200,0.8855365973
1.90250,2.106314228
1.90300,2.106314228
1.90350,0.8855365973
1.90400,-0.3352410335
1.90450,-0.3352410335
1.90500,-0.03004662585
1.90550,0.2751477819
1.90600,-0.03004662585
1.90650,0.8855365973
1.90700,3.327091859
1.90750,4.853063897
1.90800,4.242675082
1.90850,2.106314228
1.90900,1.190731005
1.90950,1.495925413
1.91000,2.106314228
1.91050,1.80111982
1.91100,1.190731005
1.91150,0.8855365973
1.91200,1.80111982
1.91250,2.411508636
1.91300,2.411508636
1.91350,2.411508636
1.91400,3.327091859
1.91450,4.242675082
1.91500,4.853063897
1.91550,4.54786949
1.91600,3.937480674
1.91650,3.021897451
1.91700,1.80111982
1.91750,0.5803421896
1.91800,0.2751477819
1.91850,1.495925413
1.91900,3.021897451
1.91950,3.327091859
1.92000,2.716703043
1.92050,1.80111982
1.92100,0.8855365973
1.92150,-0.03004662585
1.92200,-0.03004662585
1.92250,-0.03004662585
1.92300,0.5803421896
1.92350,-0.03004662585
1.92400,-1.556018664
1.92450,-1.556018664
1.92500,-0.03004662585
1.92550,1.190731005
1.92600,0.5803421896
1.92650,-0.6404354412
1.92700,-1.556018664
1.92750,-1.556018664
1.92800,-1.250824257
1.92850,-1.250824257
1.92900,-1.556018664
1.92950,-3.081990703
1.93000,-4.913157149
1.93050,-6.439129188
1.93100,-5.828740372
1.93150,-4.302768334
1.93200,-3.081990703
1.93250,-2.776796295
1.93300,-3.387185111
1.93350,-3.997573926
1.93400,-4.913157149
1.93450,-5.218351557
1.93500,-4.607962741
1.93550,-3.387185111
1.93600,-2.776796295
1.93650,-2.776796295
1.93700,-3.081990703
1.93750,-2.776796295
1.93800,-1.556018664
1.93850,-0.03004662585
1.93900,0.2751477819
1.93950,0.8855365973
1.94000,1.190731005
1.94050,1.495925413
1.94100,0.5803421896
1.94150,-0.6404354412
1.94200,-1.556018664
1.94250,-1.250824257
1.94300,-0.945629849
1.94350,-0.945629849
1.94400,-1.250824257
1.94450,-0.3352410335
1.94500,-0.03004662585
1.94550,-0.3352410335
1.94600,-1.250824257
1.94650,-0.3352410335
1.94700,1.495925413
1.94750,3.021897451
1.94800,2.106314228
1.94850,0.8855365973
1.94900,-0.03004662585
1.94950,-0.03004662585
1.95000,-0.3352410335
1.95050,-0.03004662585
1.95100,0.2751477819
1.95150,0.5803421896
1.95200,0.8855365973
1.95250,2.716703043
1.95300,4.54786949
1.95350,5.158258305
1.95400,4.853063897
1.95450,5.76864712
1.95500,8.210202382
1.95550,8.820591197
1.95600,6.684230344
1.95650,3.632286267
1.95700,2.411508636
1.95750,3.021897451
1.95800,3.021897451
1.95850,2.716703043
1.95900,1.495925413
1.95950,0.8855365973
1.96000,1.190731005
1.96050,1.80111982
1.96100,2.411508636
1.96150,2.411508636
1.96200,2.411508636
1.96250,3.021897451
1.96300,3.021897451
1.96350,1.495925413
1.96400,-0.03004662585
1.96450,-0.6404354412
1.96500,-0.3352410335
1.96550,-0.6404354412
1.96600,-1.861213072
1.96650,-2.471601887
1.96700,-1.556018664
1.96750,-0.6404354412
1.96800,-0.6404354412
1.96850,-0.3352410335
1.96900,-0.03004662585
1.96950,0.5803421896
1.97000,0.2751477819
1.97050,-0.3352410335
1.97100,-0.6404354412
1.97150,-0.3352410335
1.97200,-0.03004662585
1.97250,0.2751477819
1.97300,0.5803421896
1.97350,0.5803421896
1.97400,0.8855365973
1.97450,1.190731005
1.97500,0.2751477819
1.97550,-0.6404354412
1.97600,-0.6404354412
1.97650,-0.03004662585
1.97700,-0.03004662585
1.97750,-0.3352410335
1.97800,-0.03004662585
1.97850,1.80111982
1.97900,3.632286267
1.97950,3.632286267
1.98000,2.106314228
1.98050,1.190731005
1.98100,0.8855365973
1.98150,0.5803421896
1.98200,0.5803421896
1.98250,0.8855365973
1.98300,0.8855365973
1.98350,1.190731005
1.98400,1.495925413
1.98450,2.411508636
1.98500,3.021897451
1.98550,2.411508636
1.98600,1.495925413
1.98650,1.190731005
1.98700,1.80111982
1.98750,2.106314228
1.98800,2.411508636
1.98850,2.716703043
1.98900,3.021897451
1.98950,2.106314228
1.99000,1.495925413
1.99050,2.106314228
1.99100,2.716703043
1.99150,1.80111982
1.99200,-0.6404354412
1.99250,-2.776796295
1.99300,-3.081990703
1.99350,-2.776796295
1.99400,-2.776796295
1.99450,-2.471601887
1.99500,-1.861213072
1.99550,-1.250824257
1.99600,-1.250824257
1.99650,-2.471601887
1.99700,-4.607962741
1.99750,-6.13393478
1.99800,-7.049518003
1.99850,-6.439129188
1.99900,-5.523545964
1.99950,-4.913157149
2.00000,-4.607962741
2.00050,-4.607962741
2.00100,-4.607962741
2.00150,-4.913157149
2.00200,-5.523545964
2.00250,-5.523545964
2.00300,-4.302768334
2.00350,-3.387185111
2.00400,-3.081990703
2.00450,-3.387185111
2.00500,-3.692379518
2.00550,-3.081990703
2.00600,-1.861213072
2.00650,-1.250824257
2.00700,-1.556018664
2.00750,-2.16640748
2.00800,-2.16640748
2.00850,-2.16640748
2.00900,-1.861213072
2.00950,-2.16640748
2.01000,-2.16640748
2.01050,-2.471601887
2.01100,-2.776796295
2.01150,-2.776796295
2.01200,-1.861213072
2.01250,-0.945629849
2.01300,-0.945629849
2.01350,-1.250824257
2.01400,-0.945629849
2.01450,-0.3352410335
2.01500,-0.6404354412
2.01550,-2.16640748
2.01600,-3.997573926
2.01650,-4.607962741
2.01700,-4.607962741
2.01750,-4.913157149
2.01800,-4.913157149
2.01850,-3.997573926
2.01900,-2.776796295
2.01950,-2.16640748
2.02000,-2.776796295
2.02050,-2.471601887
2.02100,-0.6404354412
2.02150,1.495925413
2.02200,1.495925413
2.02250,-0.6404354412
2.02300,-3.081990703
2.02350,-3.387185111
2.02400,-2.776796295
2.02450,-2.776796295
2.02500,-3.387185111
2.02550,-2.471601887
2.02600,-0.945629849
2.02650,-0.03004662585
2.02700,-0.03004662585
2.02750,-0.03004662585
2.02800,0.8855365973
2.02850,1.80111982
2.02900,1.80111982
2.02950,1.190731005
2.03000,1.190731005
2.03050,1.495925413
2.03100,0.8855365973
2.03150,0.2751477819
2.03200,0.5803421896
2.03250,2.106314228
2.03300,3.327091859
2.03350,3.632286267
2.03400,3.327091859
2.03450,4.242675082
2.03500,5.76864712
2.03550,6.684230344
2.03600,5.76864712
2.03650,4.242675082
2.03700,3.327091859
2.03750,3.937480674
2.03800,4.54786949
2.03850,4.853063897
2.03900,5.463452713
2.03950,6.989424751
2.04000,8.210202382
2.04050,8.210202382
2.04100,6.989424751
2.04150,5.76864712
2.04200,5.158258305
2.04250,5.463452713
2.04300,5.158258305
2.04350,3.327091859
2.04400,1.495925413
2.04450,0.8855365973
2.04500,1.190731005
2.04550,1.190731005
2.04600,0.5803421896
2.04650,0.5803421896
2.04700,1.190731005
2.04750,1.80111982
2.04800,0.8855365973
2.04850,0.2751477819
2.04900,0.5803421896
2.04950,0.8855365973
2.05000,0.2751477819
2.05050,-0.03004662585
2.05100,-0.03004662585
2.05150,-0.03004662585
2.05200,-1.250824257
2.05250,-1.861213072
2.05300,-0.945629849
2.05350,0.5803421896
2.05400,0.5803421896
2.05450,-0.03004662585
2.05500,-0.03004662585
2.05550,0.5803421896
2.05600,0.5803421896
2.05650,-0.03004662585
2.05700,0.2751477819
2.05750,1.495925413
2.05800,1.80111982
2.05850,0.2751477819
2.05900,-0.6404354412
2.05950,-0.3352410335
2.06000,-0.03004662585
2.06050,-0.3352410335
2.06100,-0.3352410335
2.06150,-0.03004662585
2.06200,0.2751477819
2.06250,-0.3352410335
2.06300,-1.250824257
2.06350,-0.6404354412
2.06400,-0.03004662585
2.06450,-0.945629849
2.06500,-2.16640748
2.06550,-1.556018664
2.06600,-0.03004662585
2.06650,0.8855365973
2.06700,-0.03004662585
2.06750,-0.6404354412
2.06800,-1.250824257
2.06850,-1.250824257
2.06900,-1.556018664
2.06950,-1.556018664
2.07000,-1.250824257
2.07050,-0.945629849
2.07100,-0.6404354412
2.07150,-0.945629849
2.07200,-1.556018664
2.07250,-2.16640748
2.07300,-2.471601887
2.07350,-2.16640748
2.07400,-1.861213072
2.07450,-2.16640748
2.07500,-2.776796295
2.07550,-2.776796295
2.07600,-3.081990703
2.07650,-3.692379518
2.07700,-3.692379518
2.07750,-1.861213072
2.07800,-0.03004662585
2.07850,-0.3352410335
2.07900,-2.776796295
2.07950,-4.302768334
2.08000,-3.387185111
2.08050,-2.16640748
2.08100,-2.471601887
2.08150,-3.081990703
2.08200,-2.16640748
2.08250,-0.945629849
2.08300,-1.250824257
2.08350,-2.16640748
2.08400,-2.471601887
2.08450,-0.945629849
2.08500,0.2751477819
2.08550,0.2751477819
2.08600,-0.3352410335
2.08650,-0.6404354412
2.08700,-0.945629849
2.08750,-0.945629849
2.08800,-1.250824257
2.08850,-2.16640748
2.08900,-2.471601887
2.08950,-1.861213072
2.09000,-0.6404354412
2.09050,-0.03004662585
2.09100,-0.3352410335
2.09150,-1.250824257
2.09200,-2.471601887
2.09250,-3.081990703
2.09300,-2.776796295
2.09350,-2.16640748
2.09400,-1.250824257
2.09450,-0.3352410335
2.09500,-0.3352410335
2.09550,-0.945629849
2.09600,-1.250824257
2.09650,-1.250824257
2.09700,-1.861213072
2.09750,-2.471601887
2.09800,-2.776796295
2.09850,-2.776796295
2.09900,-2.471601887
2.09950,-3.081990703
2.10000,-3.997573926
2.10050,-4.607962741
2.10100,-3.997573926
2.10150,-2.471601887
2.10200,-1.861213072
2.10250,-2.16640748
2.10300,-2.16640748
2.10350,-1.861213072
2.10400,-0.6404354412
2.10450,-0.03004662585
2.10500,0.8855365973
2.10550,1.80111982
2.10600,2.716703043
2.10650,2.106314228
2.10700,0.8855365973
2.10750,-0.03004662585
2.10800,-0.945629849
2.10850,-1.861213072
2.10900,-2.471601887
2.10950,-1.861213072
2.11000,-0.6404354412
2.11050,-0.03004662585
2.11100,-0.945629849
2.11150,-1.861213072
2.11200,-2.16640748
2.11250,-2.16640748
2.11300,-3.692379518
2.11350,-4.913157149
2.11400,-4.607962741
2.11450,-3.081990703
2.11500,-2.776796295
2.11550,-3.692379518
2.11600,-3.997573926
2.11650,-1.861213072
2.11700,-0.03004662585
2.11750,-0.03004662585
2.11800,-1.861213072
2.11850,-2.16640748
2.11900,-1.250824257
2.11950,-0.6404354412
2.12000,-1.250824257
2.12050,-1.556018664
2.12100,-0.6404354412
2.12150,-0.3352410335
2.12200,-1.556018664
2.12250,-2.471601887
2.12300,-2.16640748
2.12350,-1.556018664
2.12400,-2.16640748
2.12450,-2.471601887
2.12500,-0.6404354412
2.12550,1.495925413
2.12600,1.80111982
2.12650,-0.03004662585
2.12700,-0.3352410335
2.12750,1.190731005
2.12800,3.632286267
2.12850,3.937480674
2.12900,2.716703043
2.12950,1.80111982
2.13000,2.106314228
2.13050,2.106314228
2.13100,1.80111982
2.13150,1.495925413
2.13200,1.190731005
2.13250,1.495925413
2.13300,2.411508636
2.13350,3.327091859
2.13400,3.632286267
2.13450,2.411508636
2.13500,1.495925413
2.13550,2.106314228
2.13600,3.937480674
2.13650,4.853063897
2.13700,4.853063897
2.13750,4.242675082
2.13800,4.242675082
2.13850,4.54786949
2.13900,4.853063897
2.13950,4.54786949
2.14000,3.021897451
2.14050,0.5803421896
2.14100,-0.3352410335
2.14150,-0.03004662585
2.14200,0.2751477819
2.14250,0.5803421896
2.14300,0.8855365973
2.14350,1.495925413
2.14400,1.80111982
2.14450,1.495925413
2.14500,1.190731005
2.14550,1.495925413
2.14600,1.495925413
2.14650,0.5803421896
2.14700,-0.03004662585
2.14750,0.2751477819
2.14800,0.8855365973
2.14850,0.2751477819
2.14900,-1.250824257
2.14950,-2.16640748
2.15000,-0.945629849
2.15050,-0.03004662585
2.15100,-0.6404354412
2.15150,-1.250824257
2.15200,-0.945629849
2.15250,-0.03004662585
2.15300,-0.6404354412
2.15350,-2.16640748
2.15400,-2.471601887
2.15450,-0.945629849
2.15500,-0.03004662585
2.15550,-0.3352410335
2.15600,-1.861213072
2.15650,-2.471601887
2.15700,-2.776796295
2.15750,-3.387185111
2.15800,-3.692379518
2.15850,-2.16640748
2.15900,-0.03004662585
2.15950,0.5803421896
2.16000,-1.250824257
2.16050,-3.387185111
2.16100,-3.997573926
2.16150,-2.471601887
2.16200,-0.6404354412
2.16250,-0.03004662585
2.16300,-0.03004662585
2.16350,0.2751477819
2.16400,0.2751477819
2.16450,-0.03004662585
2.16500,-0.6404354412
2.16550,-1.250824257
2.16600,-0.945629849
2.16650,-0.03004662585
2.16700,0.2751477819
2.16750,0.5803421896
2.16800,0.5803421896
2.16850,0.5803421896
2.16900,0.2751477819
2.16950,0.2751477819
2.17000,1.190731005
2.17050,2.106314228
2.17100,1.80111982
2.17150,0.2751477819
2.17200,-0.03004662585
2.17250,1.80111982
2.17300,2.716703043
2.17350,1.80111982
2.17400,-0.03004662585
2.17450,-0.3352410335
2.17500,0.5803421896
2.17550,1.80111982
2.17600,2.106314228
2.17650,3.327091859
2.17700,4.853063897
2.17750,5.158258305
2.17800,3.327091859
2.17850,2.716703043
2.17900,4.242675082
2.17950,5.76864712
2.18000,3.937480674
2.18050,0.5803421896
2.18100,-0.3352410335
2.18150,0.5803421896
2.18200,1.495925413
2.18250,1.190731005
2.18300,0.8855365973
2.18350,1.190731005
2.18400,0.5803421896
2.18450,-0.6404354412
2.18500,-0.945629849
2.18550,-0.03004662585
2.18600,0.5803421896
2.18650,0.5803421896
2.18700,0.2751477819
2.18750,0.5803421896
2.18800,0.5803421896
2.18850,-0.03004662585
2.18900,-0.3352410335
2.18950,0.2751477819
2.19000,1.190731005
2.19050,0.5803421896
2.19100,-1.250824257
2.19150,-3.081990703
2.19200,-3.692379518
2.19250,-2.471601887
2.19300,-0.6404354412
2.19350,-0.03004662585
2.19400,-1.556018664
2.19450,-2.471601887
2.19500,-1.861213072
2.19550,-0.03004662585
2.19600,0.5803421896
2.19650,-0.03004662585
2.19700,-0.6404354412
2.19750,-0.03004662585
2.19800,-0.03004662585
2.19850,-0.6404354412
2.19900,-1.250824257
2.19950,-0.945629849
2.20000,-0.03004662585
2.20050,-0.03004662585
2.20100,-0.03004662585
2.20150,1.190731005
2.20200,2.716703043
2.20250,3.327091859
2.20300,2.716703043
2.20350,2.106314228
2.20400,2.411508636
2.20450,3.021897451
2.20500,3.632286267
2.20550,3.632286267
2.20600,3.021897451
2.20650,2.106314228
2.20700,1.495925413
2.20750,1.190731005
2.20800,1.80111982
2.20850,2.411508636
2.20900,3.327091859
2.20950,3.327091859
2.21000,2.411508636
2.21050,1.190731005
2.21100,0.5803421896
2.21150,1.190731005
2.21200,2.411508636
2.21250,3.021897451
2.21300,2.106314228
2.21350,0.8855365973
2.21400,0.5803421896
2.21450,1.495925413
2.21500,1.80111982
2.21550,0.2751477819
2.21600,-0.945629849
2.21650,-1.250824257
2.21700,-0.3352410335
2.21750,-0.6404354412
2.21800,-1.861213072
2.21850,-1.861213072
2.21900,0.2751477819
2.21950,3.021897451
2.22000,3.327091859
2.22050,1.80111982
2.22100,0.2751477819
2.22150,-0.03004662585
2.22200,0.2751477819
2.22250,0.8855365973
2.22300,1.190731005
2.22350,1.495925413
2.22400,1.190731005
2.22450,0.8855365973
2.22500,0.8855365973
2.22550,1.190731005
2.22600,2.411508636
2.22650,4.242675082
2.22700,6.379035936
2.22750,7.294619159
2.22800,6.379035936
2.22850,5.158258305
2.22900,4.853063897
2.22950,4.54786949
2.23000,4.242675082
2.23050,3.632286267
2.23100,3.632286267
2.23150,3.937480674
2.23200,3.327091859
2.23250,2.106314228
2.23300,1.190731005
2.23350,0.5803421896
2.23400,-0.3352410335
2.23450,-1.250824257
2.23500,-1.250824257
2.23550,-1.250824257
2.23600,-1.861213072
2.23650,-2.776796295
2.23700,-3.387185111
2.23750,-3.387185111
2.23800,-3.997573926
2.23850,-4.913157149
2.23900,-4.302768334
2.23950,-2.776796295
2.24000,-1.556018664
2.24050,-1.861213072
2.24100,-2.776796295
2.24150,-3.387185111
2.24200,-3.692379518
2.24250,-3.387185111
2.24300,-2.776796295
2.24350,-2.471601887
2.24400,-2.776796295
2.24450,-3.692379518
2.24500,-3.387185111
2.24550,-2.776796295
2.24600,-3.081990703
2.24650,-3.997573926
2.24700,-3.997573926
2.24750,-3.387185111
2.24800,-2.471601887
2.24850,-2.471601887
2.24900,-1.861213072
2.24950,-1.556018664
2.25000,-2.16640748
2.25050,-2.776796295
2.25100,-3.081990703
2.25150,-2.776796295
2.25200,-2.776796295
2.25250,-2.776796295
2.25300,-2.776796295
2.25350,-2.471601887
2.25400,-2.16640748
2.25450,-2.16640748
2.25500,-1.556018664
2.25550,-0.3352410335
2.25600,-0.03004662585
2.25650,-0.03004662585
2.25700,-0.6404354412
2.25750,-0.3352410335
2.25800,-0.03004662585
2.25850,-0.03004662585
2.25900,-0.3352410335
2.25950,-0.945629849
2.26000,-1.861213072
2.26050,-2.16640748
2.26100,-1.556018664
2.26150,-0.945629849
2.26200,-0.945629849
2.26250,-1.556018664
2.26300,-2.16640748
2.26350,-2.16640748
2.26400,-1.861213072
2.26450,-0.945629849
2.26500,-0.03004662585
2.26550,-0.03004662585
2.26600,0.2751477819
2.26650,1.190731005
2.26700,2.716703043
2.26750,2.411508636
2.26800,0.5803421896
2.26850,-0.03004662585
2.26900,0.8855365973
2.26950,1.80111982
2.27000,0.8855365973
2.27050,-0.03004662585
2.27100,-0.03004662585
2.27150,1.190731005
2.27200,1.80111982
2.27250,1.495925413
2.27300,1.190731005
2.27350,1.495925413
2.27400,1.495925413
2.27450,0.8855365973
2.27500,1.190731005
2.27550,2.716703043
2.27600,4.242675082
2.27650,4.242675082
2.27700,3.632286267
2.27750,3.327091859
2.27800,3.327091859
2.27850,2.411508636
2.27900,1.190731005
2.27950,0.5803421896
2.28000,1.190731005
2.28050,1.80111982
2.28100,1.495925413
2.28150,1.190731005
2.28200,1.495925413
2.28250,1.495925413
2.28300,0.5803421896
2.28350,-1.250824257
2.28400,-2.471601887
2.28450,-1.556018664
2.28500,-0.3352410335
2.28550,-0.03004662585
2.28600,-0.03004662585
2.28650,0.2751477819
2.28700,0.5803421896
2.28750,-0.03004662585
2.28800,-1.250824257
2.28850,-2.471601887
2.28900,-2.776796295
2.28950,-3.081990703
2.29000,-3.081990703
2.29050,-3.081990703
2.29100,-2.471601887
2.29150,-2.16640748
2.29200,-1.861213072
2.29250,-0.945629849
2.29300,-0.03004662585
2.29350,0.5803421896
2.29400,0.8855365973
2.29450,1.495925413
2.29500,2.106314228
2.29550,2.106314228
2.29600,1.190731005
2.29650,0.8855365973
2.29700,1.190731005
2.29750,1.190731005
2.29800,0.5803421896
2.29850,-0.3352410335
2.29900,-2.16640748
2.29950,-3.997573926
2.30000,-5.828740372
2.30050,-5.828740372
2.30100,-4.302768334
2.30150,-2.16640748
2.30200,-1.250824257
2.30250,-1.250824257
2.30300,-0.945629849
2.30350,-0.3352410335
2.30400,-1.556018664
2.30450,-3.692379518
2.30500,-5.218351557
2.30550,-4.302768334
2.30600,-1.861213072
2.30650,-0.03004662585
2.30700,-0.3352410335
2.30750,-1.250824257
2.30800,-1.556018664
2.30850,-1.556018664
2.30900,-2.16640748
2.30950,-2.16640748
2.31000,-1.250824257
2.31050,-0.3352410335
2.31100,-0.945629849
2.31150,-2.471601887
2.31200,-2.776796295
2.31250,-3.081990703
2.31300,-3.997573926
2.31350,-4.913157149
2.31400,-4.913157149
2.31450,-3.081990703
2.31500,-1.556018664
2.31550,-0.945629849
2.31600,-0.3352410335
2.31650,0.5803421896
2.31700,2.106314228
2.31750,3.021897451
2.31800,3.632286267
2.31850,3.327091859
2.31900,2.716703043
2.31950,1.495925413
2.32000,0.8855365973
2.32050,0.8855365973
2.32100,0.8855365973
2.32150,0.5803421896
2.32200,0.8855365973
2.32250,2.106314228
2.32300,3.327091859
2.32350,3.327091859
2.32400,2.106314228
2.32450,1.190731005
2.32500,1.495925413
2.32550,2.106314228
2.32600,2.411508636
2.32650,2.106314228
2.32700,1.80111982
2.32750,3.021897451
2.32800,4.853063897
2.32850,5.158258305
2.32900,4.242675082
2.32950,3.632286267
2.33000,4.242675082
2.33050,5.463452713
2.33100,5.463452713
2.33150,4.853063897
2.33200,3.937480674
2.33250,3.327091859
2.33300,3.632286267
2.33350,3.632286267
2.33400,3.632286267
2.33450,3.632286267
2.33500,3.327091859
2.33550,2.411508636
2.33600,1.495925413
2.33650,0.2751477819
2.33700,0.5803421896
2.33750,2.716703043
2.33800,4.853063897
2.33850,4.853063897
2.33900,3.327091859
2.33950,2.411508636
2.34000,2.411508636
2.34050,2.411508636
2.34100,1.495925413
2.34150,1.190731005
2.34200,1.495925413
2.34250,1.80111982
2.34300,0.8855365973
2.34350,-0.03004662585
2.34400,-0.3352410335
2.34450,-0.3352410335
2.34500,-1.250824257
2.34550,-2.16640748
2.34600,-2.16640748
2.34650,-0.945629849
2.34700,0.2751477819
2.34750,0.5803421896
2.34800,0.2751477819
2.34850,-0.03004662585
2.34900,-0.03004662585
2.34950,-0.3352410335
2.35000,-0.945629849
2.35050,-1.556018664
2.35100,-1.556018664
2.35150,-1.861213072
2.35200,-3.081990703
2.35250,-3.692379518
2.35300,-3.692379518
2.35350,-2.776796295
2.35400,-1.861213072
2.35450,-1.556018664
2.35500,-0.945629849
2.35550,-0.945629849
2.35600,-0.945629849
2.35650,-0.945629849
2.35700,0.2751477819
2.35750,1.80111982
2.35800,2.106314228
2.35850,1.190731005
2.35900,0.8855365973
2.35950,1.80111982
2.36000,2.411508636
2.36050,1.190731005
2.36100,-0.6404354412
2.36150,-0.3352410335
2.36200,1.495925413
2.36250,3.021897451
2.36300,2.106314228
2.36350,-0.03004662585
2.36400,-0.3352410335
2.36450,0.8855365973
2.36500,1.80111982
2.36550,0.8855365973
2.36600,-0.3352410335
2.36650,-0.6404354412
2.36700,-0.3352410335
2.36750,-0.6404354412
2.36800,-1.861213072
2.36850,-3.692379518
2.36900,-4.607962741
2.36950,-5.218351557
2.37000,-5.828740372
2.37050,-6.744323595
2.37100,-7.659906818
2.37150,-7.965101226
2.37200,-7.049518003
2.37250,-5.523545964
2.37300,-4.607962741
2.37350,-4.913157149
2.37400,-5.218351557
2.37450,-4.302768334
2.37500,-2.776796295
2.37550,-2.16640748
2.37600,-2.776796295
2.37650,-2.471601887
2.37700,-1.861213072
2.37750,-1.861213072
2.37800,-2.16640748
2.37850,-1.556018664
2.37900,-1.250824257
2.37950,-3.081990703
2.38000,-6.744323595
2.38050,-8.575490041
2.38100,-7.354712411
2.38150,-5.218351557
2.38200,-4.302768334
2.38250,-3.692379518
2.38300,-2.471601887
2.38350,-1.250824257
2.38400,-1.556018664
2.38450,-1.250824257
2.38500,0.2751477819
2.38550,1.495925413
2.38600,0.8855365973
2.38650,-0.6404354412
2.38700,-0.945629849
2.38750,-0.6404354412
2.38800,-1.861213072
2.38850,-4.302768334
2.38900,-4.913157149
2.38950,-3.387185111
2.39000,-1.861213072
2.39050,-1.861213072
2.39100,-2.776796295
2.39150,-3.387185111
2.39200,-3.692379518
2.39250,-3.997573926
2.39300,-3.387185111
2.39350,-2.16640748
2.39400,-1.250824257
2.39450,-1.250824257
2.39500,-1.556018664
2.39550,-1.556018664
2.39600,-1.250824257
2.39650,-0.6404354412
2.39700,0.8855365973
2.39750,2.411508636
2.39800,2.411508636
2.39850,2.106314228
2.39900,2.716703043
2.39950,3.632286267
2.40000,3.021897451
2.40050,1.80111982
2.40100,2.106314228
2.40150,3.327091859
2.40200,3.632286267
2.40250,3.021897451
2.40300,2.716703043
2.40350,3.632286267
2.40400,3.937480674
2.40450,2.716703043
2.40500,1.495925413
2.40550,1.190731005
2.40600,0.8855365973
2.40650,-0.03004662585
2.40700,-0.6404354412
2.40750,-0.6404354412
2.40800,-0.3352410335
2.40850,-0.03004662585
2.40900,0.2751477819
2.40950,1.495925413
2.41000,1.495925413
2.41050,0.8855365973
2.41100,0.2751477819
2.41150,-0.03004662585
2.41200,-0.3352410335
2.41250,-1.250824257
2.41300,-0.945629849
2.41350,-0.03004662585
2.41400,0.2751477819
2.41450,-0.3352410335
2.41500,-1.556018664
2.41550,-2.471601887
2.41600,-1.556018664
2.41650,-0.03004662585
2.41700,1.80111982
2.41750,2.411508636
2.41800,1.80111982
2.41850,2.106314228
2.41900,3.327091859
2.41950,3.937480674
2.42000,2.106314228
2.42050,0.5803421896
2.42100,2.106314228
2.42150,4.54786949
2.42200,4.54786949
2.42250,3.021897451
2.42300,2.716703043
2.42350,3.632286267
2.42400,3.937480674
2.42450,2.716703043
2.42500,2.106314228
2.42550,2.716703043
2.42600,2.716703043
2.42650,1.495925413
2.42700,0.5803421896
2.42750,0.8855365973
2.42800,1.495925413
2.42850,1.190731005
2.42900,1.190731005
2.42950,2.411508636
2.43000,3.632286267
2.43050,3.327091859
2.43100,2.411508636
2.43150,2.411508636
2.43200,3.937480674
2.43250,5.158258305
2.43300,4.853063897
2.43350,3.632286267
2.43400,2.716703043
2.43450,2.411508636
2.43500,2.106314228
2.43550,1.80111982
2.43600,0.8855365973
2.43650,-0.3352410335
2.43700,-0.6404354412
2.43750,-0.03004662585
2.43800,1.495925413
2.43850,1.80111982
2.43900,0.8855365973
2.43950,-0.6404354412
2.44000,-1.861213072
2.44050,-2.16640748
2.44100,-2.16640748
2.44150,-1.556018664
2.44200,-1.250824257
2.44250,-1.250824257
2.44300,-1.250824257
2.44350,-0.03004662585
2.44400,0.8855365973
2.44450,1.190731005
2.44500,0.5803421896
2.44550,-0.03004662585
2.44600,-0.3352410335
2.44650,-0.945629849
2.44700,-1.556018664
2.44750,-1.250824257
2.44800,-0.3352410335
2.44850,-0.03004662585
2.44900,-0.6404354412
2.44950,-0.945629849
2.45000,-0.3352410335
2.45050,-0.03004662585
2.45100,-0.3352410335
2.45150,-0.6404354412
2.45200,-0.3352410335
2.45250,0.2751477819
2.45300,0.5803421896
2.45350,-0.03004662585
2.45400,-0.6404354412
2.45450,-0.6404354412
2.45500,-0.6404354412
2.45550,-1.250824257
2.45600,-1.861213072
2.45650,-2.776796295
2.45700,-3.997573926
2.45750,-4.913157149
2.45800,-4.913157149
2.45850,-4.302768334
2.45900,-4.302768334
2.45950,-4.607962741
2.46000,-3.997573926
2.46050,-2.471601887
2.46100,-1.250824257
2.46150,-1.250824257
2.46200,-1.556018664
2.46250,-1.556018664
2.46300,-1.250824257
2.46350,-1.861213072
2.46400,-2.471601887
2.46450,-2.16640748
2.46500,-1.556018664
2.46550,-1.250824257
2.46600,-1.861213072
2.46650,-1.556018664
2.46700,-0.3352410335
2.46750,-0.03004662585
2.46800,-1.250824257
2.46850,-2.471601887
2.46900,-1.861213072
2.46950,-0.6404354412
2.47000,-0.03004662585
2.47050,-0.03004662585
2.47100,-0.03004662585
2.47150,0.2751477819
2.47200,0.8855365973
2.47250,1.190731005
2.47300,1.80111982
2.47350,3.937480674
2.47400,5.76864712
2.47450,6.073841528
2.47500,4.853063897
2.47550,3.327091859
2.47600,3.021897451
2.47650,3.632286267
2.47700,3.937480674
2.47750,3.327091859
2.47800,2.106314228
2.47850,1.190731005
2.47900,0.5803421896
2.47950,0.2751477819
2.48000,0.5803421896
2.48050,1.495925413
2.48100,1.80111982
2.48150,1.495925413
2.48200,1.80111982
2.48250,2.106314228
2.48300,1.495925413
2.48350,0.5803421896
2.48400,0.2751477819
2.48450,1.495925413
2.48500,2.411508636
2.48550,2.411508636
2.48600,1.80111982
2.48650,0.8855365973
2.48700,-0.03004662585
2.48750,-0.945629849
2.48800,-1.556018664
2.48850,-1.250824257
2.48900,-0.945629849
2.48950,-0.945629849
2.49000,-2.16640748
2.49050,-3.081990703
2.49100,-3.692379518
2.49150,-3.692379518
2.49200,-2.471601887
2.49250,-1.250824257
2.49300,-0.6404354412
2.49350,-0.3352410335
2.49400,-0.03004662585
2.49450,0.8855365973
2.49500,1.190731005
2.49550,1.495925413
2.49600,2.106314228
2.49650,2.716703043
2.49700,3.632286267
2.49750,4.242675082
2.49800,4.853063897
2.49850,4.853063897
2.49900,3.632286267
2.49950,1.495925413
2.50000,-0.03004662585
2.50050,-0.03004662585
2.50100,-0.03004662585
2.50150,-0.03004662585
2.50200,0.8855365973
2.50250,2.411508636
2.50300,3.021897451
2.50350,2.411508636
2.50400,2.106314228
2.50450,1.80111982
2.50500,2.106314228
2.50550,1.495925413
2.50600,0.8855365973
2.50650,1.190731005
2.50700,2.106314228
2.50750,2.716703043
2.50800,1.80111982
2.50850,0.5803421896
2.50900,0.2751477819
2.50950,0.8855365973
2.51000,1.80111982
2.51050,1.190731005
2.51100,-0.6404354412
2.51150,-1.861213072
2.51200,-1.861213072
2.51250,-0.6404354412
2.51300,-0.03004662585
2.51350,-0.03004662585
2.51400,0.5803421896
2.51450,1.80111982
2.51500,2.716703043
2.51550,2.106314228
2.51600,0.8855365973
2.51650,0.2751477819
2.51700,-0.03004662585
2.51750,-0.03004662585
2.51800,-1.250824257
2.51850,-2.471601887
2.51900,-2.16640748
2.51950,-0.6404354412
2.52000,-0.03004662585
2.52050,-0.03004662585
2.52100,-0.03004662585
2.52150,0.8855365973
2.52200,2.106314228
2.52250,1.495925413
2.52300,-0.03004662585
2.52350,-0.945629849
2.52400,-0.945629849
2.52450,-0.03004662585
2.52500,0.5803421896
2.52550,0.2751477819
2.52600,0.2751477819
2.52650,1.190731005
2.52700,2.716703043
2.52750,3.021897451
2.52800,2.106314228
2.52850,1.495925413
2.52900,2.106314228
2.52950,2.411508636
2.53000,1.495925413
2.53050,0.2751477819
2.53100,-0.03004662585
2.53150,0.2751477819
2.53200,0.2751477819
2.53250,-0.03004662585
2.53300,-0.6404354412
2.53350,-1.250824257
2.53400,-1.861213072
2.53450,-1.861213072
2.53500,-0.3352410335
2.53550,1.190731005
2.53600,1.495925413
2.53650,0.5803421896
2.53700,-0.03004662585
2.53750,-0.3352410335
2.53800,-1.250824257
2.53850,-2.776796295
2.53900,-4.302768334
2.53950,-4.913157149
2.54000,-5.218351557
2.54050,-5.828740372
2.54100,-7.049518003
2.54150,-7.659906818
2.54200,-7.659906818
2.54250,-7.354712411
2.54300,-7.354712411
2.54350,-7.049518003
2.54400,-5.828740372
2.54450,-4.302768334
2.54500,-2.16640748
2.54550,-1.250824257
2.54600,-1.250824257
2.54650,-0.6404354412
2.54700,-0.03004662585
2.54750,-0.03004662585
2.54800,-2.16640748
2.54850,-4.302768334
2.54900,-4.913157149
2.54950,-3.692379518
2.55000,-1.861213072
2.55050,-1.250824257
2.55100,-1.250824257
2.55150,-0.945629849
2.55200,-0.03004662585
2.55250,0.2751477819
2.55300,0.2751477819
2.55350,-0.03004662585
2.55400,-0.3352410335
2.55450,-0.03004662585
2.55500,-0.03004662585
2.55550,-0.3352410335
2.55600,-1.250824257
2.55650,-1.556018664
2.55700,-0.6404354412
2.55750,0.2751477819
2.55800,0.5803421896
2.55850,0.2751477819
2.55900,0.2751477819
2.55950,-0.03004662585
2.56000,-0.03004662585
2.56050,0.2751477819
2.56100,1.190731005
2.56150,1.495925413
2.56200,0.2751477819
2.56250,-1.556018664
2.56300,-2.16640748
2.56350,-1.250824257
2.56400,-0.03004662585
2.56450,-0.3352410335
2.56500,-0.945629849
2.56550,-0.945629849
2.56600,-0.945629849
2.56650,-1.556018664
2.56700,-1.861213072
2.56750,-0.6404354412
2.56800,0.5803421896
2.56850,1.190731005
2.56900,1.80111982
2.56950,3.632286267
2.57000,5.76864712
2.57050,6.073841528
2.57100,4.242675082
2.57150,3.021897451
2.57200,3.937480674
2.57250,5.158258305
2.57300,5.158258305
2.57350,3.327091859
2.57400,1.80111982
2.57450,1.190731005
2.57500,0.5803421896
2.57550,0.5803421896
2.57600,0.8855365973
2.57650,1.495925413
2.57700,2.106314228
2.57750,2.716703043
2.57800,3.327091859
2.57850,3.327091859
2.57900,3.327091859
2.57950,3.632286267
2.58000,3.327091859
2.58050,1.80111982
2.58100,0.5803421896
2.58150,0.8855365973
2.58200,2.106314228
2.58250,1.80111982
2.58300,0.5803421896
2.58350,0.2751477819
2.58400,1.190731005
2.58450,1.80111982
2.58500,0.8855365973
2.58550,-0.03004662585
2.58600,-0.3352410335
2.58650,-0.03004662585
2.58700,0.5803421896
2.58750,1.190731005
2.58800,0.8855365973
2.58850,0.2751477819
2.58900,-0.3352410335
2.58950,-0.945629849
2.59000,-0.6404354412
2.59050,-0.3352410335
2.59100,-0.03004662585
2.59150,1.495925413
2.59200,3.327091859
2.59250,3.327091859
2.59300,1.495925413
2.59350,0.2751477819
2.59400,0.2751477819
2.59450,0.5803421896
2.59500,-0.03004662585
2.59550,-1.556018664
2.59600,-1.861213072
2.59650,-1.861213072
2.59700,-2.471601887
2.59750,-3.081990703
2.59800,-2.16640748
2.59850,-0.6404354412
2.59900,0.2751477819
2.59950,0.8855365973
2.60000,1.190731005
2.60050,0.8855365973
2.60100,-0.03004662585
2.60150,-0.945629849
2.60200,-1.861213072
2.60250,-2.776796295
2.60300,-3.387185111
2.60350,-3.081990703
2.60400,-1.556018664
2.60450,-0.3352410335
2.60500,-1.250824257
2.60550,-3.081990703
2.60600,-3.387185111
2.60650,-2.471601887
2.60700,-2.16640748
2.60750,-2.16640748
2.60800,-2.16640748
2.60850,-1.861213072
2.60900,-2.16640748
2.60950,-2.471601887
2.61000,-1.556018664
2.61050,-0.945629849
2.61100,-0.945629849
2.61150,-1.556018664
2.61200,-1.250824257
2.61250,-0.3352410335
2.61300,-0.03004662585
2.61350,0.2751477819
2.61400,2.411508636
2.61450,4.54786949
2.61500,4.242675082
2.61550,2.106314228
2.61600,1.190731005
2.61650,2.411508636
2.61700,3.632286267
2.61750,3.327091859
2.61800,3.021897451
2.61850,3.937480674
2.61900,4.853063897
2.61950,4.242675082
2.62000,3.327091859
2.62050,2.716703043
2.62100,2.106314228
2.62150,0.8855365973
2.62200,0.5803421896
2.62250,1.495925413
2.62300,1.495925413
2.62350,-0.03004662585
2.62400,-2.471601887
2.62450,-3.387185111
2.62500,-3.081990703
2.62550,-3.997573926
2.62600,-5.828740372
2.62650,-6.13393478
2.62700,-4.302768334
2.62750,-2.16640748
2.62800,-1.250824257
2.62850,-1.861213072
2.62900,-1.556018664
2.62950,-0.945629849
2.63000,-0.03004662585
2.63050,0.5803421896
2.63100,0.2751477819
2.63150,-0.945629849
2.63200,-2.471601887
2.63250,-3.387185111
2.63300,-3.081990703
2.63350,-2.776796295
2.63400,-2.776796295
2.63450,-2.776796295
2.63500,-1.861213072
2.63550,-0.03004662585
2.63600,1.190731005
2.63650,1.190731005
2.63700,-0.03004662585
2.63750,-1.250824257
2.63800,-0.6404354412
2.63850,0.8855365973
2.63900,1.190731005
2.63950,-0.6404354412
2.64000,-2.471601887
2.64050,-2.471601887
2.64100,-0.6404354412
2.64150,0.2751477819
2.64200,-0.03004662585
2.64250,-0.6404354412
2.64300,-0.945629849
2.64350,-0.945629849
2.64400,-1.250824257
2.64450,-1.250824257
2.64500,-0.945629849
2.64550,-1.250824257
2.64600,-2.16640748
2.64650,-2.471601887
2.64700,-1.556018664
2.64750,-0.3352410335
2.64800,0.8855365973
2.64850,2.106314228
2.64900,3.021897451
2.64950,3.632286267
2.65000,4.242675082
2.65050,4.54786949
2.65100,3.937480674
2.65150,2.411508636
2.65200,0.8855365973
2.65250,-0.03004662585
2.65300,-1.250824257
2.65350,-1.861213072
2.65400,-1.861213072
2.65450,-0.945629849
2.65500,-0.3352410335
2.65550,-0.6404354412
2.65600,-1.250824257
2.65650,-0.945629849
2.65700,-0.945629849
2.65750,-1.861213072
2.65800,-2.776796295
2.65850,-2.471601887
2.65900,-1.556018664
2.65950,-1.861213072
2.66000,-3.387185111
2.66050,-4.302768334
2.66100,-3.387185111
2.66150,-2.16640748
2.66200,-1.556018664
2.66250,-1.250824257
2.66300,-0.6404354412
2.66350,-0.03004662585
2.66400,0.2751477819
2.66450,-0.03004662585
2.66500,-0.03004662585
2.66550,-0.03004662585
2.66600,0.5803421896
2.66650,1.80111982
2.66700,2.716703043
2.66750,3.021897451
2.66800,3.021897451
2.66850,3.632286267
2.66900,5.158258305
2.66950,6.989424751
2.67000,8.51539679
2.67050,9.125785605
2.67100,9.125785605
2.67150,8.210202382
2.67200,6.989424751
2.67250,5.76864712
2.67300,5.463452713
2.67350,6.684230344
2.67400,9.430980013
2.67450,11.26214646
2.67500,11.26214646
2.67550,9.125785605
2.67600,6.379035936
2.67650,4.242675082
2.67700,2.716703043
2.67750,1.190731005
2.67800,-0.03004662585
2.67850,-0.945629849
2.67900,-2.776796295
2.67950,-4.607962741
2.68000,-6.13393478
2.68050,-7.659906818
2.68100,-7.965101226
2.68150,-7.354712411
2.68200,-7.049518003
2.68250,-7.659906818
2.68300,-9.491073265
2.68350,-12.54301734
2.68400,-15.28976701
2.68450,-17.42612786
2.68500,-18.6469055
2.68550,-18.03651668
2.68600,-16.81573905
2.68650,-15.90015583
2.68700,-14.6793782
2.68750,-12.54301734
2.68800,-10.7118509
2.68850,-10.10146208
2.68900,-9.796267672
2.68950,-8.880684449
2.69000,-8.575490041
2.69050,-8.880684449
2.69100,-9.491073265
2.69150,-8.270295634
2.69200,-6.13393478
2.69250,-5.523545964
2.69300,-6.439129188
2.69350,-6.744323595
2.69400,-5.828740372
2.69450,-4.913157149
2.69500,-5.218351557
2.69550,-5.523545964
2.69600,-4.607962741
2.69650,-3.387185111
2.69700,-2.16640748
2.69750,-1.250824257
2.69800,-0.03004662585
2.69850,0.2751477819
2.69900,0.2751477819
2.69950,0.5803421896
2.70000,1.190731005
2.70050,1.495925413
2.70100,1.495925413
2.70150,2.106314228
2.70200,3.327091859
2.70250,3.937480674
2.70300,2.716703043
2.70350,1.80111982
2.70400,2.411508636
2.70450,3.327091859
2.70500,2.411508636
2.70550,0.8855365973
2.70600,0.5803421896
2.70650,0.8855365973
2.70700,1.190731005
2.70750,1.190731005
2.70800,2.106314228
2.70850,3.021897451
2.70900,2.411508636
2.70950,-0.03004662585
2.71000,-0.3352410335
2.71050,0.8855365973
2.71100,2.411508636
2.71150,2.716703043
2.71200,2.411508636
2.71250,2.411508636
2.71300,2.716703043
2.71350,2.106314228
2.71400,1.190731005
2.71450,0.2751477819
2.71500,0.5803421896
2.71550,1.495925413
2.71600,3.021897451
2.71650,3.937480674
2.71700,3.937480674
2.71750,3.937480674
2.71800,4.54786949
2.71850,4.54786949
2.71900,3.937480674
2.71950,3.327091859
2.72000,4.54786949
2.72050,6.379035936
2.72100,6.379035936
2.72150,4.54786949
2.72200,3.632286267
2.72250,3.327091859
2.72300,2.411508636
2.72350,1.190731005
2.72400,1.80111982
2.72450,3.632286267
2.72500,4.54786949
2.72550,3.632286267
2.72600,3.937480674
2.72650,6.073841528
2.72700,6.989424751
2.72750,4.54786949
2.72800,1.495925413
2.72850,0.8855365973
2.72900,2.716703043
2.72950,3.937480674
2.73000,3.327091859
2.73050,3.021897451
2.73100,3.327091859
2.73150,3.937480674
2.73200,4.242675082
2.73250,3.937480674
2.73300,3.632286267
2.73350,3.937480674
2.73400,4.853063897
2.73450,5.463452713
2.73500,4.54786949
2.73550,2.411508636
2.73600,0.8855365973
2.73650,0.5803421896
2.73700,1.190731005
2.73750,1.190731005
2.73800,0.8855365973
2.73850,1.495925413
2.73900,2.716703043
2.73950,3.327091859
2.74000,3.021897451
2.74050,2.106314228
2.74100,2.106314228
2.74150,3.632286267
2.74200,5.463452713
2.74250,6.379035936
2.74300,5.76864712
2.74350,4.54786949
2.74400,4.242675082
2.74450,5.158258305
2.74500,6.684230344
2.74550,6.684230344
2.74600,5.76864712
2.74650,5.158258305
2.74700,5.76864712
2.74750,6.684230344
2.74800,6.684230344
2.74850,6.073841528
2.74900,5.158258305
2.74950,3.937480674
2.75000,3.327091859
2.75050,3.021897451
2.75100,3.327091859
2.75150,2.716703043
2.75200,1.495925413
2.75250,1.80111982
2.75300,3.021897451
2.75350,4.242675082
2.75400,3.327091859
2.75450,1.190731005
2.75500,-0.3352410335
2.75550,-1.556018664
2.75600,-2.471601887
2.75650,-2.776796295
2.75700,-2.776796295
2.75750,-1.861213072
2.75800,-1.250824257
2.75850,-0.945629849
2.75900,-0.945629849
2.75950,-1.250824257
2.76000,-1.250824257
2.76050,-0.03004662585
2.76100,1.190731005
2.76150,1.495925413
2.76200,0.2751477819
2.76250,-0.3352410335
2.76300,-0.3352410335
2.76350,-0.03004662585
2.76400,-1.556018664
2.76450,-3.081990703
2.76500,-2.776796295
2.76550,-0.6404354412
2.76600,0.2751477819
2.76650,-0.6404354412
2.76700,-2.16640748
2.76750,-1.556018664
2.76800,0.2751477819
2.76850,1.495925413
2.76900,1.495925413
2.76950,0.5803421896
2.77000,-0.03004662585
2.77050,-0.03004662585
2.77100,-0.03004662585
2.77150,-0.3352410335
2.77200,-1.861213072
2.77250,-3.997573926
2.77300,-6.744323595
2.77350,-9.185878857
2.77400,-10.7118509
2.77450,-10.7118509
2.77500,-10.7118509
2.77550,-11.32223971
2.77600,-12.23782293
2.77650,-12.54301734
2.77700,-11.62743412
2.77750,-10.10146208
2.77800,-9.185878857
2.77850,-8.575490041
2.77900,-7.659906818
2.77950,-6.439129188
2.78000,-4.607962741
2.78050,-3.387185111
2.78100,-2.776796295
2.78150,-3.081990703
2.78200,-3.387185111
2.78250,-2.471601887
2.78300,-0.03004662585
2.78350,2.716703043
2.78400,6.073841528
2.78450,8.820591197
2.78500,10.65175764
2.78550,11.26214646
2.78600,10.95695205
2.78650,9.736174421
2.78700,9.125785605
2.78750,9.125785605
2.78800,9.125785605
2.78850,8.51539679
2.78900,7.294619159
2.78950,6.379035936
2.79000,6.989424751
2.79050,6.989424751
2.79100,5.463452713
2.79150,2.716703043
2.79200,0.8855365973
2.79250,0.8855365973
2.79300,0.5803421896
2.79350,-0.03004662585
2.79400,-1.861213072
2.79450,-2.471601887
2.79500,-2.471601887
2.79550,-3.081990703
2.79600,-3.997573926
2.79650,-5.218351557
2.79700,-6.744323595
2.79750,-8.575490041
2.79800,-10.10146208
2.79850,-11.0170453
2.79900,-11.93262853
2.79950,-14.37418379
2.80000,-17.73132227
2.80050,-20.78326635
2.80100,-22.6144328
2.80150,-22.30923839
2.80200,-20.17287753
2.80250,-17.12093346
2.80300,-14.37418379
2.80350,-12.84821175
2.80400,-11.0170453
2.80450,-8.270295634
2.80500,-5.523545964
2.80550,-3.997573926
2.80600,-4.302768334
2.80650,-4.913157149
2.80700,-4.302768334
2.80750,-2.776796295
2.80800,-2.16640748
2.80850,-1.556018664
2.80900,-0.945629849
2.80950,-0.03004662585
2.81000,-0.03004662585
2.81050,-0.03004662585
2.81100,-0.03004662585
2.81150,0.5803421896
2.81200,1.190731005
2.81250,0.5803421896
2.81300,-0.03004662585
2.81350,-0.03004662585
2.81400,-0.03004662585
2.81450,-0.6404354412
2.81500,-2.16640748
2.81550,-2.471601887
2.81600,-1.556018664
2.81650,-0.3352410335
2.81700,-0.03004662585
2.81750,-0.3352410335
2.81800,-0.945629849
2.81850,-1.250824257
2.81900,-0.945629849
2.81950,-0.03004662585
2.82000,0.8855365973
2.82050,1.495925413
2.82100,2.106314228
2.82150,3.021897451
2.82200,3.632286267
2.82250,3.632286267
2.82300,3.632286267
2.82350,4.242675082
2.82400,5.463452713
2.82450,6.684230344
2.82500,6.989424751
2.82550,6.379035936
2.82600,5.76864712
2.82650,5.158258305
2.82700,4.54786949
2.82750,4.242675082
2.82800,4.242675082
2.82850,4.54786949
2.82900,4.853063897
2.82950,5.158258305
2.83000,4.242675082
2.83050,2.411508636
2.83100,0.5803421896
2.83150,-0.03004662585
2.83200,-0.03004662585
2.83250,-0.03004662585
2.83300,0.8855365973
2.83350,2.411508636
2.83400,3.937480674
2.83450,4.242675082
2.83500,3.632286267
2.83550,2.716703043
2.83600,1.80111982
2.83650,0.8855365973
2.83700,-0.03004662585
2.83750,-0.3352410335
2.83800,-0.03004662585
2.83850,-0.03004662585
2.83900,-0.3352410335
2.83950,-0.945629849
2.84000,-0.6404354412
2.84050,0.2751477819
2.84100,1.190731005
2.84150,1.80111982
2.84200,1.190731005
2.84250,0.2751477819
2.84300,-0.03004662585
2.84350,0.8855365973
2.84400,2.716703043
2.84450,3.937480674
2.84500,4.242675082
2.84550,3.937480674
2.84600,3.937480674
2.84650,4.242675082
2.84700,3.937480674
2.84750,3.327091859
2.84800,3.021897451
2.84850,3.327091859
2.84900,3.937480674
2.84950,4.54786949
2.85000,5.463452713
2.85050,6.379035936
2.85100,6.684230344
2.85150,6.684230344
2.85200,6.379035936
2.85250,6.073841528
2.85300,5.76864712
2.85350,5.463452713
2.85400,5.463452713
2.85450,5.158258305
2.85500,4.242675082
2.85550,2.411508636
2.85600,0.8855365973
2.85650,0.5803421896
2.85700,1.80111982
2.85750,3.327091859
2.85800,3.632286267
2.85850,2.716703043
2.85900,1.190731005
2.85950,0.2751477819
2.86000,0.5803421896
2.86050,0.8855365973
2.86100,1.190731005
2.86150,1.495925413
2.86200,1.80111982
2.86250,1.80111982
2.86300,1.190731005
2.86350,0.8855365973
2.86400,1.495925413
2.86450,2.716703043
2.86500,3.327091859
2.86550,3.021897451
2.86600,2.716703043
2.86650,2.106314228
2.86700,0.8855365973
2.86750,0.2751477819
2.86800,0.5803421896
2.86850,1.495925413
2.86900,1.190731005
2.86950,-0.03004662585
2.87000,-0.03004662585
2.87050,0.8855365973
2.87100,1.80111982
2.87150,1.495925413
2.87200,0.5803421896
2.87250,0.5803421896
2.87300,1.190731005
2.87350,1.495925413
2.87400,1.80111982
2.87450,2.411508636
2.87500,2.716703043
2.87550,0.5803421896
2.87600,-2.16640748
2.87650,-3.997573926
2.87700,-3.997573926
2.87750,-3.692379518
2.87800,-4.302768334
2.87850,-5.218351557
2.87900,-5.218351557
2.87950,-4.607962741
2.88000,-3.997573926
2.88050,-3.692379518
2.88100,-2.471601887
2.88150,-0.3352410335
2.88200,0.8855365973
2.88250,0.2751477819
2.88300,-2.16640748
2.88350,-3.997573926
