type,name,time_units,begin_time,frequency,count,units
signal_4d,"Noraxon MyoMotion-Segments-Upper arm RT-Orientation","s",0.0000,200,5728,""

time,x,y,z,w
0.0000,0.6768791553,-0.06920756726,-0.1045792665,0.725333095
0.0050,0.6768849021,-0.06910460306,-0.1045074247,0.7253479037
0.0100,0.676890638,-0.0690016378,-0.1044355812,0.7253627007
0.0150,0.6768963631,-0.06889867147,-0.104363736,0.7253774861
0.0200,0.676902093,-0.06878860669,-0.1042868878,0.7253936373
0.0250,0.6769076931,-0.0686723499,-0.1042055987,0.7254111087
0.0300,0.6769130202,-0.06855094025,-0.104120502,0.7254298399
0.0350,0.6769179321,-0.06842550546,-0.1040322803,0.7254497557
0.0400,0.6769222962,-0.06829722104,-0.1039416433,0.7254707639
0.0450,0.6769259968,-0.06816727166,-0.103849313,0.7254927554
0.0500,0.6769289399,-0.06803682267,-0.1037560195,0.7255156025
0.0550,0.6769310549,-0.067907003,-0.103662503,0.725539159
0.0600,0.676932296,-0.06777889209,-0.1035695175,0.7255632595
0.0650,0.6769326409,-0.06765350534,-0.103477827,0.7255877219
0.0700,0.6769320878,-0.06753177716,-0.1033881988,0.7256123538
0.0750,0.6769306502,-0.06741454864,-0.1033013958,0.7256369582
0.0800,0.6769283543,-0.06730256446,-0.1032181689,0.725661338
0.0850,0.6769252362,-0.06719647381,-0.1031392453,0.7256853
0.0900,0.6769213379,-0.06709683443,-0.1030653157,0.7257086591
0.0950,0.6769167046,-0.0670041195,-0.1029970192,0.725731243
0.1000,0.6769113832,-0.06691872292,-0.1029349251,0.7257528953
0.1050,0.676905421,-0.06684096575,-0.10287952,0.7257734775
0.1100,0.6768988648,-0.06677110658,-0.1028312,0.7257928702
0.1150,0.6768917567,-0.06670934897,-0.102790266,0.7258109765
0.1200,0.6768841291,-0.06665584066,-0.1027569224,0.7258277272
0.1250,0.6768760012,-0.06661066884,-0.1027312769,0.725843084
0.1300,0.6768673816,-0.06657385656,-0.1027133389,0.7258570378
0.1350,0.6768582718,-0.06654535888,-0.1027030213,0.7258696057
0.1400,0.6768486664,-0.06652505892,-0.102700148,0.7258808297
0.1450,0.6768385549,-0.06651276237,-0.1027044591,0.7258907749
0.1500,0.676827927,-0.06650818536,-0.1027156131,0.7258995256
0.1550,0.6768046,-0.06644079331,-0.1027080841,0.7259285115
0.1600,0.6767801742,-0.06638169581,-0.1027092607,0.7259565235
0.1650,0.6767553475,-0.06633097074,-0.1027172375,0.7259831755
0.1700,0.6767292826,-0.06628728479,-0.1027319126,0.7260093857
0.1750,0.6767025338,-0.06625116741,-0.1027520349,0.726034767
0.1800,0.6766740131,-0.06622120966,-0.102778884,0.7260602815
0.1850,0.676645171,-0.06619565755,-0.1028107195,0.7260849836
0.1900,0.6766152684,-0.06617535533,-0.1028458727,0.7261097214
0.1950,0.6765846228,-0.06615795193,-0.1028845393,0.7261343851
0.2000,0.6765534857,-0.06614177908,-0.1029254292,0.7261590749
0.2050,0.6765224001,-0.06612679986,-0.1029680147,0.7261833628
0.2100,0.6764913204,-0.06611098314,-0.1030109055,0.7262076732
0.2150,0.6764604271,-0.06609567091,-0.1030550386,0.7262315829
0.2200,0.6764307915,-0.06607979114,-0.103099305,0.7262543486
0.2250,0.6764017559,-0.06606146962,-0.103143032,0.7262768493
0.2300,0.6763734224,-0.06604180804,-0.1031857381,0.7262989581
0.2350,0.6763458628,-0.0660205826,-0.1032270226,0.7263206856
0.2400,0.6763198006,-0.06599695165,-0.1032652592,0.7263416661
0.2450,0.6762942215,-0.06597087499,-0.103301479,0.7263627015
0.2500,0.67626981,-0.06594169443,-0.1033342648,0.7263834158
0.2550,0.676247124,-0.0659087646,-0.1033645095,0.7264032215
0.2600,0.676224708,-0.06587384778,-0.1033918976,0.7264233587
0.2650,0.6762042235,-0.06583556462,-0.1034155626,0.726442529
0.2700,0.6761852192,-0.06579485613,-0.1034356128,0.7264610521
0.2750,0.6761666123,-0.06575079834,-0.1034534887,0.7264798144
0.2800,0.6761492858,-0.06570486131,-0.1034682518,0.7264979941
0.2850,0.6761324184,-0.06565609619,-0.1034799934,0.7265164285
0.2900,0.6761154857,-0.06560545211,-0.1034889345,0.7265354878
0.2950,0.6760979422,-0.06555384972,-0.1034953076,0.7265555634
0.3000,0.6760799779,-0.06550079559,-0.1034995242,0.7265764638
0.3050,0.6760614184,-0.06544645059,-0.103501885,0.7265982938
0.3100,0.6760433499,-0.06539087007,-0.1035022214,0.7266200611
0.3150,0.6760247881,-0.065333355,-0.1034990894,0.7266429502
0.3200,0.6760065699,-0.0652739526,-0.1034936082,0.7266660179
0.3250,0.6759865818,-0.06521385793,-0.1034867393,0.7266909857
0.3300,0.6759671782,-0.06515276503,-0.103477679,0.7267158049
0.3350,0.6759475507,-0.0650892876,-0.1034662348,0.7267413787
0.3400,0.6759279656,-0.06502507597,-0.1034530855,0.7267672144
0.3450,0.6759077567,-0.06495880441,-0.1034357599,0.7267944013
0.3500,0.6758885631,-0.06489030159,-0.1034153196,0.7268212783
0.3550,0.6758704888,-0.06482038701,-0.1033931076,0.7268474841
0.3600,0.6758529687,-0.06474843964,-0.1033680864,0.7268737462
0.3650,0.6758363248,-0.06467583531,-0.1033386787,0.7268998665
0.3700,0.6758207587,-0.06460242904,-0.103305533,0.7269255774
0.3750,0.6758049172,-0.064527602,-0.1032696135,0.7269520544
0.3800,0.6757896886,-0.06445181824,-0.1032302759,0.7269785211
0.3850,0.6757748959,-0.06437497563,-0.1031866143,0.7270052787
0.3900,0.6757607327,-0.06429537378,-0.1031393831,0.7270321896
0.3950,0.6757465649,-0.06421497009,-0.103089839,0.7270594905
0.4000,0.675732798,-0.06413434405,-0.1030380261,0.7270867464
0.4050,0.675720314,-0.06405256774,-0.1029834128,0.7271132941
0.4100,0.675707973,-0.06396895605,-0.1029279102,0.7271399818
0.4150,0.6756956396,-0.06388496489,-0.1028707052,0.7271669217
0.4200,0.6756833722,-0.06380057433,-0.1028118189,0.7271940574
0.4250,0.6756704986,-0.06371575208,-0.1027511262,0.7272220337
0.4300,0.6756587719,-0.06363118283,-0.1026883444,0.7272492011
0.4350,0.6756471842,-0.06354631002,-0.1026255037,0.7272762576
0.4400,0.6756358591,-0.0634618362,-0.1025612626,0.7273032165
0.4450,0.6756255961,-0.06337846003,-0.1024967127,0.7273291199
0.4500,0.6756160972,-0.06329352879,-0.1024327375,0.7273543516
0.4550,0.675608189,-0.06320903256,-0.1023683688,0.7273781068
0.4600,0.6756021145,-0.06312392749,-0.1023039637,0.7274002005
0.4650,0.6755979529,-0.06303903063,-0.102238473,0.7274206357
0.4700,0.6755949722,-0.06295441603,-0.1021744347,0.7274397294
0.4750,0.6755941257,-0.06287038769,-0.1021103361,0.7274567829
0.4800,0.6755963218,-0.0627863837,-0.102046251,0.7274709909
0.4850,0.675601206,-0.06270479257,-0.1019827011,0.7274824039
0.4900,0.6756083975,-0.06262311148,-0.1019217692,0.7274913003
0.4950,0.6756185812,-0.0625429585,-0.1018620998,0.7274970953
0.5000,0.6756309965,-0.06246564576,-0.1018055956,0.7275001171
0.5050,0.6756450371,-0.06239080529,-0.1017527662,0.7275008906
0.5100,0.6756611561,-0.06232001543,-0.1017043356,0.7274987601
0.5150,0.6756786792,-0.06225095362,-0.1016591592,0.7274947124
0.5200,0.6756969806,-0.06218463284,-0.1016174943,0.7274892073
0.5250,0.6757158126,-0.06212134183,-0.1015795652,0.72748242
0.5300,0.6757349432,-0.062061326,-0.1015454662,0.7274745333
0.5350,0.6757550233,-0.06200397563,-0.1015146471,0.7274650726
0.5400,0.6757741288,-0.06194818219,-0.1014879613,0.7274558016
0.5450,0.6757939643,-0.06189598315,-0.1014655181,0.727444949
0.5500,0.6758130887,-0.06184663226,-0.1014457795,0.7274341324
0.5550,0.6758324941,-0.06179999524,-0.1014268833,0.7274227023
0.5600,0.6758525612,-0.06175564118,-0.1014096793,0.7274102235
0.5650,0.6758728513,-0.06171331957,-0.1013938844,0.7273971647
0.5700,0.6758932913,-0.06167406066,-0.1013776926,0.7273837587
0.5750,0.6759142192,-0.06163721558,-0.101360848,0.7273697824
0.5800,0.6759353258,-0.06160225975,-0.1013428015,0.7273556445
0.5850,0.6759577968,-0.06156970118,-0.1013211519,0.7273405344
0.5900,0.6759820765,-0.06153757458,-0.1012954724,0.727324265
0.5950,0.676007685,-0.06150588875,-0.1012658832,0.7273072641
0.6000,0.6760343301,-0.06147388864,-0.1012296754,0.7272902435
0.6050,0.6760626559,-0.06144242306,-0.1011873739,0.7272724588
0.6100,0.6760911865,-0.06141022429,-0.1011383974,0.7272554685
0.6150,0.6761207288,-0.06137763582,-0.1010827911,0.7272384858
0.6200,0.6761505648,-0.06134337497,-0.1010182325,0.7272226075
0.6250,0.6761822396,-0.06130689094,-0.100944575,0.7272064609
0.6300,0.6762149737,-0.06126868472,-0.1008619412,0.7271907084
0.6350,0.6762487182,-0.06122940829,-0.1007707791,0.7271752751
0.6400,0.6762835879,-0.06118670935,-0.1006703427,0.727160352
0.6450,0.6763205756,-0.06114199954,-0.1005616711,0.7271447485
0.6500,0.6763582635,-0.06109558153,-0.1004446004,0.7271297762
0.6550,0.6763961823,-0.06104623234,-0.1003179485,0.7271161333
0.6600,0.6764350006,-0.06099434284,-0.1001846481,0.727102755
0.6650,0.6764749199,-0.06094127794,-0.1000446938,0.7270893361
0.6700,0.676516022,-0.06088544576,-0.09989830735,0.7270758988
0.6750,0.6765581073,-0.06082772406,-0.09974571116,0.7270625204
0.6800,0.6766003956,-0.06076895974,-0.09958788686,0.727049717
0.6850,0.6766437893,-0.06071009383,-0.09942706012,0.7270362622
0.6900,0.6766872722,-0.06065364131,-0.09926354527,0.727022847
0.6950,0.6767312396,-0.06059798899,-0.09909807384,0.7270091367
0.7000,0.6767749639,-0.06054552728,-0.09893261075,0.726995341
0.7050,0.6768173305,-0.0604967094,-0.09876898634,0.7269822121
0.7100,0.6768585352,-0.06045332389,-0.09860630258,0.7269695427
0.7150,0.6768989195,-0.06041462875,-0.09844591132,0.7269568955
0.7200,0.6769387342,-0.06038199269,-0.09828969168,0.7269436715
0.7250,0.6769765813,-0.06035541895,-0.09813820721,0.7269311
0.7300,0.6770132185,-0.06033576441,-0.09799243658,0.726918276
0.7350,0.677048833,-0.06032251231,-0.09785079764,0.7269052852
0.7400,0.6770821535,-0.06031554013,-0.09771488983,0.72689311
0.7450,0.6771124374,-0.06031388785,-0.09758402165,0.7268826183
0.7500,0.6771399792,-0.06031777903,-0.09745829915,0.7268735062
0.7550,0.6771646511,-0.06032737124,-0.09733825929,0.7268658108
0.7600,0.6771872572,-0.06034076329,-0.09722313913,0.7268590456
0.7650,0.6772075601,-0.06035558272,-0.09711393403,0.7268534983
0.7700,0.6772265261,-0.06037227466,-0.09700805425,0.7268485799
0.7750,0.677243212,-0.06038967478,-0.09690610079,0.7268451875
0.7800,0.6772573259,-0.0604058745,-0.09680727882,0.7268438592
0.7850,0.6772684421,-0.06041840708,-0.09671142556,0.7268452198
0.7900,0.6772773883,-0.06042762754,-0.09661788472,0.7268485574
0.7950,0.6772839184,-0.06043233002,-0.09652502189,0.7268544197
0.8000,0.6772887744,-0.06043020565,-0.09643214859,0.726862399
0.8050,0.6772917739,-0.06042104337,-0.0963390821,0.7268727067
0.8100,0.6772926104,-0.06040511288,-0.09624479877,0.7268857413
0.8150,0.6772911792,-0.06038184707,-0.09615064934,0.7269014677
0.8200,0.6772881852,-0.06035210738,-0.09605600341,0.7269192401
0.8250,0.6772831776,-0.0603158028,-0.09596070345,0.7269395055
0.8300,0.6772766968,-0.06027292345,-0.09586563844,0.7269616427
0.8350,0.6772675399,-0.06022420281,-0.09576909983,0.7269869355
0.8400,0.6772574121,-0.06017034614,-0.09567241124,0.7270135603
0.8450,0.677245771,-0.06011237885,-0.09557339471,0.7270422228
0.8500,0.6772325869,-0.06005054508,-0.09547306331,0.7270727952
0.8550,0.6772174085,-0.05998647717,-0.09537093129,0.7271056248
0.8600,0.6772008802,-0.05991835706,-0.09526690126,0.7271402725
0.8650,0.6771825241,-0.05984735925,-0.09515917364,0.7271773197
0.8700,0.6771634544,-0.0597729946,-0.09504723705,0.7272158331
0.8750,0.6771423688,-0.05969406632,-0.09493085077,0.7272571515
0.8800,0.6771207963,-0.05961089319,-0.09480757921,0.7273001385
0.8850,0.6770990574,-0.05952250894,-0.09468073817,0.7273441381
0.8900,0.6770764403,-0.05942989645,-0.094549079,0.7273898907
0.8950,0.6770545431,-0.05933193389,-0.09441130819,0.7274361636
0.9000,0.6770334932,-0.05922839006,-0.09426955236,0.727482576
0.9050,0.6770137765,-0.05911960983,-0.09412393108,0.7275286274
0.9100,0.6769951545,-0.05900617768,-0.09397442297,0.7275744908
0.9150,0.6769772605,-0.05888704797,-0.09382110751,0.727620577
0.9200,0.6769608633,-0.05876360946,-0.09366652402,0.7276657269
0.9250,0.6769457796,-0.05863712761,-0.09351004058,0.7277100873
0.9300,0.6769306357,-0.05850688563,-0.09335292294,0.7277548286
0.9350,0.6769161836,-0.05837415676,-0.09319541999,0.7277991151
0.9400,0.6769021906,-0.05824043044,-0.09303888062,0.7278428699
0.9450,0.6768881126,-0.05810556795,-0.09288376461,0.7278865518
0.9500,0.6768734923,-0.05797009951,-0.09273183425,0.7279303194
0.9550,0.6768584593,-0.05783579455,-0.09258181625,0.7279740752
0.9600,0.6768435143,-0.05770357652,-0.09243229148,0.7280174626
0.9650,0.6768271415,-0.05757206212,-0.09228555203,0.728061711
0.9700,0.676809911,-0.05744461509,-0.09213962147,0.7281062771
0.9750,0.6767917861,-0.05732017869,-0.09199513542,0.7281512003
0.9800,0.6767735322,-0.05719732471,-0.09185049797,0.7281960849
0.9850,0.6767537896,-0.05707757546,-0.0917055601,0.728242095
0.9900,0.6767335987,-0.05695903092,-0.09155924557,0.7282885484
0.9950,0.6767129536,-0.05684333339,-0.09141232988,0.7283352249
1.0000,0.676691795,-0.05672725813,-0.0912641202,0.7283825184
1.0050,0.6766702644,-0.05661096947,-0.0911132803,0.7284304508
1.0100,0.6766484303,-0.05649319862,-0.09096084223,0.7284789259
1.0150,0.6766260367,-0.05637579917,-0.09080640307,0.7285280866
1.0200,0.6766029535,-0.05625572133,-0.09064694216,0.7285786636
1.0250,0.6765805615,-0.05613350792,-0.09048376573,0.7286291658
1.0300,0.6765570929,-0.05600748378,-0.09031690879,0.7286813555
1.0350,0.6765326355,-0.05587853033,-0.09014644707,0.7287350692
1.0400,0.6765078485,-0.05574676139,-0.08997208049,0.7287897189
1.0450,0.6764826684,-0.05561185276,-0.08979508711,0.7288452261
1.0500,0.6764568372,-0.05547555128,-0.0896154726,0.7289016928
1.0550,0.6764313344,-0.05533627805,-0.08943455753,0.7289581649
1.0600,0.6764054197,-0.05519660153,-0.08925332591,0.7290150116
1.0650,0.6763783937,-0.0550570019,-0.08907226455,0.7290727857
1.0700,0.6763511728,-0.05491786517,-0.08889319,0.7291303861
1.0750,0.6763234887,-0.05478001724,-0.08871843914,0.7291877172
1.0800,0.6762954725,-0.05464633422,-0.08854831691,0.7292444087
1.0850,0.6762671355,-0.05451828174,-0.08838541473,0.7293000321
1.0900,0.6762388413,-0.05439647904,-0.08823025277,0.7293541493
1.0950,0.6762095701,-0.05428215225,-0.08808512509,0.7294073457
1.1000,0.6761789195,-0.05417744959,-0.08795249566,0.7294595474
1.1050,0.6761467215,-0.05408390008,-0.08783183332,0.7295108716
1.1100,0.6761131004,-0.05400126198,-0.08772632678,0.7295608479
1.1150,0.6760779034,-0.05393222142,-0.08763515916,0.7296095277
1.1200,0.6760398895,-0.05387661434,-0.08756074647,0.7296577924
1.1250,0.675998331,-0.05383516591,-0.08750243116,0.7297063492
1.1300,0.6759540552,-0.05380754159,-0.08746111551,0.7297543538
1.1350,0.6759071518,-0.05379417683,-0.08743780978,0.7298015745
1.1400,0.6758573033,-0.05379633973,-0.08742931758,0.7298485965
1.1450,0.675803827,-0.05381089272,-0.08743785584,0.7298960177
1.1500,0.6757472199,-0.05383847091,-0.08746174987,0.7299435294
1.1550,0.6756875327,-0.0538766841,-0.08749957315,0.7299914285
1.1600,0.6756251119,-0.05392509653,-0.08754884471,0.7300397194
1.1650,0.6755610931,-0.05398331077,-0.08760855298,0.7300874968
1.1700,0.675493916,-0.0540477886,-0.08767827823,0.7301365116
1.1750,0.6754268515,-0.05411866591,-0.08775498081,0.7301840874
1.1800,0.6753580438,-0.05419400219,-0.08783803555,0.7302321565
1.1850,0.6752882522,-0.0542717496,-0.08792381481,0.7302806012
1.1900,0.6752181754,-0.05434982079,-0.08801102591,0.7303290846
1.1950,0.675148242,-0.05442857197,-0.08809842617,0.7303773334
1.2000,0.6750792798,-0.05450553514,-0.08818442131,0.7304249588
1.2050,0.6750097649,-0.05457918575,-0.088265613,0.730473895
1.2100,0.6749407143,-0.05464814441,-0.08834324593,0.7305231573
1.2150,0.6748738601,-0.0547125616,-0.08841683435,0.7305711957
1.2200,0.6748078376,-0.05477098913,-0.08848394473,0.7306196772
1.2250,0.6747434371,-0.05482285538,-0.08854668316,0.7306676629
1.2300,0.6746809684,-0.05486784112,-0.08860362056,0.7307150671
1.2350,0.6746195368,-0.05490672865,-0.08865548951,0.7307625715
1.2400,0.6745590101,-0.05493833076,-0.08870275373,0.7308103332
1.2450,0.6744988623,-0.05496378582,-0.08874595521,0.7308586884
1.2500,0.6744400579,-0.05498431738,-0.08878395894,0.7309067942
1.2550,0.6743815944,-0.05499943059,-0.08881969712,0.730955258
1.2600,0.6743232491,-0.05501000624,-0.08885415563,0.7310040998
1.2650,0.6742645165,-0.05501774048,-0.08888605577,0.7310538141
1.2700,0.674205939,-0.05502134082,-0.08891815447,0.7311036627
1.2750,0.6741467879,-0.05502400173,-0.08895055939,0.7311540642
1.2800,0.6740870553,-0.055026117,-0.08898355675,0.731204961
1.2850,0.6740273342,-0.05502757541,-0.0890176023,0.7312557591
1.2900,0.6739665494,-0.05502816356,-0.08905259458,0.7313074777
1.2950,0.673905678,-0.05502790791,-0.08908742717,0.7313593486
1.3000,0.6738440832,-0.05502753927,-0.08912123628,0.7314120089
1.3050,0.6737816108,-0.05502781832,-0.08915466004,0.7314654652
1.3100,0.6737189558,-0.05502956161,-0.08918621583,0.7315191965
1.3150,0.6736558282,-0.05503031598,-0.08921640049,0.7315735939
1.3200,0.6735915098,-0.05503163424,-0.0892468564,0.7316290015
1.3250,0.6735264272,-0.05503304328,-0.08927654263,0.7316851884
1.3300,0.6734615238,-0.05503639655,-0.08930437564,0.7317412791
1.3350,0.6733954053,-0.05504065851,-0.08933085874,0.7317985731
1.3400,0.6733289378,-0.05504600237,-0.08935694739,0.7318561437
1.3450,0.6732618685,-0.05505313124,-0.08938322764,0.7319140987
1.3500,0.6731938294,-0.05506158382,-0.08940938992,0.7319728486
1.3550,0.6731242503,-0.05507256652,-0.08943573958,0.7320327893
1.3600,0.6730528325,-0.05508544325,-0.08946177683,0.7320943034
1.3650,0.6729804258,-0.05510195254,-0.08948869037,0.7321563327
1.3700,0.6729064974,-0.05512113631,-0.0895150296,0.7322196157
1.3750,0.6728315374,-0.05514244687,-0.08954177192,0.7322836226
1.3800,0.6727541395,-0.05516648484,-0.08956854934,0.7323496445
1.3850,0.6726753216,-0.05519201385,-0.08959415002,0.7324169862
1.3900,0.6725944417,-0.05522081531,-0.08961835098,0.7324861294
1.3950,0.6725123893,-0.05525243523,-0.08964283689,0.7325560842
1.4000,0.6724304197,-0.05528625332,-0.08966350713,0.732626246
1.4050,0.6723476004,-0.05532266863,-0.08968163516,0.7326972846
1.4100,0.6722635314,-0.05536061749,-0.08969575244,0.7327698263
1.4150,0.672178987,-0.05540034855,-0.08970624001,0.7328430946
1.4200,0.672094771,-0.05544077371,-0.08971137043,0.7329166456
1.4250,0.6720111025,-0.05548231312,-0.089712317,0.7329901031
1.4300,0.6719271671,-0.05552384627,-0.08970720211,0.7330645282
1.4350,0.6718437657,-0.05556517451,-0.08969612453,0.7331391894
1.4400,0.6717598185,-0.05560467544,-0.08968036693,0.7332150422
1.4450,0.6716756082,-0.05564362489,-0.0896586769,0.7332918832
1.4500,0.6715927102,-0.05568122143,-0.0896310167,0.7333683345
1.4550,0.6715099039,-0.05571688532,-0.08959970889,0.7334452739
1.4600,0.6714270534,-0.05575275846,-0.08956372481,0.7335227884
1.4650,0.6713435471,-0.05578624499,-0.08952426753,0.7336014873
1.4700,0.6712607067,-0.05582086016,-0.08948082098,0.733679956
1.4750,0.6711771479,-0.05585404524,-0.08943451975,0.7337595168
1.4800,0.6710935819,-0.05588751596,-0.08938624317,0.7338392803
1.4850,0.6710095521,-0.05592080047,-0.08933661734,0.7339196236
1.4900,0.6709256051,-0.0559548234,-0.08928720377,0.7339997857
1.4950,0.6708409215,-0.05598929857,-0.08923692962,0.7340806678
1.5000,0.6707554032,-0.05602442286,-0.08918855541,0.7341620085
1.5050,0.6706701196,-0.05606095952,-0.08914283979,0.7342426803
1.5100,0.6705842825,-0.05609855334,-0.08909848646,0.7343235882
1.5150,0.6704978972,-0.05613738467,-0.08905579748,0.7344046765
1.5200,0.6704116707,-0.05617759951,-0.08901736989,0.734484974
1.5250,0.6703243462,-0.05621868975,-0.0889800293,0.7345660517
1.5300,0.6702362842,-0.0562628499,-0.08894607391,0.7346471337
1.5350,0.6701483282,-0.05630648686,-0.08891497634,0.7347277896
1.5400,0.6700608194,-0.05635241445,-0.08888520157,0.7348076786
1.5450,0.6699730726,-0.0563998779,-0.08885793959,0.7348873399
1.5500,0.6698850505,-0.05644827255,-0.08883153339,0.7349670539
1.5550,0.6697971591,-0.05649870594,-0.08880742276,0.7350461914
1.5600,0.6697086825,-0.05654960297,-0.08878307049,0.7351258324
1.5650,0.6696211843,-0.0566013992,-0.08876018186,0.7352043126
1.5700,0.6695327312,-0.05665419334,-0.08873880786,0.7352833795
1.5750,0.6694440976,-0.05670768005,-0.0887167656,0.7353626144
1.5800,0.669354927,-0.05676169813,-0.0886975101,0.7354419372
1.5850,0.669265683,-0.05681552794,-0.08867877567,0.7355212546
1.5900,0.6691757283,-0.05687124306,-0.08866171858,0.7356008469
